#wls	flux	fluxerr
1.574803E+03	7.151581E-04	6.726224E-05
1.614173E+03	7.170589E-04	6.724900E-05
1.653543E+03	7.192933E-04	6.726112E-05
1.692913E+03	7.218721E-04	6.729920E-05
1.732283E+03	7.248072E-04	6.736390E-05
1.771654E+03	7.282425E-04	6.746808E-05
1.811024E+03	7.320617E-04	6.760039E-05
1.850394E+03	7.365420E-04	6.778580E-05
1.889764E+03	7.414396E-04	6.800115E-05
1.929134E+03	7.469044E-04	6.825951E-05
1.968504E+03	7.530885E-04	6.857396E-05
2.007874E+03	7.600148E-04	6.894560E-05
2.047244E+03	7.675780E-04	6.936389E-05
2.086614E+03	7.760690E-04	6.985405E-05
2.125984E+03	7.853869E-04	7.040572E-05
2.165354E+03	7.958304E-04	7.104433E-05
2.204724E+03	8.071731E-04	7.174810E-05
2.244094E+03	8.197216E-04	7.254274E-05
2.283465E+03	8.336557E-04	7.344221E-05
2.322835E+03	8.488941E-04	7.443725E-05
2.362205E+03	8.656272E-04	7.554235E-05
2.401575E+03	8.839166E-04	7.676039E-05
2.440945E+03	9.041041E-04	7.811828E-05
2.480315E+03	9.261303E-04	7.960775E-05
2.519685E+03	9.504932E-04	8.126816E-05
2.559055E+03	9.770116E-04	8.308008E-05
2.598425E+03	1.006208E-03	8.508379E-05
2.637795E+03	1.038201E-03	8.728441E-05
2.677165E+03	1.073261E-03	8.969943E-05
2.716535E+03	1.111819E-03	9.235894E-05
2.755906E+03	1.154037E-03	9.526960E-05
2.795276E+03	1.200383E-03	9.846279E-05
2.834646E+03	1.251200E-03	1.019584E-04
2.874016E+03	1.307159E-03	1.058017E-04
2.913386E+03	1.368500E-03	1.100018E-04
2.952756E+03	1.435947E-03	1.146053E-04
2.962598E+03	1.453836E-03	1.158236E-04
2.972441E+03	1.472207E-03	1.170741E-04
2.982283E+03	1.491068E-03	1.183571E-04
2.992126E+03	1.510264E-03	1.196602E-04
3.001969E+03	1.529959E-03	1.209961E-04
3.011811E+03	1.550158E-03	1.223649E-04
3.021654E+03	1.570706E-03	1.237543E-04
3.031496E+03	1.591931E-03	1.251896E-04
3.041339E+03	1.613514E-03	1.266458E-04
3.051181E+03	1.635786E-03	1.281483E-04
3.061024E+03	1.658428E-03	1.296719E-04
3.070866E+03	1.681771E-03	1.312422E-04
3.080709E+03	1.705658E-03	1.328468E-04
3.090551E+03	1.729930E-03	1.344728E-04
3.100394E+03	1.755089E-03	1.361590E-04
3.110236E+03	1.780644E-03	1.378669E-04
3.120079E+03	1.806933E-03	1.396224E-04
3.129921E+03	1.833796E-03	1.414129E-04
3.139764E+03	1.861238E-03	1.432382E-04
3.149606E+03	1.889435E-03	1.451117E-04
3.159449E+03	1.918393E-03	1.470334E-04
3.169291E+03	1.947949E-03	1.489904E-04
3.179134E+03	1.978280E-03	1.509958E-04
3.188976E+03	2.009220E-03	1.530366E-04
3.198819E+03	2.041120E-03	1.551391E-04
3.208661E+03	2.073640E-03	1.572771E-04
3.218504E+03	2.106961E-03	1.594637E-04
3.228346E+03	2.141087E-03	1.616989E-04
3.238189E+03	2.176024E-03	1.639828E-04
3.248031E+03	2.211778E-03	1.663152E-04
3.257874E+03	2.248533E-03	1.687094E-04
3.267717E+03	2.285936E-03	1.711386E-04
3.277559E+03	2.324349E-03	1.736293E-04
3.287402E+03	2.363598E-03	1.761680E-04
3.297244E+03	2.403867E-03	1.787680E-04
3.307087E+03	2.444978E-03	1.814154E-04
3.316929E+03	2.487117E-03	1.841233E-04
3.326772E+03	2.530286E-03	1.868916E-04
3.336614E+03	2.574304E-03	1.897061E-04
3.346457E+03	2.619540E-03	1.925935E-04
3.356299E+03	2.665626E-03	1.955262E-04
3.366142E+03	2.712746E-03	1.985169E-04
3.375984E+03	2.760899E-03	2.015651E-04
3.385827E+03	2.810272E-03	2.046837E-04
3.395669E+03	2.860672E-03	2.078581E-04
3.405512E+03	2.912097E-03	2.110873E-04
3.415354E+03	2.964729E-03	2.143840E-04
3.425197E+03	3.018372E-03	2.177333E-04
3.435039E+03	3.073210E-03	2.211478E-04
3.444882E+03	3.129234E-03	2.246261E-04
3.454724E+03	3.186432E-03	2.281668E-04
3.464567E+03	3.244793E-03	2.317681E-04
3.474409E+03	3.304107E-03	2.354145E-04
3.484252E+03	3.364747E-03	2.391318E-04
3.494094E+03	3.426698E-03	2.429182E-04
3.503937E+03	3.489544E-03	2.467434E-04
3.513780E+03	3.553657E-03	2.506332E-04
3.523622E+03	3.619014E-03	2.545850E-04
3.533465E+03	3.685588E-03	2.585962E-04
3.543307E+03	3.753148E-03	2.626499E-04
3.553150E+03	3.821863E-03	2.667572E-04
3.562992E+03	3.891898E-03	2.709289E-04
3.572835E+03	3.963015E-03	2.751476E-04
3.582677E+03	4.035173E-03	2.794097E-04
3.592520E+03	4.108327E-03	2.837115E-04
3.602362E+03	4.182632E-03	2.880629E-04
3.612205E+03	4.257835E-03	2.924459E-04
3.622047E+03	4.334291E-03	2.968842E-04
3.631890E+03	4.411534E-03	3.013449E-04
3.641732E+03	4.489912E-03	3.058516E-04
3.651575E+03	4.568952E-03	3.103710E-04
3.661417E+03	4.648996E-03	3.149260E-04
3.671260E+03	4.729767E-03	3.194972E-04
3.681102E+03	4.811398E-03	3.240930E-04
3.690945E+03	4.893600E-03	3.286935E-04
3.700787E+03	4.976711E-03	3.333207E-04
3.710630E+03	5.060228E-03	3.379406E-04
3.720472E+03	5.144264E-03	3.425602E-04
3.730315E+03	5.228736E-03	3.471738E-04
3.740157E+03	5.313742E-03	3.517874E-04
3.750000E+03	5.398785E-03	3.563678E-04
3.759843E+03	5.484367E-03	3.609481E-04
3.769685E+03	5.569971E-03	3.654938E-04
3.779528E+03	5.655499E-03	3.699984E-04
3.789370E+03	5.741235E-03	3.744805E-04
3.799213E+03	5.826661E-03	3.789061E-04
3.809055E+03	5.912070E-03	3.832944E-04
3.818898E+03	5.996924E-03	3.876106E-04
3.828740E+03	6.081507E-03	3.918731E-04
3.838583E+03	6.165490E-03	3.960611E-04
3.848425E+03	6.248938E-03	4.001790E-04
3.858268E+03	6.331511E-03	4.042053E-04
3.868110E+03	6.413069E-03	4.081315E-04
3.877953E+03	6.493864E-03	4.119744E-04
3.887795E+03	6.573132E-03	4.156860E-04
3.897638E+03	6.651310E-03	4.192947E-04
3.907480E+03	6.727817E-03	4.227647E-04
3.917323E+03	6.802859E-03	4.261099E-04
3.927165E+03	6.875843E-03	4.292941E-04
3.937008E+03	6.946757E-03	4.323178E-04
3.946850E+03	7.015385E-03	4.351690E-04
3.956693E+03	7.081314E-03	4.378234E-04
3.966535E+03	7.144708E-03	4.402929E-04
3.976378E+03	7.204969E-03	4.425423E-04
3.986220E+03	7.262084E-03	4.445728E-04
3.996063E+03	7.315861E-03	4.463746E-04
4.005906E+03	7.366126E-03	4.479392E-04
4.015748E+03	7.412549E-03	4.492489E-04
4.025591E+03	7.455200E-03	4.503102E-04
4.035433E+03	7.493626E-03	4.510984E-04
4.045276E+03	7.528321E-03	4.516457E-04
4.055118E+03	7.558747E-03	4.519224E-04
4.064961E+03	7.585123E-03	4.519441E-04
4.074803E+03	7.607363E-03	4.517085E-04
4.084646E+03	7.625760E-03	4.512354E-04
4.094488E+03	7.640498E-03	4.505383E-04
4.104331E+03	7.651458E-03	4.496124E-04
4.114173E+03	7.658907E-03	4.484759E-04
4.124016E+03	7.663296E-03	4.471574E-04
4.133858E+03	7.664642E-03	4.456599E-04
4.143701E+03	7.663452E-03	4.440147E-04
4.153543E+03	7.659944E-03	4.422363E-04
4.163386E+03	7.654379E-03	4.403410E-04
4.173228E+03	7.647173E-03	4.383542E-04
4.183071E+03	7.638750E-03	4.363013E-04
4.192913E+03	7.629274E-03	4.341925E-04
4.202756E+03	7.619343E-03	4.320624E-04
4.212598E+03	7.609000E-03	4.299140E-04
4.222441E+03	7.598984E-03	4.277891E-04
4.232283E+03	7.589487E-03	4.256987E-04
4.242126E+03	7.580716E-03	4.236540E-04
4.251969E+03	7.573253E-03	4.216872E-04
4.261811E+03	7.567406E-03	4.198146E-04
4.271654E+03	7.563356E-03	4.180456E-04
4.281496E+03	7.561520E-03	4.164020E-04
4.291339E+03	7.562165E-03	4.148974E-04
4.301181E+03	7.565440E-03	4.135386E-04
4.311024E+03	7.571821E-03	4.123500E-04
4.320866E+03	7.581300E-03	4.113294E-04
4.330709E+03	7.594198E-03	4.104927E-04
4.340551E+03	7.610820E-03	4.098543E-04
4.350394E+03	7.631217E-03	4.094148E-04
4.360236E+03	7.655637E-03	4.091856E-04
4.370079E+03	7.684088E-03	4.091648E-04
4.379921E+03	7.716874E-03	4.093662E-04
4.389764E+03	7.754046E-03	4.097904E-04
4.399606E+03	7.795607E-03	4.104351E-04
4.409449E+03	7.841757E-03	4.113083E-04
4.419291E+03	7.892300E-03	4.123975E-04
4.429134E+03	7.947235E-03	4.137002E-04
4.438976E+03	8.006607E-03	4.152166E-04
4.448819E+03	8.070182E-03	4.169321E-04
4.458661E+03	8.137903E-03	4.188418E-04
4.468504E+03	8.209528E-03	4.209312E-04
4.478346E+03	8.284541E-03	4.231720E-04
4.488189E+03	8.362893E-03	4.255603E-04
4.498031E+03	8.443947E-03	4.280621E-04
4.507874E+03	8.527294E-03	4.306558E-04
4.517717E+03	8.612478E-03	4.333174E-04
4.527559E+03	8.698653E-03	4.360041E-04
4.537402E+03	8.785358E-03	4.386928E-04
4.547244E+03	8.871751E-03	4.413417E-04
4.557087E+03	8.957192E-03	4.439199E-04
4.566929E+03	9.040786E-03	4.463842E-04
4.576772E+03	9.121884E-03	4.487042E-04
4.586614E+03	9.199724E-03	4.508446E-04
4.596457E+03	9.273476E-03	4.527672E-04
4.606299E+03	9.342571E-03	4.544469E-04
4.616142E+03	9.406286E-03	4.558521E-04
4.625984E+03	9.464198E-03	4.569654E-04
4.635827E+03	9.515819E-03	4.577672E-04
4.645669E+03	9.560660E-03	4.582380E-04
4.655512E+03	9.598414E-03	4.583669E-04
4.665354E+03	9.628854E-03	4.581475E-04
4.675197E+03	9.651984E-03	4.575843E-04
4.685039E+03	9.667796E-03	4.566809E-04
4.694882E+03	9.676210E-03	4.554379E-04
4.704724E+03	9.677815E-03	4.538869E-04
4.714567E+03	9.672866E-03	4.520436E-04
4.724409E+03	9.661720E-03	4.499282E-04
4.734252E+03	9.645277E-03	4.475858E-04
4.744094E+03	9.623959E-03	4.450388E-04
4.753937E+03	9.598730E-03	4.423342E-04
4.763780E+03	9.570290E-03	4.395060E-04
4.773622E+03	9.539734E-03	4.366055E-04
4.783465E+03	9.508004E-03	4.336763E-04
4.793307E+03	9.476077E-03	4.307631E-04
4.803150E+03	9.445178E-03	4.279212E-04
4.812992E+03	9.416213E-03	4.251906E-04
4.822835E+03	9.390289E-03	4.226201E-04
4.832677E+03	9.368471E-03	4.202556E-04
4.842520E+03	9.351649E-03	4.181350E-04
4.852362E+03	9.340637E-03	4.162920E-04
4.862205E+03	9.336229E-03	4.147592E-04
4.872047E+03	9.339089E-03	4.135629E-04
4.881890E+03	9.349629E-03	4.127181E-04
4.891732E+03	9.368011E-03	4.122283E-04
4.901575E+03	9.394636E-03	4.121080E-04
4.911417E+03	9.429132E-03	4.123373E-04
4.921260E+03	9.471591E-03	4.129168E-04
4.931102E+03	9.521654E-03	4.138279E-04
4.940945E+03	9.578720E-03	4.150413E-04
4.950787E+03	9.642290E-03	4.165329E-04
4.960630E+03	9.711555E-03	4.182652E-04
4.970472E+03	9.785957E-03	4.202121E-04
4.980315E+03	9.864677E-03	4.223366E-04
4.990157E+03	9.946799E-03	4.245982E-04
5.000000E+03	1.003163E-02	4.269660E-04
5.009843E+03	1.011842E-02	4.294078E-04
5.019685E+03	1.020653E-02	4.318952E-04
5.029528E+03	1.029542E-02	4.344051E-04
5.039370E+03	1.038466E-02	4.369201E-04
5.049213E+03	1.047410E-02	4.394334E-04
5.059055E+03	1.056350E-02	4.419345E-04
5.068898E+03	1.065293E-02	4.444275E-04
5.078740E+03	1.074248E-02	4.469154E-04
5.088583E+03	1.083218E-02	4.493997E-04
5.098425E+03	1.092231E-02	4.518922E-04
5.108268E+03	1.101293E-02	4.543956E-04
5.118110E+03	1.110443E-02	4.569255E-04
5.127953E+03	1.119668E-02	4.594765E-04
5.137795E+03	1.128985E-02	4.620556E-04
5.147638E+03	1.138381E-02	4.646572E-04
5.157480E+03	1.147875E-02	4.672887E-04
5.167323E+03	1.157417E-02	4.699304E-04
5.177165E+03	1.167018E-02	4.725858E-04
5.187008E+03	1.176654E-02	4.752461E-04
5.196850E+03	1.186290E-02	4.778968E-04
5.206693E+03	1.195884E-02	4.805209E-04
5.216535E+03	1.205427E-02	4.831155E-04
5.226378E+03	1.214853E-02	4.856548E-04
5.236220E+03	1.224133E-02	4.881273E-04
5.246063E+03	1.233189E-02	4.905028E-04
5.255906E+03	1.241992E-02	4.927706E-04
5.265748E+03	1.250444E-02	4.948930E-04
5.275591E+03	1.258509E-02	4.968571E-04
5.285433E+03	1.266099E-02	4.986295E-04
5.295276E+03	1.273172E-02	5.001949E-04
5.305118E+03	1.279643E-02	5.015219E-04
5.314961E+03	1.285500E-02	5.026076E-04
5.324803E+03	1.290671E-02	5.034257E-04
5.334646E+03	1.295142E-02	5.039718E-04
5.344488E+03	1.298858E-02	5.042271E-04
5.354331E+03	1.301808E-02	5.041895E-04
5.364173E+03	1.303932E-02	5.038371E-04
5.374016E+03	1.305220E-02	5.031684E-04
5.383858E+03	1.305652E-02	5.021782E-04
5.393701E+03	1.305181E-02	5.008498E-04
5.403543E+03	1.303783E-02	4.991773E-04
5.413386E+03	1.301464E-02	4.971644E-04
5.423228E+03	1.298172E-02	4.947939E-04
5.433071E+03	1.293920E-02	4.920729E-04
5.442913E+03	1.288653E-02	4.889831E-04
5.452756E+03	1.282380E-02	4.855301E-04
5.462598E+03	1.275058E-02	4.816997E-04
5.472441E+03	1.266695E-02	4.774979E-04
5.482283E+03	1.257251E-02	4.729119E-04
5.492126E+03	1.246720E-02	4.679413E-04
5.501969E+03	1.235115E-02	4.625940E-04
5.511811E+03	1.222439E-02	4.568733E-04
5.521654E+03	1.208725E-02	4.507936E-04
5.531496E+03	1.194014E-02	4.443730E-04
5.541339E+03	1.178375E-02	4.376384E-04
5.551181E+03	1.161923E-02	4.306351E-04
5.561024E+03	1.144767E-02	4.234041E-04
5.570866E+03	1.127073E-02	4.160088E-04
5.580709E+03	1.108981E-02	4.085016E-04
5.590551E+03	1.090707E-02	4.009621E-04
5.600394E+03	1.072416E-02	3.934514E-04
5.610236E+03	1.054315E-02	3.860449E-04
5.620079E+03	1.036609E-02	3.788166E-04
5.629921E+03	1.019474E-02	3.718297E-04
5.639764E+03	1.003087E-02	3.651474E-04
5.649606E+03	9.876347E-03	3.588355E-04
5.659449E+03	9.732456E-03	3.529386E-04
5.669291E+03	9.600611E-03	3.475053E-04
5.679134E+03	9.481840E-03	3.425704E-04
5.688976E+03	9.377257E-03	3.381710E-04
5.698819E+03	9.287457E-03	3.343259E-04
5.708661E+03	9.212905E-03	3.310489E-04
5.718504E+03	9.153735E-03	3.283416E-04
5.728346E+03	9.110134E-03	3.262080E-04
5.738189E+03	9.081779E-03	3.246338E-04
5.748031E+03	9.068129E-03	3.235969E-04
5.757874E+03	9.068718E-03	3.230782E-04
5.767717E+03	9.082536E-03	3.230397E-04
5.777559E+03	9.108669E-03	3.234467E-04
5.787402E+03	9.145976E-03	3.242572E-04
5.797244E+03	9.193060E-03	3.254201E-04
5.807087E+03	9.248496E-03	3.268840E-04
5.816929E+03	9.310742E-03	3.285936E-04
5.826772E+03	9.378244E-03	3.304935E-04
5.836614E+03	9.449082E-03	3.325160E-04
5.846457E+03	9.521554E-03	3.346014E-04
5.856299E+03	9.593738E-03	3.366826E-04
5.866142E+03	9.663930E-03	3.387007E-04
5.875984E+03	9.730294E-03	3.405921E-04
5.885827E+03	9.791104E-03	3.422979E-04
5.895669E+03	9.844906E-03	3.437685E-04
5.905512E+03	9.890590E-03	3.449668E-04
5.915354E+03	9.926999E-03	3.458541E-04
5.925197E+03	9.953612E-03	3.464139E-04
5.935039E+03	9.970024E-03	3.466336E-04
5.944882E+03	9.976289E-03	3.465168E-04
5.954724E+03	9.972681E-03	3.460744E-04
5.964567E+03	9.959914E-03	3.453326E-04
5.974409E+03	9.938970E-03	3.443265E-04
5.984252E+03	9.910975E-03	3.430960E-04
5.994094E+03	9.877355E-03	3.416914E-04
6.003937E+03	9.839561E-03	3.401634E-04
6.013780E+03	9.799340E-03	3.385729E-04
6.023622E+03	9.758272E-03	3.369748E-04
6.033465E+03	9.717902E-03	3.354225E-04
6.043307E+03	9.679942E-03	3.339753E-04
6.053150E+03	9.645673E-03	3.326775E-04
6.062992E+03	9.616654E-03	3.315827E-04
6.072835E+03	9.593982E-03	3.307288E-04
6.082677E+03	9.578553E-03	3.301469E-04
6.092520E+03	9.571267E-03	3.298680E-04
6.102362E+03	9.572697E-03	3.299118E-04
6.112205E+03	9.583158E-03	3.302887E-04
6.122047E+03	9.602592E-03	3.309963E-04
6.131890E+03	9.630939E-03	3.320322E-04
6.141732E+03	9.667887E-03	3.333854E-04
6.151575E+03	9.713015E-03	3.350412E-04
6.161417E+03	9.765804E-03	3.369817E-04
6.171260E+03	9.825718E-03	3.391882E-04
6.181102E+03	9.891826E-03	3.416289E-04
6.190945E+03	9.963254E-03	3.442734E-04
6.200787E+03	1.003884E-02	3.470816E-04
6.210630E+03	1.011713E-02	3.500035E-04
6.220472E+03	1.019700E-02	3.529998E-04
6.230315E+03	1.027653E-02	3.560039E-04
6.240157E+03	1.035430E-02	3.589665E-04
6.250000E+03	1.042856E-02	3.618264E-04
6.259843E+03	1.049794E-02	3.645355E-04
6.269685E+03	1.056061E-02	3.670291E-04
6.279528E+03	1.061557E-02	3.692718E-04
6.289370E+03	1.066146E-02	3.712147E-04
6.299213E+03	1.069759E-02	3.728331E-04
6.309055E+03	1.072297E-02	3.740903E-04
6.318898E+03	1.073755E-02	3.749831E-04
6.328740E+03	1.074106E-02	3.755008E-04
6.338583E+03	1.073349E-02	3.756407E-04
6.348425E+03	1.071525E-02	3.754155E-04
6.358268E+03	1.068694E-02	3.748442E-04
6.368110E+03	1.064878E-02	3.739334E-04
6.377953E+03	1.060184E-02	3.727181E-04
6.387795E+03	1.054672E-02	3.712181E-04
6.397638E+03	1.048416E-02	3.694577E-04
6.407480E+03	1.041497E-02	3.674640E-04
6.417323E+03	1.033970E-02	3.652546E-04
6.427165E+03	1.025890E-02	3.628485E-04
6.437008E+03	1.017334E-02	3.602706E-04
6.446850E+03	1.008331E-02	3.575307E-04
6.456693E+03	9.989181E-03	3.546405E-04
6.466535E+03	9.891486E-03	3.516180E-04
6.476378E+03	9.790381E-03	3.484678E-04
6.486220E+03	9.686106E-03	3.451975E-04
6.496063E+03	9.579102E-03	3.418219E-04
6.505906E+03	9.469463E-03	3.383436E-04
6.515748E+03	9.357484E-03	3.347724E-04
6.525591E+03	9.243342E-03	3.311140E-04
6.535433E+03	9.127298E-03	3.273771E-04
6.545276E+03	9.009370E-03	3.235617E-04
6.555118E+03	8.889886E-03	3.196792E-04
6.564961E+03	8.768834E-03	3.157285E-04
6.574803E+03	8.646491E-03	3.117192E-04
6.584646E+03	8.522714E-03	3.076459E-04
6.594488E+03	8.397766E-03	3.035175E-04
6.604331E+03	8.271704E-03	2.993359E-04
6.614173E+03	8.144488E-03	2.950993E-04
6.624016E+03	8.016406E-03	2.908179E-04
6.633858E+03	7.887549E-03	2.864947E-04
6.643701E+03	7.757961E-03	2.821313E-04
6.653543E+03	7.627914E-03	2.777373E-04
6.663386E+03	7.497633E-03	2.733208E-04
6.673228E+03	7.367396E-03	2.688920E-04
6.683071E+03	7.237644E-03	2.644670E-04
6.692913E+03	7.108675E-03	2.600568E-04
6.702756E+03	6.981036E-03	2.556815E-04
6.712598E+03	6.855233E-03	2.513600E-04
6.722441E+03	6.731809E-03	2.471123E-04
6.732283E+03	6.611258E-03	2.429572E-04
6.742126E+03	6.494444E-03	2.389267E-04
6.751969E+03	6.381729E-03	2.350349E-04
6.761811E+03	6.273824E-03	2.313084E-04
6.771654E+03	6.171421E-03	2.277734E-04
6.781496E+03	6.075114E-03	2.244527E-04
6.791339E+03	5.985397E-03	2.213654E-04
6.801181E+03	5.902817E-03	2.185326E-04
6.811024E+03	5.828020E-03	2.159790E-04
6.820866E+03	5.761249E-03	2.137147E-04
6.830709E+03	5.703145E-03	2.117645E-04
6.840551E+03	5.653946E-03	2.101381E-04
6.850394E+03	5.614045E-03	2.088513E-04
6.860236E+03	5.583662E-03	2.079133E-04
6.870079E+03	5.563099E-03	2.073363E-04
6.879921E+03	5.552548E-03	2.071286E-04
6.889764E+03	5.552052E-03	2.072929E-04
6.899606E+03	5.561765E-03	2.078358E-04
6.909449E+03	5.581610E-03	2.087556E-04
6.919291E+03	5.611591E-03	2.100533E-04
6.929134E+03	5.651557E-03	2.117243E-04
6.938976E+03	5.701115E-03	2.137547E-04
6.948819E+03	5.760080E-03	2.161385E-04
6.958661E+03	5.828024E-03	2.188604E-04
6.968504E+03	5.904280E-03	2.218961E-04
6.978346E+03	5.988396E-03	2.252293E-04
6.988189E+03	6.079552E-03	2.288298E-04
6.998031E+03	6.177089E-03	2.326734E-04
7.007874E+03	6.280246E-03	2.367318E-04
7.017717E+03	6.388252E-03	2.409765E-04
7.027559E+03	6.500236E-03	2.453749E-04
7.037402E+03	6.615437E-03	2.498986E-04
7.047244E+03	6.733136E-03	2.545206E-04
7.057087E+03	6.852749E-03	2.592192E-04
7.066929E+03	6.973467E-03	2.639638E-04
7.076772E+03	7.094741E-03	2.687338E-04
7.086614E+03	7.216161E-03	2.735137E-04
7.096457E+03	7.337199E-03	2.782837E-04
7.106299E+03	7.457482E-03	2.830295E-04
7.116142E+03	7.576560E-03	2.877342E-04
7.125984E+03	7.694118E-03	2.923858E-04
7.135827E+03	7.809963E-03	2.969771E-04
7.145669E+03	7.923571E-03	3.014881E-04
7.155512E+03	8.034599E-03	3.059057E-04
7.165354E+03	8.142652E-03	3.102149E-04
7.175197E+03	8.247168E-03	3.143944E-04
7.185039E+03	8.347723E-03	3.184279E-04
7.194882E+03	8.443473E-03	3.222830E-04
7.204724E+03	8.533802E-03	3.259363E-04
7.214567E+03	8.617675E-03	3.293480E-04
7.224409E+03	8.694299E-03	3.324877E-04
7.234252E+03	8.762462E-03	3.353087E-04
7.244094E+03	8.821238E-03	3.377752E-04
7.253937E+03	8.869438E-03	3.398414E-04
7.263780E+03	8.905886E-03	3.414616E-04
7.273622E+03	8.929667E-03	3.426001E-04
7.283465E+03	8.939712E-03	3.432153E-04
7.293307E+03	8.935087E-03	3.432705E-04
7.303150E+03	8.915133E-03	3.427396E-04
7.312992E+03	8.879643E-03	3.416136E-04
7.322835E+03	8.828057E-03	3.398699E-04
7.332677E+03	8.760684E-03	3.375195E-04
7.342520E+03	8.677769E-03	3.345705E-04
7.352362E+03	8.580083E-03	3.310517E-04
7.362205E+03	8.468459E-03	3.269940E-04
7.372047E+03	8.344345E-03	3.224522E-04
7.381890E+03	8.209187E-03	3.174813E-04
7.391732E+03	8.064540E-03	3.121402E-04
7.401575E+03	7.912428E-03	3.065061E-04
7.411417E+03	7.754645E-03	3.006475E-04
7.421260E+03	7.593194E-03	2.946412E-04
7.431102E+03	7.429811E-03	2.885537E-04
7.440945E+03	7.266221E-03	2.824516E-04
7.450787E+03	7.103987E-03	2.763952E-04
7.460630E+03	6.944601E-03	2.704424E-04
7.470472E+03	6.789560E-03	2.646515E-04
7.480315E+03	6.640163E-03	2.590730E-04
7.490157E+03	6.497592E-03	2.537533E-04
7.500000E+03	6.362867E-03	2.487327E-04
7.509843E+03	6.236951E-03	2.440494E-04
7.519685E+03	6.120442E-03	2.397273E-04
7.529528E+03	6.013859E-03	2.357877E-04
7.539370E+03	5.917466E-03	2.322418E-04
7.549213E+03	5.831116E-03	2.290847E-04
7.559055E+03	5.754888E-03	2.263204E-04
7.568898E+03	5.688522E-03	2.239398E-04
7.578740E+03	5.631863E-03	2.219377E-04
7.588583E+03	5.584520E-03	2.202996E-04
7.598425E+03	5.546230E-03	2.190161E-04
7.608268E+03	5.516582E-03	2.180720E-04
7.618110E+03	5.495056E-03	2.174475E-04
7.627953E+03	5.481163E-03	2.171241E-04
7.637795E+03	5.474515E-03	2.170872E-04
