#wls	flux	fluxerr
1.574803E+03	7.268752E-04	7.096587E-05
1.614173E+03	7.301344E-04	7.109480E-05
1.653543E+03	7.337690E-04	7.125375E-05
1.692913E+03	7.377915E-04	7.144350E-05
1.732283E+03	7.422179E-04	7.166508E-05
1.771654E+03	7.471951E-04	7.193212E-05
1.811024E+03	7.526093E-04	7.223302E-05
1.850394E+03	7.587453E-04	7.259444E-05
1.889764E+03	7.653587E-04	7.299218E-05
1.929134E+03	7.726048E-04	7.344032E-05
1.968504E+03	7.806435E-04	7.395316E-05
2.007874E+03	7.895029E-04	7.453230E-05
2.047244E+03	7.990799E-04	7.516690E-05
2.086614E+03	8.096773E-04	7.588430E-05
2.125984E+03	8.213333E-04	7.668666E-05
2.165354E+03	8.339535E-04	7.756368E-05
2.204724E+03	8.478554E-04	7.854331E-05
2.244094E+03	8.629524E-04	7.961568E-05
2.283465E+03	8.794363E-04	8.079656E-05
2.322835E+03	8.975076E-04	8.210215E-05
2.362205E+03	9.170926E-04	8.352327E-05
2.401575E+03	9.386878E-04	8.510248E-05
2.440945E+03	9.620924E-04	8.681846E-05
2.480315E+03	9.876805E-04	8.870178E-05
2.519685E+03	1.015697E-03	9.077067E-05
2.559055E+03	1.046106E-03	9.301781E-05
2.598425E+03	1.079467E-03	9.548860E-05
2.637795E+03	1.115918E-03	9.818997E-05
2.677165E+03	1.155605E-03	1.011292E-04
2.716535E+03	1.199146E-03	1.043541E-04
2.755906E+03	1.246567E-03	1.078599E-04
2.795276E+03	1.298529E-03	1.116963E-04
2.834646E+03	1.355411E-03	1.158870E-04
2.874016E+03	1.417608E-03	1.204562E-04
2.913386E+03	1.485868E-03	1.254566E-04
2.952756E+03	1.560472E-03	1.308998E-04
2.962598E+03	1.580244E-03	1.323391E-04
2.972441E+03	1.600371E-03	1.338016E-04
2.982283E+03	1.621028E-03	1.353018E-04
2.992126E+03	1.642223E-03	1.368399E-04
3.001969E+03	1.663787E-03	1.384017E-04
3.011811E+03	1.686070E-03	1.400160E-04
3.021654E+03	1.708560E-03	1.416400E-04
3.031496E+03	1.731781E-03	1.433171E-04
3.041339E+03	1.755567E-03	1.450330E-04
3.051181E+03	1.779747E-03	1.467734E-04
3.061024E+03	1.804677E-03	1.485674E-04
3.070866E+03	1.830011E-03	1.503863E-04
3.080709E+03	1.855930E-03	1.522445E-04
3.090551E+03	1.882620E-03	1.541570E-04
3.100394E+03	1.909727E-03	1.560946E-04
3.110236E+03	1.937617E-03	1.580868E-04
3.120079E+03	1.966115E-03	1.601190E-04
3.129921E+03	1.995227E-03	1.621913E-04
3.139764E+03	2.024957E-03	1.643037E-04
3.149606E+03	2.055495E-03	1.664713E-04
3.159449E+03	2.086661E-03	1.686792E-04
3.169291E+03	2.118461E-03	1.709273E-04
3.179134E+03	2.151085E-03	1.732308E-04
3.188976E+03	2.184539E-03	1.755897E-04
3.198819E+03	2.218641E-03	1.779888E-04
3.208661E+03	2.253584E-03	1.804433E-04
3.218504E+03	2.289182E-03	1.829379E-04
3.228346E+03	2.325629E-03	1.854877E-04
3.238189E+03	2.362929E-03	1.880924E-04
3.248031E+03	2.401086E-03	1.907521E-04
3.257874E+03	2.440104E-03	1.934665E-04
3.267717E+03	2.479985E-03	1.962353E-04
3.277559E+03	2.520733E-03	1.990582E-04
3.287402E+03	2.562348E-03	2.019350E-04
3.297244E+03	2.605029E-03	2.048806E-04
3.307087E+03	2.648383E-03	2.078637E-04
3.316929E+03	2.692804E-03	2.109148E-04
3.326772E+03	2.738294E-03	2.140332E-04
3.336614E+03	2.784652E-03	2.172029E-04
3.346457E+03	2.831875E-03	2.204231E-04
3.356299E+03	2.880160E-03	2.237086E-04
3.366142E+03	2.929506E-03	2.270586E-04
3.375984E+03	2.979704E-03	2.304564E-04
3.385827E+03	3.031156E-03	2.339325E-04
3.395669E+03	3.083446E-03	2.374541E-04
3.405512E+03	3.136770E-03	2.410360E-04
3.415354E+03	3.191326E-03	2.446925E-04
3.425197E+03	3.246898E-03	2.484065E-04
3.435039E+03	3.303472E-03	2.521762E-04
3.444882E+03	3.361034E-03	2.560001E-04
3.454724E+03	3.419778E-03	2.598922E-04
3.464567E+03	3.479477E-03	2.638347E-04
3.474409E+03	3.540323E-03	2.678415E-04
3.484252E+03	3.602295E-03	2.719103E-04
3.494094E+03	3.665157E-03	2.760227E-04
3.503937E+03	3.729099E-03	2.801924E-04
3.513780E+03	3.794306E-03	2.844326E-04
3.523622E+03	3.860321E-03	2.887083E-04
3.533465E+03	3.927543E-03	2.930488E-04
3.543307E+03	3.995720E-03	2.974348E-04
3.553150E+03	4.064819E-03	3.018629E-04
3.562992E+03	4.135014E-03	3.063456E-04
3.572835E+03	4.206048E-03	3.108632E-04
3.582677E+03	4.278092E-03	3.154279E-04
3.592520E+03	4.351102E-03	3.200356E-04
3.602362E+03	4.425027E-03	3.246820E-04
3.612205E+03	4.499814E-03	3.293626E-04
3.622047E+03	4.575406E-03	3.340729E-04
3.631890E+03	4.651745E-03	3.388079E-04
3.641732E+03	4.728768E-03	3.435626E-04
3.651575E+03	4.806631E-03	3.483479E-04
3.661417E+03	4.885049E-03	3.531426E-04
3.671260E+03	4.964166E-03	3.579567E-04
3.681102E+03	5.043692E-03	3.627689E-04
3.690945E+03	5.123775E-03	3.675893E-04
3.700787E+03	5.204547E-03	3.724273E-04
3.710630E+03	5.285496E-03	3.772455E-04
3.720472E+03	5.366749E-03	3.820532E-04
3.730315E+03	5.448446E-03	3.868597E-04
3.740157E+03	5.530275E-03	3.916428E-04
3.750000E+03	5.612148E-03	3.963961E-04
3.759843E+03	5.694188E-03	4.011281E-04
3.769685E+03	5.776089E-03	4.058172E-04
3.779528E+03	5.857966E-03	4.104715E-04
3.789370E+03	5.939728E-03	4.150846E-04
3.799213E+03	6.021275E-03	4.196494E-04
3.809055E+03	6.102287E-03	4.241438E-04
3.818898E+03	6.183111E-03	4.285922E-04
3.828740E+03	6.263204E-03	4.329571E-04
3.838583E+03	6.342903E-03	4.372620E-04
3.848425E+03	6.421899E-03	4.414859E-04
3.858268E+03	6.500084E-03	4.456218E-04
3.868110E+03	6.577359E-03	4.496633E-04
3.877953E+03	6.653837E-03	4.536187E-04
3.887795E+03	6.729198E-03	4.574666E-04
3.897638E+03	6.803550E-03	4.612150E-04
3.907480E+03	6.876543E-03	4.648409E-04
3.917323E+03	6.948015E-03	4.683339E-04
3.927165E+03	7.017973E-03	4.716957E-04
3.937008E+03	7.086206E-03	4.749128E-04
3.946850E+03	7.152272E-03	4.779568E-04
3.956693E+03	7.215917E-03	4.808120E-04
3.966535E+03	7.276899E-03	4.834637E-04
3.976378E+03	7.335173E-03	4.859107E-04
3.986220E+03	7.390291E-03	4.881249E-04
3.996063E+03	7.442220E-03	4.901060E-04
4.005906E+03	7.490361E-03	4.918167E-04
4.015748E+03	7.534914E-03	4.932723E-04
4.025591E+03	7.575321E-03	4.944385E-04
4.035433E+03	7.611670E-03	4.953236E-04
4.045276E+03	7.643862E-03	4.959236E-04
4.055118E+03	7.671669E-03	4.962264E-04
4.064961E+03	7.695123E-03	4.962365E-04
4.074803E+03	7.714479E-03	4.959732E-04
4.084646E+03	7.729481E-03	4.954224E-04
4.094488E+03	7.740351E-03	4.946011E-04
4.104331E+03	7.747505E-03	4.935383E-04
4.114173E+03	7.751041E-03	4.922425E-04
4.124016E+03	7.751289E-03	4.907368E-04
4.133858E+03	7.748414E-03	4.890338E-04
4.143701E+03	7.742621E-03	4.871483E-04
4.153543E+03	7.734620E-03	4.851266E-04
4.163386E+03	7.724313E-03	4.829641E-04
4.173228E+03	7.712415E-03	4.807069E-04
4.183071E+03	7.698896E-03	4.783541E-04
4.192913E+03	7.684483E-03	4.759517E-04
4.202756E+03	7.669173E-03	4.735004E-04
4.212598E+03	7.653736E-03	4.710482E-04
4.222441E+03	7.638212E-03	4.685976E-04
4.232283E+03	7.623369E-03	4.661959E-04
4.242126E+03	7.609256E-03	4.638459E-04
4.251969E+03	7.596481E-03	4.615841E-04
4.261811E+03	7.585357E-03	4.594288E-04
4.271654E+03	7.576164E-03	4.573962E-04
4.281496E+03	7.569304E-03	4.555095E-04
4.291339E+03	7.565038E-03	4.537830E-04
4.301181E+03	7.563579E-03	4.522282E-04
4.311024E+03	7.565266E-03	4.508639E-04
4.320866E+03	7.570424E-03	4.497076E-04
4.330709E+03	7.579112E-03	4.487610E-04
4.340551E+03	7.591642E-03	4.480406E-04
4.350394E+03	7.608300E-03	4.475613E-04
4.360236E+03	7.629242E-03	4.473300E-04
4.370079E+03	7.654615E-03	4.473529E-04
4.379921E+03	7.684789E-03	4.476494E-04
4.389764E+03	7.719707E-03	4.482137E-04
4.399606E+03	7.759532E-03	4.490526E-04
4.409449E+03	7.804405E-03	4.501718E-04
4.419291E+03	7.854398E-03	4.515727E-04
4.429134E+03	7.909434E-03	4.532483E-04
4.438976E+03	7.969415E-03	4.551906E-04
4.448819E+03	8.034503E-03	4.574061E-04
4.458661E+03	8.104351E-03	4.598728E-04
4.468504E+03	8.178787E-03	4.625785E-04
4.478346E+03	8.257543E-03	4.655059E-04
4.488189E+03	8.340384E-03	4.686399E-04
4.498031E+03	8.426647E-03	4.719414E-04
4.507874E+03	8.515895E-03	4.753846E-04
4.517717E+03	8.607479E-03	4.789322E-04
4.527559E+03	8.700680E-03	4.825434E-04
4.537402E+03	8.794524E-03	4.861640E-04
4.547244E+03	8.888096E-03	4.897438E-04
4.557087E+03	8.980665E-03	4.932432E-04
4.566929E+03	9.071013E-03	4.965967E-04
4.576772E+03	9.158136E-03	4.997511E-04
4.586614E+03	9.241185E-03	5.026624E-04
4.596457E+03	9.319329E-03	5.052882E-04
4.606299E+03	9.391668E-03	5.075831E-04
4.616142E+03	9.457632E-03	5.095198E-04
4.625984E+03	9.516772E-03	5.110779E-04
4.635827E+03	9.568603E-03	5.122355E-04
4.645669E+03	9.613074E-03	5.129941E-04
4.655512E+03	9.649784E-03	5.133365E-04
4.665354E+03	9.678738E-03	5.132672E-04
4.675197E+03	9.699850E-03	5.127861E-04
4.685039E+03	9.713242E-03	5.119038E-04
4.694882E+03	9.718795E-03	5.106181E-04
4.704724E+03	9.716655E-03	5.089408E-04
4.714567E+03	9.707076E-03	5.068893E-04
4.724409E+03	9.690273E-03	5.044785E-04
4.734252E+03	9.667011E-03	5.017517E-04
4.744094E+03	9.637587E-03	4.987277E-04
4.753937E+03	9.603086E-03	4.954653E-04
4.763780E+03	9.564211E-03	4.920029E-04
4.773622E+03	9.522110E-03	4.884010E-04
4.783465E+03	9.477773E-03	4.847114E-04
4.793307E+03	9.432573E-03	4.810047E-04
4.803150E+03	9.387724E-03	4.773428E-04
4.812992E+03	9.344688E-03	4.737994E-04
4.822835E+03	9.304806E-03	4.704410E-04
4.832677E+03	9.269568E-03	4.673411E-04
4.842520E+03	9.240412E-03	4.645698E-04
4.852362E+03	9.218360E-03	4.621756E-04
4.862205E+03	9.204640E-03	4.602165E-04
4.872047E+03	9.200245E-03	4.587384E-04
4.881890E+03	9.205671E-03	4.577620E-04
4.891732E+03	9.221448E-03	4.573094E-04
4.901575E+03	9.247380E-03	4.573668E-04
4.911417E+03	9.283572E-03	4.579351E-04
4.921260E+03	9.329592E-03	4.589891E-04
4.931102E+03	9.384760E-03	4.604915E-04
4.940945E+03	9.448501E-03	4.624109E-04
4.950787E+03	9.519907E-03	4.646994E-04
4.960630E+03	9.597852E-03	4.672997E-04
4.970472E+03	9.681021E-03	4.701456E-04
4.980315E+03	9.768203E-03	4.731764E-04
4.990157E+03	9.858037E-03	4.763252E-04
5.000000E+03	9.949300E-03	4.795322E-04
5.009843E+03	1.004074E-02	4.827370E-04
5.019685E+03	1.013144E-02	4.858954E-04
5.029528E+03	1.022049E-02	4.889645E-04
5.039370E+03	1.030747E-02	4.919253E-04
5.049213E+03	1.039204E-02	4.947621E-04
5.059055E+03	1.047443E-02	4.974864E-04
5.068898E+03	1.055482E-02	5.001086E-04
5.078740E+03	1.063409E-02	5.026709E-04
5.088583E+03	1.071281E-02	5.052002E-04
5.098425E+03	1.079146E-02	5.077192E-04
5.108268E+03	1.087085E-02	5.102670E-04
5.118110E+03	1.095149E-02	5.128669E-04
5.127953E+03	1.103330E-02	5.155147E-04
5.137795E+03	1.111643E-02	5.182179E-04
5.147638E+03	1.120077E-02	5.209702E-04
5.157480E+03	1.128639E-02	5.237750E-04
5.167323E+03	1.137283E-02	5.266110E-04
5.177165E+03	1.146000E-02	5.294736E-04
5.187008E+03	1.154759E-02	5.323490E-04
5.196850E+03	1.163544E-02	5.352293E-04
5.206693E+03	1.172339E-02	5.381073E-04
5.216535E+03	1.181107E-02	5.409671E-04
5.226378E+03	1.189841E-02	5.438050E-04
5.236220E+03	1.198504E-02	5.466044E-04
5.246063E+03	1.207052E-02	5.493459E-04
5.255906E+03	1.215438E-02	5.520088E-04
5.265748E+03	1.223587E-02	5.545603E-04
5.275591E+03	1.231465E-02	5.569847E-04
5.285433E+03	1.238982E-02	5.592431E-04
5.295276E+03	1.246084E-02	5.613124E-04
5.305118E+03	1.252719E-02	5.631706E-04
5.314961E+03	1.258833E-02	5.647941E-04
5.324803E+03	1.264403E-02	5.661749E-04
5.334646E+03	1.269370E-02	5.672875E-04
5.344488E+03	1.273721E-02	5.681282E-04
5.354331E+03	1.277422E-02	5.686827E-04
5.364173E+03	1.280454E-02	5.689447E-04
5.374016E+03	1.282802E-02	5.689091E-04
5.383858E+03	1.284454E-02	5.685721E-04
5.393701E+03	1.285389E-02	5.679265E-04
5.403543E+03	1.285577E-02	5.669601E-04
5.413386E+03	1.285024E-02	5.656780E-04
5.423228E+03	1.283676E-02	5.640577E-04
5.433071E+03	1.281515E-02	5.620937E-04
5.442913E+03	1.278522E-02	5.597787E-04
5.452756E+03	1.274625E-02	5.570835E-04
5.462598E+03	1.269778E-02	5.539899E-04
5.472441E+03	1.263916E-02	5.504717E-04
5.482283E+03	1.256966E-02	5.464994E-04
5.492126E+03	1.248842E-02	5.420377E-04
5.501969E+03	1.239478E-02	5.370604E-04
5.511811E+03	1.228778E-02	5.315291E-04
5.521654E+03	1.216701E-02	5.254285E-04
5.531496E+03	1.203198E-02	5.187395E-04
5.541339E+03	1.188303E-02	5.114802E-04
5.551181E+03	1.172097E-02	5.036881E-04
5.561024E+03	1.154652E-02	4.953964E-04
5.570866E+03	1.136171E-02	4.866940E-04
5.580709E+03	1.116888E-02	4.776828E-04
5.590551E+03	1.097042E-02	4.684665E-04
5.600394E+03	1.076907E-02	4.591621E-04
5.610236E+03	1.056772E-02	4.498927E-04
5.620079E+03	1.036893E-02	4.407674E-04
5.629921E+03	1.017550E-02	4.319038E-04
5.639764E+03	9.989626E-03	4.233933E-04
5.649606E+03	9.813753E-03	4.153380E-04
5.659449E+03	9.649836E-03	4.078181E-04
5.669291E+03	9.499557E-03	4.009023E-04
5.679134E+03	9.364721E-03	3.946638E-04
5.688976E+03	9.246391E-03	3.891445E-04
5.698819E+03	9.145803E-03	3.843933E-04
5.708661E+03	9.063869E-03	3.804452E-04
5.718504E+03	9.000832E-03	3.773073E-04
5.728346E+03	8.956476E-03	3.749675E-04
5.738189E+03	8.930840E-03	3.734243E-04
5.748031E+03	8.922992E-03	3.726361E-04
5.757874E+03	8.931964E-03	3.725598E-04
5.767717E+03	8.956737E-03	3.731507E-04
5.777559E+03	8.995992E-03	3.743517E-04
5.787402E+03	9.048343E-03	3.761036E-04
5.797244E+03	9.112321E-03	3.783439E-04
5.807087E+03	9.186134E-03	3.809971E-04
5.816929E+03	9.268184E-03	3.839962E-04
5.826772E+03	9.356379E-03	3.872541E-04
5.836614E+03	9.448581E-03	3.906820E-04
5.846457E+03	9.542552E-03	3.941878E-04
5.856299E+03	9.636056E-03	3.976794E-04
5.866142E+03	9.726445E-03	4.010485E-04
5.875984E+03	9.811436E-03	4.042020E-04
5.885827E+03	9.888283E-03	4.070280E-04
5.895669E+03	9.955310E-03	4.094590E-04
5.905512E+03	1.001034E-02	4.114071E-04
5.915354E+03	1.005193E-02	4.128149E-04
5.925197E+03	1.007929E-02	4.136514E-04
5.935039E+03	1.009185E-02	4.138954E-04
5.944882E+03	1.008967E-02	4.135502E-04
5.954724E+03	1.007337E-02	4.126429E-04
5.964567E+03	1.004392E-02	4.112142E-04
5.974409E+03	1.000286E-02	4.093290E-04
5.984252E+03	9.951727E-03	4.070503E-04
5.994094E+03	9.892762E-03	4.044704E-04
6.003937E+03	9.827936E-03	4.016704E-04
6.013780E+03	9.759482E-03	3.987417E-04
6.023622E+03	9.689535E-03	3.957716E-04
6.033465E+03	9.620354E-03	3.928523E-04
6.043307E+03	9.553951E-03	3.900659E-04
6.053150E+03	9.492317E-03	3.874935E-04
6.062992E+03	9.437396E-03	3.852143E-04
6.072835E+03	9.390440E-03	3.832793E-04
6.082677E+03	9.352861E-03	3.817459E-04
6.092520E+03	9.325787E-03	3.806602E-04
6.102362E+03	9.310020E-03	3.800543E-04
6.112205E+03	9.306182E-03	3.799534E-04
6.122047E+03	9.314553E-03	3.803685E-04
6.131890E+03	9.335348E-03	3.813083E-04
6.141732E+03	9.368525E-03	3.827712E-04
6.151575E+03	9.413766E-03	3.847441E-04
6.161417E+03	9.470633E-03	3.872096E-04
6.171260E+03	9.538312E-03	3.901346E-04
6.181102E+03	9.616091E-03	3.934903E-04
6.190945E+03	9.702328E-03	3.972100E-04
6.200787E+03	9.795450E-03	4.012297E-04
6.210630E+03	9.893557E-03	4.054718E-04
6.220472E+03	9.994197E-03	4.098361E-04
6.230315E+03	1.009508E-02	4.142287E-04
6.240157E+03	1.019348E-02	4.185377E-04
6.250000E+03	1.028684E-02	4.226575E-04
6.259843E+03	1.037276E-02	4.264888E-04
6.269685E+03	1.044861E-02	4.299233E-04
6.279528E+03	1.051277E-02	4.328920E-04
6.289370E+03	1.056362E-02	4.353275E-04
6.299213E+03	1.059965E-02	4.371657E-04
6.309055E+03	1.062063E-02	4.383956E-04
6.318898E+03	1.062611E-02	4.389959E-04
6.328740E+03	1.061637E-02	4.389766E-04
6.338583E+03	1.059208E-02	4.383633E-04
6.348425E+03	1.055422E-02	4.371943E-04
6.358268E+03	1.050397E-02	4.355162E-04
6.368110E+03	1.044267E-02	4.333834E-04
6.377953E+03	1.037191E-02	4.308593E-04
6.387795E+03	1.029299E-02	4.279966E-04
6.397638E+03	1.020717E-02	4.248461E-04
6.407480E+03	1.011585E-02	4.214651E-04
6.417323E+03	1.001982E-02	4.178849E-04
6.427165E+03	9.919972E-03	4.141416E-04
6.437008E+03	9.816564E-03	4.102453E-04
6.446850E+03	9.710363E-03	4.062269E-04
6.456693E+03	9.601282E-03	4.020821E-04
6.466535E+03	9.489543E-03	3.978192E-04
6.476378E+03	9.375371E-03	3.934471E-04
6.486220E+03	9.258823E-03	3.889673E-04
6.496063E+03	9.140106E-03	3.843878E-04
6.505906E+03	9.019670E-03	3.797269E-04
6.515748E+03	8.897688E-03	3.749914E-04
6.525591E+03	8.774445E-03	3.701928E-04
6.535433E+03	8.650315E-03	3.653463E-04
6.545276E+03	8.525424E-03	3.604569E-04
6.555118E+03	8.399869E-03	3.555284E-04
6.564961E+03	8.273819E-03	3.505676E-04
6.574803E+03	8.147194E-03	3.455708E-04
6.584646E+03	8.020101E-03	3.405422E-04
6.594488E+03	7.892529E-03	3.354813E-04
6.604331E+03	7.764432E-03	3.303858E-04
6.614173E+03	7.635880E-03	3.252584E-04
6.624016E+03	7.506826E-03	3.200970E-04
6.633858E+03	7.377203E-03	3.148987E-04
6.643701E+03	7.246864E-03	3.096567E-04
6.653543E+03	7.116021E-03	3.043803E-04
6.663386E+03	6.984679E-03	2.990694E-04
6.673228E+03	6.853094E-03	2.937349E-04
6.683071E+03	6.721498E-03	2.883866E-04
6.692913E+03	6.590188E-03	2.830375E-04
6.702756E+03	6.459783E-03	2.777140E-04
6.712598E+03	6.330587E-03	2.724294E-04
6.722441E+03	6.203384E-03	2.672178E-04
6.732283E+03	6.078723E-03	2.621030E-04
6.742126E+03	5.957260E-03	2.571138E-04
6.751969E+03	5.839782E-03	2.522845E-04
6.761811E+03	5.726932E-03	2.476436E-04
6.771654E+03	5.619481E-03	2.432251E-04
6.781496E+03	5.518114E-03	2.390594E-04
6.791339E+03	5.423420E-03	2.351727E-04
6.801181E+03	5.336090E-03	2.315960E-04
6.811024E+03	5.256680E-03	2.283545E-04
6.820866E+03	5.185696E-03	2.254709E-04
6.830709E+03	5.123543E-03	2.229641E-04
6.840551E+03	5.070700E-03	2.208560E-04
6.850394E+03	5.027603E-03	2.191666E-04
6.860236E+03	4.994382E-03	2.179028E-04
6.870079E+03	4.971502E-03	2.170860E-04
6.879921E+03	4.959123E-03	2.167243E-04
6.889764E+03	4.957373E-03	2.168246E-04
6.899606E+03	4.966426E-03	2.173955E-04
6.909449E+03	4.986353E-03	2.184414E-04
6.919291E+03	5.017110E-03	2.199613E-04
6.929134E+03	5.058579E-03	2.219513E-04
6.938976E+03	5.110444E-03	2.243984E-04
6.948819E+03	5.172370E-03	2.272890E-04
6.958661E+03	5.243789E-03	2.305991E-04
6.968504E+03	5.323897E-03	2.342942E-04
6.978346E+03	5.411943E-03	2.383419E-04
6.988189E+03	5.506796E-03	2.426930E-04
6.998031E+03	5.607474E-03	2.473051E-04
7.007874E+03	5.712811E-03	2.521268E-04
7.017717E+03	5.821966E-03	2.571217E-04
7.027559E+03	5.933687E-03	2.622344E-04
7.037402E+03	6.047182E-03	2.674303E-04
7.047244E+03	6.161596E-03	2.726716E-04
7.057087E+03	6.276234E-03	2.779277E-04
7.066929E+03	6.390471E-03	2.831706E-04
7.076772E+03	6.503797E-03	2.883779E-04
7.086614E+03	6.615873E-03	2.935343E-04
7.096457E+03	6.726441E-03	2.986283E-04
7.106299E+03	6.835505E-03	3.036600E-04
7.116142E+03	6.942758E-03	3.086156E-04
7.125984E+03	7.048422E-03	3.135049E-04
7.135827E+03	7.152544E-03	3.183299E-04
7.145669E+03	7.255009E-03	3.230854E-04
7.155512E+03	7.355859E-03	3.277732E-04
7.165354E+03	7.455114E-03	3.323942E-04
7.175197E+03	7.552530E-03	3.369374E-04
7.185039E+03	7.647768E-03	3.413876E-04
7.194882E+03	7.740497E-03	3.457301E-04
7.204724E+03	7.830055E-03	3.499352E-04
7.214567E+03	7.915778E-03	3.539731E-04
7.224409E+03	7.996720E-03	3.578012E-04
7.234252E+03	8.071836E-03	3.613726E-04
7.244094E+03	8.139762E-03	3.646260E-04
7.253937E+03	8.199332E-03	3.675087E-04
7.263780E+03	8.249350E-03	3.699665E-04
7.273622E+03	8.288178E-03	3.719255E-04
7.283465E+03	8.314863E-03	3.733420E-04
7.293307E+03	8.327850E-03	3.741457E-04
7.303150E+03	8.326362E-03	3.743005E-04
7.312992E+03	8.309661E-03	3.737724E-04
7.322835E+03	8.277040E-03	3.725286E-04
7.332677E+03	8.228509E-03	3.705682E-04
7.342520E+03	8.164509E-03	3.679103E-04
7.352362E+03	8.085486E-03	3.645736E-04
7.362205E+03	7.992719E-03	3.606148E-04
7.372047E+03	7.887640E-03	3.560975E-04
7.381890E+03	7.771838E-03	3.510925E-04
7.391732E+03	7.647174E-03	3.456833E-04
7.401575E+03	7.515793E-03	3.399658E-04
7.411417E+03	7.379697E-03	3.340300E-04
7.421260E+03	7.240763E-03	3.279604E-04
7.431102E+03	7.100612E-03	3.218298E-04
7.440945E+03	6.960607E-03	3.156999E-04
7.450787E+03	6.822079E-03	3.096307E-04
7.460630E+03	6.686190E-03	3.036752E-04
7.470472E+03	6.553915E-03	2.978776E-04
7.480315E+03	6.426327E-03	2.922867E-04
7.490157E+03	6.304431E-03	2.869486E-04
7.500000E+03	6.188964E-03	2.818970E-04
7.509843E+03	6.080734E-03	2.771694E-04
7.519685E+03	5.980263E-03	2.727898E-04
7.529528E+03	5.887973E-03	2.687783E-04
7.539370E+03	5.804253E-03	2.651531E-04
7.549213E+03	5.729123E-03	2.619160E-04
7.559055E+03	5.662542E-03	2.590657E-04
7.568898E+03	5.604659E-03	2.566099E-04
7.578740E+03	5.555300E-03	2.545413E-04
7.588583E+03	5.514318E-03	2.528539E-04
7.598425E+03	5.481540E-03	2.515404E-04
7.608268E+03	5.456705E-03	2.505898E-04
7.618110E+03	5.439603E-03	2.499931E-04
7.627953E+03	5.429801E-03	2.497309E-04
7.637795E+03	5.426853E-03	2.497836E-04
