#wls	flux	fluxerr
1.574803E+03	7.741497E-04	6.689726E-05
1.614173E+03	7.845584E-04	6.763749E-05
1.653543E+03	7.956527E-04	6.842818E-05
1.692913E+03	8.074645E-04	6.927136E-05
1.732283E+03	8.198872E-04	7.015716E-05
1.771654E+03	8.330925E-04	7.109952E-05
1.811024E+03	8.471194E-04	7.210090E-05
1.850394E+03	8.621514E-04	7.317597E-05
1.889764E+03	8.779439E-04	7.430292E-05
1.929134E+03	8.948328E-04	7.550917E-05
1.968504E+03	9.127218E-04	7.678535E-05
2.007874E+03	9.318135E-04	7.814725E-05
2.047244E+03	9.521688E-04	7.959853E-05
2.086614E+03	9.736937E-04	8.112980E-05
2.125984E+03	9.967682E-04	8.277112E-05
2.165354E+03	1.021308E-03	8.451364E-05
2.204724E+03	1.047390E-03	8.636168E-05
2.244094E+03	1.075260E-03	8.833348E-05
2.283465E+03	1.105012E-03	9.043429E-05
2.322835E+03	1.136741E-03	9.266946E-05
2.362205E+03	1.170552E-03	9.504462E-05
2.401575E+03	1.206551E-03	9.756553E-05
2.440945E+03	1.245217E-03	1.002675E-04
2.480315E+03	1.286316E-03	1.031281E-04
2.519685E+03	1.330161E-03	1.061686E-04
2.559055E+03	1.377280E-03	1.094268E-04
2.598425E+03	1.427445E-03	1.128797E-04
2.637795E+03	1.481006E-03	1.165502E-04
2.677165E+03	1.538337E-03	1.204622E-04
2.716535E+03	1.599621E-03	1.246239E-04
2.755906E+03	1.665045E-03	1.290433E-04
2.795276E+03	1.734795E-03	1.337280E-04
2.834646E+03	1.809515E-03	1.387199E-04
2.874016E+03	1.889190E-03	1.440094E-04
2.913386E+03	1.974255E-03	1.496209E-04
2.952756E+03	2.065164E-03	1.555790E-04
2.962598E+03	2.088753E-03	1.571176E-04
2.972441E+03	2.112568E-03	1.586666E-04
2.982283E+03	2.137108E-03	1.602633E-04
2.992126E+03	2.161881E-03	1.618705E-04
3.001969E+03	2.186888E-03	1.634883E-04
3.011811E+03	2.212635E-03	1.651542E-04
3.021654E+03	2.238621E-03	1.668307E-04
3.031496E+03	2.264847E-03	1.685176E-04
3.041339E+03	2.291571E-03	1.702339E-04
3.051181E+03	2.318796E-03	1.719798E-04
3.061024E+03	2.346528E-03	1.737554E-04
3.070866E+03	2.374507E-03	1.755413E-04
3.080709E+03	2.402998E-03	1.773568E-04
3.090551E+03	2.432003E-03	1.792020E-04
3.100394E+03	2.461528E-03	1.810770E-04
3.110236E+03	2.491308E-03	1.829620E-04
3.120079E+03	2.521610E-03	1.848766E-04
3.129921E+03	2.552167E-03	1.868009E-04
3.139764E+03	2.583525E-03	1.887747E-04
3.149606E+03	2.615140E-03	1.907580E-04
3.159449E+03	2.647289E-03	1.927707E-04
3.169291E+03	2.679974E-03	1.948127E-04
3.179134E+03	2.712917E-03	1.968638E-04
3.188976E+03	2.746398E-03	1.989438E-04
3.198819E+03	2.780420E-03	2.010529E-04
3.208661E+03	2.814984E-03	2.031908E-04
3.218504E+03	2.850092E-03	2.053574E-04
3.228346E+03	2.885745E-03	2.075526E-04
3.238189E+03	2.921656E-03	2.097553E-04
3.248031E+03	2.958112E-03	2.119861E-04
3.257874E+03	2.995115E-03	2.142447E-04
3.267717E+03	3.032664E-03	2.165310E-04
3.277559E+03	3.070761E-03	2.188446E-04
3.287402E+03	3.109106E-03	2.211640E-04
3.297244E+03	3.148296E-03	2.235315E-04
3.307087E+03	3.187730E-03	2.259040E-04
3.316929E+03	3.227708E-03	2.283026E-04
3.326772E+03	3.268228E-03	2.307268E-04
3.336614E+03	3.309288E-03	2.331763E-04
3.346457E+03	3.350887E-03	2.356507E-04
3.356299E+03	3.393023E-03	2.381496E-04
3.366142E+03	3.435694E-03	2.406725E-04
3.375984E+03	3.478897E-03	2.432188E-04
3.385827E+03	3.522311E-03	2.457661E-04
3.395669E+03	3.566566E-03	2.483579E-04
3.405512E+03	3.611023E-03	2.509495E-04
3.415354E+03	3.656314E-03	2.535845E-04
3.425197E+03	3.701795E-03	2.562179E-04
3.435039E+03	3.748105E-03	2.588937E-04
3.444882E+03	3.794590E-03	2.615664E-04
3.454724E+03	3.841567E-03	2.642577E-04
3.464567E+03	3.889360E-03	2.669896E-04
3.474409E+03	3.937304E-03	2.697160E-04
3.484252E+03	3.985719E-03	2.724588E-04
3.494094E+03	4.034933E-03	2.752399E-04
3.503937E+03	4.084268E-03	2.780130E-04
3.513780E+03	4.134051E-03	2.807999E-04
3.523622E+03	4.184271E-03	2.835998E-04
3.533465E+03	4.235259E-03	2.864347E-04
3.543307E+03	4.286324E-03	2.892577E-04
3.553150E+03	4.337796E-03	2.920908E-04
3.562992E+03	4.390006E-03	2.949560E-04
3.572835E+03	4.442255E-03	2.978062E-04
3.582677E+03	4.494873E-03	3.006631E-04
3.592520E+03	4.548197E-03	3.035493E-04
3.602362E+03	4.601515E-03	3.064167E-04
3.612205E+03	4.655512E-03	3.093109E-04
3.622047E+03	4.709470E-03	3.121840E-04
3.631890E+03	4.764080E-03	3.150815E-04
3.641732E+03	4.818614E-03	3.179552E-04
3.651575E+03	4.873769E-03	3.208507E-04
3.661417E+03	4.928811E-03	3.237197E-04
3.671260E+03	4.984437E-03	3.266078E-04
3.681102E+03	5.039909E-03	3.294663E-04
3.690945E+03	5.095931E-03	3.323412E-04
3.700787E+03	5.152115E-03	3.352070E-04
3.710630E+03	5.208073E-03	3.380384E-04
3.720472E+03	5.264520E-03	3.408817E-04
3.730315E+03	5.320692E-03	3.436872E-04
3.740157E+03	5.377296E-03	3.465007E-04
3.750000E+03	5.433575E-03	3.492731E-04
3.759843E+03	5.490231E-03	3.520498E-04
3.769685E+03	5.546501E-03	3.547815E-04
3.779528E+03	5.603089E-03	3.575134E-04
3.789370E+03	5.659225E-03	3.601963E-04
3.799213E+03	5.715242E-03	3.628515E-04
3.809055E+03	5.771481E-03	3.655006E-04
3.818898E+03	5.827150E-03	3.680934E-04
3.828740E+03	5.882585E-03	3.706514E-04
3.838583E+03	5.937741E-03	3.731718E-04
3.848425E+03	5.992568E-03	3.756517E-04
3.858268E+03	6.046647E-03	3.780649E-04
3.868110E+03	6.100668E-03	3.804549E-04
3.877953E+03	6.153822E-03	3.827713E-04
3.887795E+03	6.206424E-03	3.850340E-04
3.897638E+03	6.258401E-03	3.872389E-04
3.907480E+03	6.309672E-03	3.893812E-04
3.917323E+03	6.360149E-03	3.914558E-04
3.927165E+03	6.409363E-03	3.934345E-04
3.937008E+03	6.457585E-03	3.953343E-04
3.946850E+03	6.504706E-03	3.971492E-04
3.956693E+03	6.550249E-03	3.988506E-04
3.966535E+03	6.594859E-03	4.004785E-04
3.976378E+03	6.637310E-03	4.019592E-04
3.986220E+03	6.678646E-03	4.033567E-04
3.996063E+03	6.718036E-03	4.046218E-04
4.005906E+03	6.755787E-03	4.057737E-04
4.015748E+03	6.791471E-03	4.067877E-04
4.025591E+03	6.825062E-03	4.076633E-04
4.035433E+03	6.857272E-03	4.084442E-04
4.045276E+03	6.886995E-03	4.090651E-04
4.055118E+03	6.915346E-03	4.095936E-04
4.064961E+03	6.941244E-03	4.099665E-04
4.074803E+03	6.965471E-03	4.102312E-04
4.084646E+03	6.988084E-03	4.103920E-04
4.094488E+03	7.008424E-03	4.104110E-04
4.104331E+03	7.027297E-03	4.103367E-04
4.114173E+03	7.044810E-03	4.101761E-04
4.124016E+03	7.060344E-03	4.098939E-04
4.133858E+03	7.074738E-03	4.095399E-04
4.143701E+03	7.087757E-03	4.091011E-04
4.153543E+03	7.099536E-03	4.085860E-04
4.163386E+03	7.110565E-03	4.080237E-04
4.173228E+03	7.120278E-03	4.073820E-04
4.183071E+03	7.129526E-03	4.067103E-04
4.192913E+03	7.137747E-03	4.059770E-04
4.202756E+03	7.145771E-03	4.052299E-04
4.212598E+03	7.153052E-03	4.044381E-04
4.222441E+03	7.160400E-03	4.036479E-04
4.232283E+03	7.167267E-03	4.028285E-04
4.242126E+03	7.174122E-03	4.020066E-04
4.251969E+03	7.181071E-03	4.011881E-04
4.261811E+03	7.188231E-03	4.003798E-04
4.271654E+03	7.195700E-03	3.995870E-04
4.281496E+03	7.203243E-03	3.987967E-04
4.291339E+03	7.211288E-03	3.980326E-04
4.301181E+03	7.219903E-03	3.972983E-04
4.311024E+03	7.228852E-03	3.965807E-04
4.320866E+03	7.238524E-03	3.959011E-04
4.330709E+03	7.248998E-03	3.952634E-04
4.340551E+03	7.260020E-03	3.946538E-04
4.350394E+03	7.271981E-03	3.940931E-04
4.360236E+03	7.284627E-03	3.935674E-04
4.370079E+03	7.298038E-03	3.930808E-04
4.379921E+03	7.312597E-03	3.926535E-04
4.389764E+03	7.328051E-03	3.922717E-04
4.399606E+03	7.344764E-03	3.919544E-04
4.409449E+03	7.362480E-03	3.916876E-04
4.419291E+03	7.381231E-03	3.914726E-04
4.429134E+03	7.401042E-03	3.913104E-04
4.438976E+03	7.422221E-03	3.912168E-04
4.448819E+03	7.444459E-03	3.911752E-04
4.458661E+03	7.467714E-03	3.911829E-04
4.468504E+03	7.491938E-03	3.912371E-04
4.478346E+03	7.517036E-03	3.913327E-04
4.488189E+03	7.543213E-03	3.914800E-04
4.498031E+03	7.569720E-03	3.916399E-04
4.507874E+03	7.596997E-03	3.918352E-04
4.517717E+03	7.624256E-03	3.920251E-04
4.527559E+03	7.651882E-03	3.922297E-04
4.537402E+03	7.679040E-03	3.924062E-04
4.547244E+03	7.705779E-03	3.925577E-04
4.557087E+03	7.732139E-03	3.926865E-04
4.566929E+03	7.757254E-03	3.927493E-04
4.576772E+03	7.781162E-03	3.927486E-04
4.586614E+03	7.803627E-03	3.926736E-04
4.596457E+03	7.824414E-03	3.925132E-04
4.606299E+03	7.843034E-03	3.922440E-04
4.616142E+03	7.859910E-03	3.918883E-04
4.625984E+03	7.874303E-03	3.914104E-04
4.635827E+03	7.886394E-03	3.908206E-04
4.645669E+03	7.896094E-03	3.901159E-04
4.655512E+03	7.903044E-03	3.892796E-04
4.665354E+03	7.907813E-03	3.883413E-04
4.675197E+03	7.909792E-03	3.872724E-04
4.685039E+03	7.909015E-03	3.860758E-04
4.694882E+03	7.906096E-03	3.847830E-04
4.704724E+03	7.900528E-03	3.833703E-04
4.714567E+03	7.892697E-03	3.818578E-04
4.724409E+03	7.882440E-03	3.802387E-04
4.734252E+03	7.870186E-03	3.785350E-04
4.744094E+03	7.856112E-03	3.767560E-04
4.753937E+03	7.840421E-03	3.749124E-04
4.763780E+03	7.823058E-03	3.730024E-04
4.773622E+03	7.804596E-03	3.710539E-04
4.783465E+03	7.785062E-03	3.690690E-04
4.793307E+03	7.765135E-03	3.670802E-04
4.803150E+03	7.745235E-03	3.651076E-04
4.812992E+03	7.725569E-03	3.631609E-04
4.822835E+03	7.706881E-03	3.612749E-04
4.832677E+03	7.689644E-03	3.594708E-04
4.842520E+03	7.674039E-03	3.577565E-04
4.852362E+03	7.660749E-03	3.561629E-04
4.862205E+03	7.650127E-03	3.547051E-04
4.872047E+03	7.642214E-03	3.533838E-04
4.881890E+03	7.637492E-03	3.522202E-04
4.891732E+03	7.635824E-03	3.512065E-04
4.901575E+03	7.637527E-03	3.503560E-04
4.911417E+03	7.642575E-03	3.496661E-04
4.921260E+03	7.650867E-03	3.491309E-04
4.931102E+03	7.661977E-03	3.487296E-04
4.940945E+03	7.675684E-03	3.484510E-04
4.950787E+03	7.692218E-03	3.483047E-04
4.960630E+03	7.710722E-03	3.482507E-04
4.970472E+03	7.730821E-03	3.482714E-04
4.980315E+03	7.752642E-03	3.483718E-04
4.990157E+03	7.775258E-03	3.485097E-04
5.000000E+03	7.798284E-03	3.486675E-04
5.009843E+03	7.821898E-03	3.488530E-04
5.019685E+03	7.845288E-03	3.490297E-04
5.029528E+03	7.868262E-03	3.491890E-04
5.039370E+03	7.891229E-03	3.493492E-04
5.049213E+03	7.913641E-03	3.494858E-04
5.059055E+03	7.935816E-03	3.496131E-04
5.068898E+03	7.957600E-03	3.497243E-04
5.078740E+03	7.979654E-03	3.498483E-04
5.088583E+03	8.001608E-03	3.499687E-04
5.098425E+03	8.023870E-03	3.501035E-04
5.108268E+03	8.046297E-03	3.502460E-04
5.118110E+03	8.069255E-03	3.504122E-04
5.127953E+03	8.092797E-03	3.506039E-04
5.137795E+03	8.116956E-03	3.508225E-04
5.147638E+03	8.141723E-03	3.510672E-04
5.157480E+03	8.166804E-03	3.513251E-04
5.167323E+03	8.192396E-03	3.516046E-04
5.177165E+03	8.218431E-03	3.519024E-04
5.187008E+03	8.244828E-03	3.522150E-04
5.196850E+03	8.271231E-03	3.525270E-04
5.206693E+03	8.298092E-03	3.528575E-04
5.216535E+03	8.324771E-03	3.531793E-04
5.226378E+03	8.351452E-03	3.535000E-04
5.236220E+03	8.378029E-03	3.538152E-04
5.246063E+03	8.404387E-03	3.541200E-04
5.255906E+03	8.430136E-03	3.543980E-04
5.265748E+03	8.455672E-03	3.546661E-04
5.275591E+03	8.480298E-03	3.548949E-04
5.285433E+03	8.504101E-03	3.550884E-04
5.295276E+03	8.526900E-03	3.552393E-04
5.305118E+03	8.548479E-03	3.553387E-04
5.314961E+03	8.568613E-03	3.553778E-04
5.324803E+03	8.587059E-03	3.553467E-04
5.334646E+03	8.603279E-03	3.552237E-04
5.344488E+03	8.617541E-03	3.550205E-04
5.354331E+03	8.629268E-03	3.547138E-04
5.364173E+03	8.637868E-03	3.542800E-04
5.374016E+03	8.643557E-03	3.537288E-04
5.383858E+03	8.645432E-03	3.530240E-04
5.393701E+03	8.643695E-03	3.521750E-04
5.403543E+03	8.637433E-03	3.511454E-04
5.413386E+03	8.626825E-03	3.499439E-04
5.423228E+03	8.610962E-03	3.485348E-04
5.433071E+03	8.590028E-03	3.469268E-04
5.442913E+03	8.563394E-03	3.450959E-04
5.452756E+03	8.530419E-03	3.430179E-04
5.462598E+03	8.491308E-03	3.407026E-04
5.472441E+03	8.445444E-03	3.381270E-04
5.482283E+03	8.392518E-03	3.352803E-04
5.492126E+03	8.332257E-03	3.321535E-04
5.501969E+03	8.264421E-03	3.287390E-04
5.511811E+03	8.188862E-03	3.250328E-04
5.521654E+03	8.105537E-03	3.210351E-04
5.531496E+03	8.014771E-03	3.167606E-04
5.541339E+03	7.916306E-03	3.122012E-04
5.551181E+03	7.811083E-03	3.073956E-04
5.561024E+03	7.699490E-03	3.023608E-04
5.570866E+03	7.582378E-03	2.971316E-04
5.580709E+03	7.460755E-03	2.917487E-04
5.590551E+03	7.335991E-03	2.862667E-04
5.600394E+03	7.208813E-03	2.807145E-04
5.610236E+03	7.080901E-03	2.751579E-04
5.620079E+03	6.953215E-03	2.696343E-04
5.629921E+03	6.827102E-03	2.641955E-04
5.639764E+03	6.703180E-03	2.588650E-04
5.649606E+03	6.582837E-03	2.536957E-04
5.659449E+03	6.466899E-03	2.487184E-04
5.669291E+03	6.355695E-03	2.439446E-04
5.679134E+03	6.250256E-03	2.394125E-04
5.688976E+03	6.150876E-03	2.351320E-04
5.698819E+03	6.058160E-03	2.311247E-04
5.708661E+03	5.972178E-03	2.273918E-04
5.718504E+03	5.893119E-03	2.239387E-04
5.728346E+03	5.821055E-03	2.207666E-04
5.738189E+03	5.756154E-03	2.178803E-04
5.748031E+03	5.698340E-03	2.152753E-04
5.757874E+03	5.647099E-03	2.129308E-04
5.767717E+03	5.602785E-03	2.108584E-04
5.777559E+03	5.564612E-03	2.090274E-04
5.787402E+03	5.532656E-03	2.074392E-04
5.797244E+03	5.506395E-03	2.060731E-04
5.807087E+03	5.485634E-03	2.049207E-04
5.816929E+03	5.469923E-03	2.039641E-04
5.826772E+03	5.458439E-03	2.031718E-04
5.836614E+03	5.451192E-03	2.025435E-04
5.846457E+03	5.447112E-03	2.020386E-04
5.856299E+03	5.446175E-03	2.016559E-04
5.866142E+03	5.447282E-03	2.013542E-04
5.875984E+03	5.450409E-03	2.011325E-04
5.885827E+03	5.454683E-03	2.009582E-04
5.895669E+03	5.459611E-03	2.008134E-04
5.905512E+03	5.464931E-03	2.006883E-04
5.915354E+03	5.470099E-03	2.005632E-04
5.925197E+03	5.474999E-03	2.004340E-04
5.935039E+03	5.479437E-03	2.002937E-04
5.944882E+03	5.483140E-03	2.001328E-04
5.954724E+03	5.486304E-03	1.999586E-04
5.964567E+03	5.488883E-03	1.997697E-04
5.974409E+03	5.491300E-03	1.995818E-04
5.984252E+03	5.493730E-03	1.994013E-04
5.994094E+03	5.496975E-03	1.992576E-04
6.003937E+03	5.500998E-03	1.991493E-04
6.013780E+03	5.506884E-03	1.991157E-04
6.023622E+03	5.514831E-03	1.991639E-04
6.033465E+03	5.525566E-03	1.993201E-04
6.043307E+03	5.539430E-03	1.995964E-04
6.053150E+03	5.557070E-03	2.000158E-04
6.062992E+03	5.578904E-03	2.005929E-04
6.072835E+03	5.605080E-03	2.013325E-04
6.082677E+03	5.636223E-03	2.022563E-04
6.092520E+03	5.671956E-03	2.033501E-04
6.102362E+03	5.712936E-03	2.046369E-04
6.112205E+03	5.758821E-03	2.061038E-04
6.122047E+03	5.809765E-03	2.077559E-04
6.131890E+03	5.865643E-03	2.095881E-04
6.141732E+03	5.926217E-03	2.115915E-04
6.151575E+03	5.990928E-03	2.137455E-04
6.161417E+03	6.059473E-03	2.160391E-04
6.171260E+03	6.131222E-03	2.184494E-04
6.181102E+03	6.205222E-03	2.209422E-04
6.190945E+03	6.281001E-03	2.235004E-04
6.200787E+03	6.357137E-03	2.260733E-04
6.210630E+03	6.432734E-03	2.286289E-04
6.220472E+03	6.506575E-03	2.311239E-04
6.230315E+03	6.577162E-03	2.335052E-04
6.240157E+03	6.643584E-03	2.357403E-04
6.250000E+03	6.704059E-03	2.377662E-04
6.259843E+03	6.757485E-03	2.395440E-04
6.269685E+03	6.802629E-03	2.410301E-04
6.279528E+03	6.838398E-03	2.421861E-04
6.289370E+03	6.863879E-03	2.429798E-04
6.299213E+03	6.878383E-03	2.433871E-04
6.309055E+03	6.881222E-03	2.433839E-04
6.318898E+03	6.872686E-03	2.429808E-04
6.328740E+03	6.852369E-03	2.421635E-04
6.338583E+03	6.820815E-03	2.409516E-04
6.348425E+03	6.778772E-03	2.393715E-04
6.358268E+03	6.726485E-03	2.374323E-04
6.368110E+03	6.665001E-03	2.351709E-04
6.377953E+03	6.595236E-03	2.326198E-04
6.387795E+03	6.518113E-03	2.298116E-04
6.397638E+03	6.434543E-03	2.267784E-04
6.407480E+03	6.345394E-03	2.235509E-04
6.417323E+03	6.251429E-03	2.201560E-04
6.427165E+03	6.153343E-03	2.166181E-04
6.437008E+03	6.051723E-03	2.129579E-04
6.446850E+03	5.947078E-03	2.091933E-04
6.456693E+03	5.839842E-03	2.053395E-04
6.466535E+03	5.730408E-03	2.014103E-04
6.476378E+03	5.619119E-03	1.974178E-04
6.486220E+03	5.506306E-03	1.933736E-04
6.496063E+03	5.392271E-03	1.892883E-04
6.505906E+03	5.277508E-03	1.851793E-04
6.515748E+03	5.161949E-03	1.810442E-04
6.525591E+03	5.046084E-03	1.769001E-04
6.535433E+03	4.930380E-03	1.727635E-04
6.545276E+03	4.814795E-03	1.686328E-04
6.555118E+03	4.699959E-03	1.645303E-04
6.564961E+03	4.585995E-03	1.604602E-04
6.574803E+03	4.473189E-03	1.564325E-04
6.584646E+03	4.361818E-03	1.524569E-04
6.594488E+03	4.252150E-03	1.485427E-04
6.604331E+03	4.144435E-03	1.446988E-04
6.614173E+03	4.039055E-03	1.409383E-04
6.624016E+03	3.935945E-03	1.372591E-04
6.633858E+03	3.835591E-03	1.336780E-04
6.643701E+03	3.738042E-03	1.301966E-04
6.653543E+03	3.643472E-03	1.268211E-04
6.663386E+03	3.552038E-03	1.235566E-04
6.673228E+03	3.463883E-03	1.204082E-04
6.683071E+03	3.379254E-03	1.173843E-04
6.692913E+03	3.298026E-03	1.144804E-04
6.702756E+03	3.220539E-03	1.117082E-04
6.712598E+03	3.146769E-03	1.090667E-04
6.722441E+03	3.076802E-03	1.065587E-04
6.732283E+03	3.010824E-03	1.041905E-04
6.742126E+03	2.948692E-03	1.019570E-04
6.751969E+03	2.890685E-03	9.986738E-05
6.761811E+03	2.836758E-03	9.792006E-05
6.771654E+03	2.786971E-03	9.611680E-05
6.781496E+03	2.741379E-03	9.445915E-05
6.791339E+03	2.700029E-03	9.294848E-05
6.801181E+03	2.663056E-03	9.158913E-05
6.811024E+03	2.630397E-03	9.037854E-05
6.820866E+03	2.601983E-03	8.931403E-05
6.830709E+03	2.578111E-03	8.840538E-05
6.840551E+03	2.558517E-03	8.764314E-05
6.850394E+03	2.543300E-03	8.703033E-05
6.860236E+03	2.532557E-03	8.656978E-05
6.870079E+03	2.526105E-03	8.625484E-05
6.879921E+03	2.524122E-03	8.609110E-05
6.889764E+03	2.526507E-03	8.607461E-05
6.899606E+03	2.533240E-03	8.620423E-05
6.909449E+03	2.544381E-03	8.648153E-05
6.919291E+03	2.559707E-03	8.689831E-05
6.929134E+03	2.579338E-03	8.745824E-05
6.938976E+03	2.603015E-03	8.815192E-05
6.948819E+03	2.630829E-03	8.898196E-05
6.958661E+03	2.662574E-03	8.994087E-05
6.968504E+03	2.698124E-03	9.102379E-05
6.978346E+03	2.737328E-03	9.222523E-05
6.988189E+03	2.780024E-03	9.353913E-05
6.998031E+03	2.826131E-03	9.496233E-05
7.007874E+03	2.875252E-03	9.648103E-05
7.017717E+03	2.927280E-03	9.809118E-05
7.027559E+03	2.982107E-03	9.978874E-05
7.037402E+03	3.039297E-03	1.015588E-04
7.047244E+03	3.098848E-03	1.034008E-04
7.057087E+03	3.160429E-03	1.053035E-04
7.066929E+03	3.223706E-03	1.072554E-04
7.076772E+03	3.288699E-03	1.092570E-04
7.086614E+03	3.354957E-03	1.112931E-04
7.096457E+03	3.422511E-03	1.133644E-04
7.106299E+03	3.491023E-03	1.154598E-04
7.116142E+03	3.560137E-03	1.175673E-04
7.125984E+03	3.629871E-03	1.196874E-04
7.135827E+03	3.699707E-03	1.218031E-04
7.145669E+03	3.769502E-03	1.239097E-04
7.155512E+03	3.839100E-03	1.260022E-04
7.165354E+03	3.907901E-03	1.280610E-04
7.175197E+03	3.975694E-03	1.300795E-04
7.185039E+03	4.042103E-03	1.320456E-04
7.194882E+03	4.106719E-03	1.339463E-04
7.204724E+03	4.169109E-03	1.357680E-04
7.214567E+03	4.228809E-03	1.374960E-04
7.224409E+03	4.285181E-03	1.391102E-04
7.234252E+03	4.338039E-03	1.406053E-04
7.244094E+03	4.386553E-03	1.419551E-04
7.253937E+03	4.430371E-03	1.431490E-04
7.263780E+03	4.468982E-03	1.441715E-04
7.273622E+03	4.501885E-03	1.450074E-04
7.283465E+03	4.528434E-03	1.456371E-04
7.293307E+03	4.548351E-03	1.460526E-04
7.303150E+03	4.561239E-03	1.462425E-04
7.312992E+03	4.566769E-03	1.461976E-04
7.322835E+03	4.564694E-03	1.459111E-04
7.332677E+03	4.554701E-03	1.453742E-04
7.342520E+03	4.536930E-03	1.445930E-04
7.352362E+03	4.511477E-03	1.435715E-04
7.362205E+03	4.478396E-03	1.423127E-04
7.372047E+03	4.438201E-03	1.408341E-04
7.381890E+03	4.391359E-03	1.391517E-04
7.391732E+03	4.338450E-03	1.372847E-04
7.401575E+03	4.279992E-03	1.352503E-04
7.411417E+03	4.216922E-03	1.330789E-04
7.421260E+03	4.149928E-03	1.307927E-04
7.431102E+03	4.080075E-03	1.284258E-04
7.440945E+03	4.008320E-03	1.260085E-04
7.450787E+03	3.935656E-03	1.235723E-04
7.460630E+03	3.862946E-03	1.211441E-04
7.470472E+03	3.791350E-03	1.187605E-04
7.480315E+03	3.721703E-03	1.164471E-04
7.490157E+03	3.655072E-03	1.142371E-04
7.500000E+03	3.592155E-03	1.121515E-04
7.509843E+03	3.533818E-03	1.102167E-04
7.519685E+03	3.480638E-03	1.084499E-04
7.529528E+03	3.432864E-03	1.068578E-04
7.539370E+03	3.390788E-03	1.054490E-04
7.549213E+03	3.354295E-03	1.042189E-04
7.559055E+03	3.323419E-03	1.031679E-04
7.568898E+03	3.297989E-03	1.022900E-04
7.578740E+03	3.277651E-03	1.015736E-04
7.588583E+03	3.262140E-03	1.010099E-04
7.598425E+03	3.251282E-03	1.005929E-04
7.608268E+03	3.244756E-03	1.003121E-04
7.618110E+03	3.242087E-03	1.001524E-04
7.627953E+03	3.243034E-03	1.001060E-04
7.637795E+03	3.247081E-03	1.001564E-04
