#wls	flux	fluxerr
1.574803E+03	9.953299E-04	8.691951E-05
1.614173E+03	1.012127E-03	8.817973E-05
1.653543E+03	1.029798E-03	8.950338E-05
1.692913E+03	1.048387E-03	9.089317E-05
1.732283E+03	1.067940E-03	9.235208E-05
1.771654E+03	1.088503E-03	9.388304E-05
1.811024E+03	1.110316E-03	9.550548E-05
1.850394E+03	1.133250E-03	9.720684E-05
1.889764E+03	1.157556E-03	9.900733E-05
1.929134E+03	1.183105E-03	1.008942E-04
1.968504E+03	1.210161E-03	1.028885E-04
2.007874E+03	1.238800E-03	1.049947E-04
2.047244E+03	1.268894E-03	1.071999E-04
2.086614E+03	1.300728E-03	1.095264E-04
2.125984E+03	1.334608E-03	1.119974E-04
2.165354E+03	1.370196E-03	1.145820E-04
2.204724E+03	1.407801E-03	1.173036E-04
2.244094E+03	1.447756E-03	1.201869E-04
2.283465E+03	1.489942E-03	1.232190E-04
2.322835E+03	1.534472E-03	1.264058E-04
2.362205E+03	1.581701E-03	1.297731E-04
2.401575E+03	1.631514E-03	1.333074E-04
2.440945E+03	1.684287E-03	1.370354E-04
2.480315E+03	1.740161E-03	1.409639E-04
2.519685E+03	1.799281E-03	1.450998E-04
2.559055E+03	1.861792E-03	1.494496E-04
2.598425E+03	1.927844E-03	1.540198E-04
2.637795E+03	1.997878E-03	1.588393E-04
2.677165E+03	2.071764E-03	1.638916E-04
2.716535E+03	2.149651E-03	1.691814E-04
2.755906E+03	2.231995E-03	1.747376E-04
2.795276E+03	2.318956E-03	1.805648E-04
2.834646E+03	2.410360E-03	1.866409E-04
2.874016E+03	2.507001E-03	1.930191E-04
2.913386E+03	2.608340E-03	1.996482E-04
2.952756E+03	2.715177E-03	2.065800E-04
2.962598E+03	2.742929E-03	2.083730E-04
2.972441E+03	2.770559E-03	2.101488E-04
2.982283E+03	2.798792E-03	2.119621E-04
2.992126E+03	2.827632E-03	2.138131E-04
3.001969E+03	2.856346E-03	2.156462E-04
3.011811E+03	2.885671E-03	2.175169E-04
3.021654E+03	2.915237E-03	2.193972E-04
3.031496E+03	2.945044E-03	2.212868E-04
3.041339E+03	2.975470E-03	2.232140E-04
3.051181E+03	3.006138E-03	2.251503E-04
3.061024E+03	3.037047E-03	2.270954E-04
3.070866E+03	3.068194E-03	2.290491E-04
3.080709E+03	3.099968E-03	2.310400E-04
3.090551E+03	3.131980E-03	2.330391E-04
3.100394E+03	3.164624E-03	2.350755E-04
3.110236E+03	3.197109E-03	2.370902E-04
3.120079E+03	3.230226E-03	2.391417E-04
3.129921E+03	3.263575E-03	2.412002E-04
3.139764E+03	3.297559E-03	2.432954E-04
3.149606E+03	3.331774E-03	2.453971E-04
3.159449E+03	3.366217E-03	2.475050E-04
3.169291E+03	3.400884E-03	2.496186E-04
3.179134E+03	3.436185E-03	2.517679E-04
3.188976E+03	3.471707E-03	2.539223E-04
3.198819E+03	3.507444E-03	2.560813E-04
3.208661E+03	3.543816E-03	2.582752E-04
3.218504E+03	3.580397E-03	2.604730E-04
3.228346E+03	3.617185E-03	2.626742E-04
3.238189E+03	3.654602E-03	2.649093E-04
3.248031E+03	3.692219E-03	2.671469E-04
3.257874E+03	3.730028E-03	2.693863E-04
3.267717E+03	3.768022E-03	2.716270E-04
3.277559E+03	3.806637E-03	2.739002E-04
3.287402E+03	3.845429E-03	2.761735E-04
3.297244E+03	3.884837E-03	2.784784E-04
3.307087E+03	3.923962E-03	2.807503E-04
3.316929E+03	3.963692E-03	2.830527E-04
3.326772E+03	4.004028E-03	2.853851E-04
3.336614E+03	4.044051E-03	2.876822E-04
3.346457E+03	4.084667E-03	2.900080E-04
3.356299E+03	4.125873E-03	2.923624E-04
3.366142E+03	4.166735E-03	2.946787E-04
3.375984E+03	4.208172E-03	2.970220E-04
3.385827E+03	4.249709E-03	2.993587E-04
3.395669E+03	4.291810E-03	3.017210E-04
3.405512E+03	4.333995E-03	3.040751E-04
3.415354E+03	4.376250E-03	3.064199E-04
3.425197E+03	4.418564E-03	3.087546E-04
3.435039E+03	4.461408E-03	3.111119E-04
3.444882E+03	4.504289E-03	3.134573E-04
3.454724E+03	4.547195E-03	3.157897E-04
3.464567E+03	4.590601E-03	3.181422E-04
3.474409E+03	4.634007E-03	3.204799E-04
3.484252E+03	4.677397E-03	3.228016E-04
3.494094E+03	4.721256E-03	3.251405E-04
3.503937E+03	4.765073E-03	3.274615E-04
3.513780E+03	4.808831E-03	3.297633E-04
3.523622E+03	4.853019E-03	3.320793E-04
3.533465E+03	4.896612E-03	3.343394E-04
3.543307E+03	4.940604E-03	3.366113E-04
3.553150E+03	4.984983E-03	3.388943E-04
3.562992E+03	5.028710E-03	3.411174E-04
3.572835E+03	5.072791E-03	3.433491E-04
3.582677E+03	5.117211E-03	3.455882E-04
3.592520E+03	5.160918E-03	3.477635E-04
3.602362E+03	5.204929E-03	3.499438E-04
3.612205E+03	5.248702E-03	3.520925E-04
3.622047E+03	5.292218E-03	3.542085E-04
3.631890E+03	5.335983E-03	3.563255E-04
3.641732E+03	5.379449E-03	3.584070E-04
3.651575E+03	5.422593E-03	3.604515E-04
3.661417E+03	5.465391E-03	3.624576E-04
3.671260E+03	5.508355E-03	3.644593E-04
3.681102E+03	5.550930E-03	3.664198E-04
3.690945E+03	5.593091E-03	3.683377E-04
3.700787E+03	5.635349E-03	3.702466E-04
3.710630E+03	5.676608E-03	3.720748E-04
3.720472E+03	5.717911E-03	3.738909E-04
3.730315E+03	5.758701E-03	3.756585E-04
3.740157E+03	5.799499E-03	3.774117E-04
3.750000E+03	5.839180E-03	3.790775E-04
3.759843E+03	5.878817E-03	3.807260E-04
3.769685E+03	5.917827E-03	3.823194E-04
3.779528E+03	5.956740E-03	3.838923E-04
3.789370E+03	5.994426E-03	3.853720E-04
3.799213E+03	6.031959E-03	3.868280E-04
3.809055E+03	6.068758E-03	3.882232E-04
3.818898E+03	6.104794E-03	3.895562E-04
3.828740E+03	6.140036E-03	3.908254E-04
3.838583E+03	6.175002E-03	3.920640E-04
3.848425E+03	6.208566E-03	3.932008E-04
3.858268E+03	6.241788E-03	3.943037E-04
3.868110E+03	6.274091E-03	3.953364E-04
3.877953E+03	6.305992E-03	3.963317E-04
3.887795E+03	6.336336E-03	3.972178E-04
3.897638E+03	6.365647E-03	3.980279E-04
3.907480E+03	6.394429E-03	3.987941E-04
3.917323E+03	6.422097E-03	3.994804E-04
3.927165E+03	6.448591E-03	4.000836E-04
3.937008E+03	6.473876E-03	4.006021E-04
3.946850E+03	6.497899E-03	4.010334E-04
3.956693E+03	6.520619E-03	4.013756E-04
3.966535E+03	6.542542E-03	4.016603E-04
3.976378E+03	6.562526E-03	4.018183E-04
3.986220E+03	6.581634E-03	4.019154E-04
3.996063E+03	6.598733E-03	4.018831E-04
4.005906E+03	6.614904E-03	4.017881E-04
4.015748E+03	6.629578E-03	4.015964E-04
4.025591E+03	6.642748E-03	4.013085E-04
4.035433E+03	6.654418E-03	4.009254E-04
4.045276E+03	6.664600E-03	4.004488E-04
4.055118E+03	6.673325E-03	3.998811E-04
4.064961E+03	6.680617E-03	3.992247E-04
4.074803E+03	6.686530E-03	3.984836E-04
4.084646E+03	6.691126E-03	3.976623E-04
4.094488E+03	6.694463E-03	3.967648E-04
4.104331E+03	6.697159E-03	3.958286E-04
4.114173E+03	6.698226E-03	3.947956E-04
4.124016E+03	6.698291E-03	3.937038E-04
4.133858E+03	6.697458E-03	3.925597E-04
4.143701E+03	6.695834E-03	3.913702E-04
4.153543E+03	6.693523E-03	3.901419E-04
4.163386E+03	6.690645E-03	3.888820E-04
4.173228E+03	6.687308E-03	3.875974E-04
4.183071E+03	6.683643E-03	3.862959E-04
4.192913E+03	6.679757E-03	3.849839E-04
4.202756E+03	6.675268E-03	3.836397E-04
4.212598E+03	6.671318E-03	3.823291E-04
4.222441E+03	6.667506E-03	3.810290E-04
4.232283E+03	6.663454E-03	3.797182E-04
4.242126E+03	6.659766E-03	3.784309E-04
4.251969E+03	6.657062E-03	3.772023E-04
4.261811E+03	6.654439E-03	3.759810E-04
4.271654E+03	6.652491E-03	3.748007E-04
4.281496E+03	6.650816E-03	3.736384E-04
4.291339E+03	6.650480E-03	3.725539E-04
4.301181E+03	6.651064E-03	3.715232E-04
4.311024E+03	6.652144E-03	3.705226E-04
4.320866E+03	6.654267E-03	3.695821E-04
4.330709E+03	6.657470E-03	3.687035E-04
4.340551E+03	6.661798E-03	3.678889E-04
4.350394E+03	6.667266E-03	3.671388E-04
4.360236E+03	6.673413E-03	3.664275E-04
4.370079E+03	6.680732E-03	3.657816E-04
4.379921E+03	6.689215E-03	3.652004E-04
4.389764E+03	6.698849E-03	3.646827E-04
4.399606E+03	6.709142E-03	3.642014E-04
4.409449E+03	6.720999E-03	3.638051E-04
4.419291E+03	6.733426E-03	3.634396E-04
4.429134E+03	6.746375E-03	3.631023E-04
4.438976E+03	6.760713E-03	3.628395E-04
4.448819E+03	6.775429E-03	3.625966E-04
4.458661E+03	6.790893E-03	3.623932E-04
4.468504E+03	6.806542E-03	3.621991E-04
4.478346E+03	6.823201E-03	3.620583E-04
4.488189E+03	6.839813E-03	3.619144E-04
4.498031E+03	6.856722E-03	3.617857E-04
4.507874E+03	6.873324E-03	3.616405E-04
4.517717E+03	6.889943E-03	3.614959E-04
4.527559E+03	6.906430E-03	3.613445E-04
4.537402E+03	6.922182E-03	3.611548E-04
4.547244E+03	6.937979E-03	3.609679E-04
4.557087E+03	6.952282E-03	3.607042E-04
4.566929E+03	6.966363E-03	3.604302E-04
4.576772E+03	6.979170E-03	3.600918E-04
4.586614E+03	6.991058E-03	3.597080E-04
4.596457E+03	7.001475E-03	3.592511E-04
4.606299E+03	7.010815E-03	3.587419E-04
4.616142E+03	7.018572E-03	3.581552E-04
4.625984E+03	7.025643E-03	3.575376E-04
4.635827E+03	7.031103E-03	3.568423E-04
4.645669E+03	7.034965E-03	3.560710E-04
4.655512E+03	7.037736E-03	3.552499E-04
4.665354E+03	7.039468E-03	3.543824E-04
4.675197E+03	7.039774E-03	3.534495E-04
4.685039E+03	7.039200E-03	3.524792E-04
4.694882E+03	7.037384E-03	3.514539E-04
4.704724E+03	7.034899E-03	3.504028E-04
4.714567E+03	7.031858E-03	3.493320E-04
4.724409E+03	7.027940E-03	3.482257E-04
4.734252E+03	7.023741E-03	3.471138E-04
4.744094E+03	7.018956E-03	3.459816E-04
4.753937E+03	7.014194E-03	3.448593E-04
4.763780E+03	7.009611E-03	3.437547E-04
4.773622E+03	7.004939E-03	3.426546E-04
4.783465E+03	7.000792E-03	3.415891E-04
4.793307E+03	6.996924E-03	3.405462E-04
4.803150E+03	6.993979E-03	3.395571E-04
4.812992E+03	6.991710E-03	3.386095E-04
4.822835E+03	6.990748E-03	3.377334E-04
4.832677E+03	6.990832E-03	3.369158E-04
4.842520E+03	6.992546E-03	3.361840E-04
4.852362E+03	6.996023E-03	3.355438E-04
4.862205E+03	7.000938E-03	3.349789E-04
4.872047E+03	7.007802E-03	3.345130E-04
4.881890E+03	7.016236E-03	3.341274E-04
4.891732E+03	7.026252E-03	3.338218E-04
4.901575E+03	7.038690E-03	3.336355E-04
4.911417E+03	7.052643E-03	3.335247E-04
4.921260E+03	7.068025E-03	3.334847E-04
4.931102E+03	7.085146E-03	3.335295E-04
4.940945E+03	7.103434E-03	3.336315E-04
4.950787E+03	7.123146E-03	3.338024E-04
4.960630E+03	7.144095E-03	3.340329E-04
4.970472E+03	7.165646E-03	3.342928E-04
4.980315E+03	7.188033E-03	3.345928E-04
4.990157E+03	7.210606E-03	3.349023E-04
5.000000E+03	7.233610E-03	3.352326E-04
5.009843E+03	7.256432E-03	3.355550E-04
5.019685E+03	7.279350E-03	3.358824E-04
5.029528E+03	7.301800E-03	3.361887E-04
5.039370E+03	7.324123E-03	3.364895E-04
5.049213E+03	7.345810E-03	3.367616E-04
5.059055E+03	7.367252E-03	3.370229E-04
5.068898E+03	7.388441E-03	3.372730E-04
5.078740E+03	7.408923E-03	3.374912E-04
5.088583E+03	7.429149E-03	3.376982E-04
5.098425E+03	7.448685E-03	3.378742E-04
5.108268E+03	7.467993E-03	3.380403E-04
5.118110E+03	7.486623E-03	3.381762E-04
5.127953E+03	7.505012E-03	3.383016E-04
5.137795E+03	7.522700E-03	3.383958E-04
5.147638E+03	7.540098E-03	3.384775E-04
5.157480E+03	7.557156E-03	3.385443E-04
5.167323E+03	7.573365E-03	3.385737E-04
5.177165E+03	7.588654E-03	3.385624E-04
5.187008E+03	7.603829E-03	3.385466E-04
5.196850E+03	7.617899E-03	3.384823E-04
5.206693E+03	7.630773E-03	3.383656E-04
5.216535E+03	7.642773E-03	3.382111E-04
5.226378E+03	7.653345E-03	3.379944E-04
5.236220E+03	7.663260E-03	3.377499E-04
5.246063E+03	7.671046E-03	3.374129E-04
5.255906E+03	7.677461E-03	3.370173E-04
5.265748E+03	7.682370E-03	3.365573E-04
5.275591E+03	7.685631E-03	3.360272E-04
5.285433E+03	7.686647E-03	3.354013E-04
5.295276E+03	7.685266E-03	3.346735E-04
5.305118E+03	7.682235E-03	3.338768E-04
5.314961E+03	7.676055E-03	3.329466E-04
5.324803E+03	7.667907E-03	3.319347E-04
5.334646E+03	7.656746E-03	3.307965E-04
5.344488E+03	7.642868E-03	3.295454E-04
5.354331E+03	7.625682E-03	3.281566E-04
5.364173E+03	7.605479E-03	3.266435E-04
5.374016E+03	7.581683E-03	3.249822E-04
5.383858E+03	7.554610E-03	3.231868E-04
5.393701E+03	7.524134E-03	3.212529E-04
5.403543E+03	7.489709E-03	3.191580E-04
5.413386E+03	7.451664E-03	3.169171E-04
5.423228E+03	7.409921E-03	3.145276E-04
5.433071E+03	7.363971E-03	3.119691E-04
5.442913E+03	7.314200E-03	3.092587E-04
5.452756E+03	7.260147E-03	3.063779E-04
5.462598E+03	7.202641E-03	3.033626E-04
5.472441E+03	7.140450E-03	3.001620E-04
5.482283E+03	7.074872E-03	2.968314E-04
5.492126E+03	7.005160E-03	2.933406E-04
5.501969E+03	6.931850E-03	2.897128E-04
5.511811E+03	6.854714E-03	2.859394E-04
5.521654E+03	6.774357E-03	2.820464E-04
5.531496E+03	6.691048E-03	2.780458E-04
5.541339E+03	6.604711E-03	2.739351E-04
5.551181E+03	6.516092E-03	2.697459E-04
5.561024E+03	6.425595E-03	2.654953E-04
5.570866E+03	6.333665E-03	2.612021E-04
5.580709E+03	6.240410E-03	2.568711E-04
5.590551E+03	6.146699E-03	2.525383E-04
5.600394E+03	6.052695E-03	2.482103E-04
5.610236E+03	5.959255E-03	2.439223E-04
5.620079E+03	5.866881E-03	2.396947E-04
5.629921E+03	5.776047E-03	2.355465E-04
5.639764E+03	5.686877E-03	2.314823E-04
5.649606E+03	5.600114E-03	2.275320E-04
5.659449E+03	5.516130E-03	2.237099E-04
5.669291E+03	5.434940E-03	2.200163E-04
5.679134E+03	5.357453E-03	2.164869E-04
5.688976E+03	5.282969E-03	2.130929E-04
5.698819E+03	5.212601E-03	2.098783E-04
5.708661E+03	5.145889E-03	2.068238E-04
5.718504E+03	5.083521E-03	2.039561E-04
5.728346E+03	5.024676E-03	2.012415E-04
5.738189E+03	4.970251E-03	1.987150E-04
5.748031E+03	4.919658E-03	1.963522E-04
5.757874E+03	4.873140E-03	1.941621E-04
5.767717E+03	4.830622E-03	1.921409E-04
5.777559E+03	4.792002E-03	1.902836E-04
5.787402E+03	4.756894E-03	1.885743E-04
5.797244E+03	4.725432E-03	1.870176E-04
5.807087E+03	4.697470E-03	1.856070E-04
5.816929E+03	4.672839E-03	1.843353E-04
5.826772E+03	4.651104E-03	1.831847E-04
5.836614E+03	4.632632E-03	1.821692E-04
5.846457E+03	4.616704E-03	1.812601E-04
5.856299E+03	4.603152E-03	1.804503E-04
5.866142E+03	4.592338E-03	1.797537E-04
5.875984E+03	4.583570E-03	1.791428E-04
5.885827E+03	4.576979E-03	1.786225E-04
5.895669E+03	4.572427E-03	1.781872E-04
5.905512E+03	4.569814E-03	1.778327E-04
5.915354E+03	4.569058E-03	1.775557E-04
5.925197E+03	4.569848E-03	1.773438E-04
5.935039E+03	4.572422E-03	1.772064E-04
5.944882E+03	4.576789E-03	1.771434E-04
5.954724E+03	4.582986E-03	1.771564E-04
5.964567E+03	4.591092E-03	1.772481E-04
5.974409E+03	4.600936E-03	1.774119E-04
5.984252E+03	4.612912E-03	1.776628E-04
5.994094E+03	4.627435E-03	1.780169E-04
6.003937E+03	4.643869E-03	1.784494E-04
6.013780E+03	4.663206E-03	1.789985E-04
6.023622E+03	4.685364E-03	1.796608E-04
6.033465E+03	4.710276E-03	1.804335E-04
6.043307E+03	4.738673E-03	1.813448E-04
6.053150E+03	4.770201E-03	1.823809E-04
6.062992E+03	4.805303E-03	1.835586E-04
6.072835E+03	4.844129E-03	1.848834E-04
6.082677E+03	4.886811E-03	1.863600E-04
6.092520E+03	4.933152E-03	1.879804E-04
6.102362E+03	4.983781E-03	1.897682E-04
6.112205E+03	5.038076E-03	1.916994E-04
6.122047E+03	5.096111E-03	1.937765E-04
6.131890E+03	5.157908E-03	1.960001E-04
6.141732E+03	5.222525E-03	1.983340E-04
6.151575E+03	5.289550E-03	2.007625E-04
6.161417E+03	5.359133E-03	2.032910E-04
6.171260E+03	5.430429E-03	2.058874E-04
6.181102E+03	5.502513E-03	2.085165E-04
6.190945E+03	5.575335E-03	2.111763E-04
6.200787E+03	5.647499E-03	2.138139E-04
6.210630E+03	5.718509E-03	2.164104E-04
6.220472E+03	5.787837E-03	2.189460E-04
6.230315E+03	5.853902E-03	2.213608E-04
6.240157E+03	5.916109E-03	2.236323E-04
6.250000E+03	5.973183E-03	2.257125E-04
6.259843E+03	6.024920E-03	2.275937E-04
6.269685E+03	6.070127E-03	2.292308E-04
6.279528E+03	6.107666E-03	2.305810E-04
6.289370E+03	6.137568E-03	2.316455E-04
6.299213E+03	6.158560E-03	2.323763E-04
6.309055E+03	6.170927E-03	2.327843E-04
6.318898E+03	6.173651E-03	2.328309E-04
6.328740E+03	6.166948E-03	2.325244E-04
6.338583E+03	6.150807E-03	2.318644E-04
6.348425E+03	6.125722E-03	2.308695E-04
6.358268E+03	6.091209E-03	2.295213E-04
6.368110E+03	6.047989E-03	2.278471E-04
6.377953E+03	5.996139E-03	2.258496E-04
6.387795E+03	5.936890E-03	2.235752E-04
6.397638E+03	5.870442E-03	2.210313E-04
6.407480E+03	5.797386E-03	2.182401E-04
6.417323E+03	5.718339E-03	2.152247E-04
6.427165E+03	5.633585E-03	2.119958E-04
6.437008E+03	5.544401E-03	2.086014E-04
6.446850E+03	5.450730E-03	2.050391E-04
6.456693E+03	5.353806E-03	2.013553E-04
6.466535E+03	5.253532E-03	1.975464E-04
6.476378E+03	5.151073E-03	1.936561E-04
6.486220E+03	5.046321E-03	1.896803E-04
6.496063E+03	4.940056E-03	1.856481E-04
6.505906E+03	4.833023E-03	1.815877E-04
6.515748E+03	4.725065E-03	1.774930E-04
6.525591E+03	4.616880E-03	1.733903E-04
6.535433E+03	4.509120E-03	1.693040E-04
6.545276E+03	4.401589E-03	1.652268E-04
6.555118E+03	4.294898E-03	1.611815E-04
6.564961E+03	4.189355E-03	1.571797E-04
6.574803E+03	4.085248E-03	1.532323E-04
6.584646E+03	3.982840E-03	1.493490E-04
6.594488E+03	3.882372E-03	1.455388E-04
6.604331E+03	3.784063E-03	1.418101E-04
6.614173E+03	3.688111E-03	1.381702E-04
6.624016E+03	3.594693E-03	1.346257E-04
6.633858E+03	3.503968E-03	1.311826E-04
6.643701E+03	3.416074E-03	1.278459E-04
6.653543E+03	3.331135E-03	1.246204E-04
6.663386E+03	3.249258E-03	1.215099E-04
6.673228E+03	3.170536E-03	1.185180E-04
6.683071E+03	3.095050E-03	1.156475E-04
6.692913E+03	3.022686E-03	1.128942E-04
6.702756E+03	2.953874E-03	1.102741E-04
6.712598E+03	2.888480E-03	1.077821E-04
6.722441E+03	2.826548E-03	1.054196E-04
6.732283E+03	2.767946E-03	1.031819E-04
6.742126E+03	2.713046E-03	1.010825E-04
6.751969E+03	2.661703E-03	9.911592E-05
6.761811E+03	2.613937E-03	9.728283E-05
6.771654E+03	2.569610E-03	9.557792E-05
6.781496E+03	2.529046E-03	9.401314E-05
6.791339E+03	2.492097E-03	9.258273E-05
6.801181E+03	2.458615E-03	9.128109E-05
6.811024E+03	2.428901E-03	9.011915E-05
6.820866E+03	2.402652E-03	8.908545E-05
6.830709E+03	2.380152E-03	8.819037E-05
6.840551E+03	2.361095E-03	8.742232E-05
6.850394E+03	2.345753E-03	8.679110E-05
6.860236E+03	2.333814E-03	8.628493E-05
6.870079E+03	2.325537E-03	8.591311E-05
6.879921E+03	2.320602E-03	8.566355E-05
6.889764E+03	2.319254E-03	8.554506E-05
6.899606E+03	2.321163E-03	8.554512E-05
6.909449E+03	2.326419E-03	8.566676E-05
6.919291E+03	2.335104E-03	8.591270E-05
6.929134E+03	2.346864E-03	8.626961E-05
6.938976E+03	2.361765E-03	8.673958E-05
6.948819E+03	2.379866E-03	8.732450E-05
6.958661E+03	2.400781E-03	8.800986E-05
6.968504E+03	2.424550E-03	8.879682E-05
6.978346E+03	2.451057E-03	8.968085E-05
6.988189E+03	2.480180E-03	9.065714E-05
6.998031E+03	2.511784E-03	9.172049E-05
7.007874E+03	2.545728E-03	9.286545E-05
7.017717E+03	2.581862E-03	9.408626E-05
7.027559E+03	2.620027E-03	9.537690E-05
7.037402E+03	2.660059E-03	9.673111E-05
7.047244E+03	2.701618E-03	9.813633E-05
7.057087E+03	2.744856E-03	9.959790E-05
7.066929E+03	2.789425E-03	1.011029E-04
7.076772E+03	2.835130E-03	1.026442E-04
7.086614E+03	2.881593E-03	1.042080E-04
7.096457E+03	2.928962E-03	1.057994E-04
7.106299E+03	2.976660E-03	1.073977E-04
7.116142E+03	3.024642E-03	1.090010E-04
7.125984E+03	3.072868E-03	1.106080E-04
7.135827E+03	3.120716E-03	1.121963E-04
7.145669E+03	3.168125E-03	1.137637E-04
7.155512E+03	3.214832E-03	1.153010E-04
7.165354E+03	3.260568E-03	1.167986E-04
7.175197E+03	3.305054E-03	1.182468E-04
7.185039E+03	3.348002E-03	1.196353E-04
7.194882E+03	3.389117E-03	1.209541E-04
7.204724E+03	3.428098E-03	1.221926E-04
7.214567E+03	3.464423E-03	1.233326E-04
7.224409E+03	3.498222E-03	1.243793E-04
7.234252E+03	3.528756E-03	1.253068E-04
7.244094E+03	3.556175E-03	1.261209E-04
7.253937E+03	3.579752E-03	1.267965E-04
7.263780E+03	3.599449E-03	1.273328E-04
7.273622E+03	3.615031E-03	1.277221E-04
7.283465E+03	3.626292E-03	1.279579E-04
7.293307E+03	3.633066E-03	1.280349E-04
7.303150E+03	3.634998E-03	1.279415E-04
7.312992E+03	3.632478E-03	1.276920E-04
7.322835E+03	3.625256E-03	1.272785E-04
7.332677E+03	3.613142E-03	1.266949E-04
7.342520E+03	3.596469E-03	1.259537E-04
7.352362E+03	3.575401E-03	1.250614E-04
7.362205E+03	3.550162E-03	1.240264E-04
7.372047E+03	3.521033E-03	1.228591E-04
7.381890E+03	3.488350E-03	1.215720E-04
7.391732E+03	3.452496E-03	1.201787E-04
7.401575E+03	3.413673E-03	1.186868E-04
7.411417E+03	3.372775E-03	1.171278E-04
7.421260E+03	3.329845E-03	1.155035E-04
7.431102E+03	3.285594E-03	1.138387E-04
7.440945E+03	3.240516E-03	1.121509E-04
7.450787E+03	3.195107E-03	1.104571E-04
7.460630E+03	3.149851E-03	1.087743E-04
7.470472E+03	3.105011E-03	1.071115E-04
7.480315E+03	3.061435E-03	1.054977E-04
7.490157E+03	3.019139E-03	1.039331E-04
7.500000E+03	2.978706E-03	1.024375E-04
7.509843E+03	2.940483E-03	1.010224E-04
7.519685E+03	2.904781E-03	9.969797E-05
7.529528E+03	2.871599E-03	9.846379E-05
7.539370E+03	2.841328E-03	9.733284E-05
7.549213E+03	2.813574E-03	9.629114E-05
7.559055E+03	2.788476E-03	9.534309E-05
7.568898E+03	2.765965E-03	9.448591E-05
7.578740E+03	2.745949E-03	9.371608E-05
7.588583E+03	2.728315E-03	9.302934E-05
7.598425E+03	2.712751E-03	9.241479E-05
7.608268E+03	2.699464E-03	9.187909E-05
7.618110E+03	2.687931E-03	9.140413E-05
7.627953E+03	2.678145E-03	9.098945E-05
7.637795E+03	2.669910E-03	9.062805E-05
