#wls	flux	fluxerr
1.574803E+03	8.631289E-04	7.572145E-05
1.614173E+03	8.814392E-04	7.730563E-05
1.653543E+03	9.007067E-04	7.897227E-05
1.692913E+03	9.208237E-04	8.071183E-05
1.732283E+03	9.421567E-04	8.255628E-05
1.771654E+03	9.644394E-04	8.448216E-05
1.811024E+03	9.878900E-04	8.650846E-05
1.850394E+03	1.012568E-03	8.864024E-05
1.889764E+03	1.038540E-03	9.088307E-05
1.929134E+03	1.065871E-03	9.324258E-05
1.968504E+03	1.094633E-03	9.572490E-05
2.007874E+03	1.124901E-03	9.833624E-05
2.047244E+03	1.156753E-03	1.010832E-04
2.086614E+03	1.190269E-03	1.039728E-04
2.125984E+03	1.225739E-03	1.070298E-04
2.165354E+03	1.262848E-03	1.102266E-04
2.204724E+03	1.302102E-03	1.136069E-04
2.244094E+03	1.343391E-03	1.171611E-04
2.283465E+03	1.387043E-03	1.209171E-04
2.322835E+03	1.432943E-03	1.248648E-04
2.362205E+03	1.481198E-03	1.290131E-04
2.401575E+03	1.532160E-03	1.333921E-04
2.440945E+03	1.585706E-03	1.379908E-04
2.480315E+03	1.641946E-03	1.428183E-04
2.519685E+03	1.701528E-03	1.479304E-04
2.559055E+03	1.763782E-03	1.532684E-04
2.598425E+03	1.829645E-03	1.589131E-04
2.637795E+03	1.898690E-03	1.648269E-04
2.677165E+03	1.971321E-03	1.710442E-04
2.716535E+03	2.047665E-03	1.775754E-04
2.755906E+03	2.127518E-03	1.844021E-04
2.795276E+03	2.211292E-03	1.915593E-04
2.834646E+03	2.299085E-03	1.990547E-04
2.874016E+03	2.390981E-03	2.068948E-04
2.913386E+03	2.487046E-03	2.150847E-04
2.952756E+03	2.586953E-03	2.235950E-04
2.962598E+03	2.612942E-03	2.258081E-04
2.972441E+03	2.638772E-03	2.280067E-04
2.982283E+03	2.665199E-03	2.302562E-04
2.992126E+03	2.691459E-03	2.324904E-04
3.001969E+03	2.718321E-03	2.347757E-04
3.011811E+03	2.745398E-03	2.370788E-04
3.021654E+03	2.772690E-03	2.393997E-04
3.031496E+03	2.800195E-03	2.417380E-04
3.041339E+03	2.827910E-03	2.440937E-04
3.051181E+03	2.855833E-03	2.464665E-04
3.061024E+03	2.884371E-03	2.488914E-04
3.070866E+03	2.912707E-03	2.512980E-04
3.080709E+03	2.941658E-03	2.537568E-04
3.090551E+03	2.970813E-03	2.562323E-04
3.100394E+03	2.999750E-03	2.586880E-04
3.110236E+03	3.029302E-03	2.611959E-04
3.120079E+03	3.059474E-03	2.637563E-04
3.129921E+03	3.089415E-03	2.662957E-04
3.139764E+03	3.119543E-03	2.688504E-04
3.149606E+03	3.150290E-03	2.714575E-04
3.159449E+03	3.180785E-03	2.740418E-04
3.169291E+03	3.211895E-03	2.766781E-04
3.179134E+03	3.243183E-03	2.793288E-04
3.188976E+03	3.274642E-03	2.819932E-04
3.198819E+03	3.306268E-03	2.846709E-04
3.208661E+03	3.338056E-03	2.873616E-04
3.218504E+03	3.370456E-03	2.901039E-04
3.228346E+03	3.402553E-03	2.928191E-04
3.238189E+03	3.435258E-03	2.955855E-04
3.248031E+03	3.468107E-03	2.983632E-04
3.257874E+03	3.500624E-03	3.011113E-04
3.267717E+03	3.533738E-03	3.039098E-04
3.277559E+03	3.566976E-03	3.067178E-04
3.287402E+03	3.600812E-03	3.095760E-04
3.297244E+03	3.634280E-03	3.124015E-04
3.307087E+03	3.667848E-03	3.152345E-04
3.316929E+03	3.702000E-03	3.181166E-04
3.326772E+03	3.735749E-03	3.209629E-04
3.336614E+03	3.770071E-03	3.238573E-04
3.346457E+03	3.804467E-03	3.267569E-04
3.356299E+03	3.838927E-03	3.296608E-04
3.366142E+03	3.873441E-03	3.325682E-04
3.375984E+03	3.908000E-03	3.354783E-04
3.385827E+03	3.943107E-03	3.384343E-04
3.395669E+03	3.977728E-03	3.413474E-04
3.405512E+03	4.012364E-03	3.442605E-04
3.415354E+03	4.047524E-03	3.472175E-04
3.425197E+03	4.082682E-03	3.501731E-04
3.435039E+03	4.117826E-03	3.531264E-04
3.444882E+03	4.152945E-03	3.560762E-04
3.454724E+03	4.188027E-03	3.590216E-04
3.464567E+03	4.223059E-03	3.619616E-04
3.474409E+03	4.258028E-03	3.648950E-04
3.484252E+03	4.292923E-03	3.678208E-04
3.494094E+03	4.328275E-03	3.707846E-04
3.503937E+03	4.362982E-03	3.736919E-04
3.513780E+03	4.398126E-03	3.766355E-04
3.523622E+03	4.433148E-03	3.795673E-04
3.533465E+03	4.467474E-03	3.824384E-04
3.543307E+03	4.502205E-03	3.853429E-04
3.553150E+03	4.536769E-03	3.882320E-04
3.562992E+03	4.571153E-03	3.911044E-04
3.572835E+03	4.605910E-03	3.940076E-04
3.582677E+03	4.639891E-03	3.968432E-04
3.592520E+03	4.673648E-03	3.996583E-04
3.602362E+03	4.707740E-03	4.025010E-04
3.612205E+03	4.741003E-03	4.052717E-04
3.622047E+03	4.774576E-03	4.080676E-04
3.631890E+03	4.807867E-03	4.108383E-04
3.641732E+03	4.840276E-03	4.135324E-04
3.651575E+03	4.872955E-03	4.162484E-04
3.661417E+03	4.905305E-03	4.189353E-04
3.671260E+03	4.937312E-03	4.215916E-04
3.681102E+03	4.968959E-03	4.242162E-04
3.690945E+03	5.000230E-03	4.268075E-04
3.700787E+03	5.031112E-03	4.293645E-04
3.710630E+03	5.062188E-03	4.319370E-04
3.720472E+03	5.092245E-03	4.344214E-04
3.730315E+03	5.121866E-03	4.368676E-04
3.740157E+03	5.151643E-03	4.393260E-04
3.750000E+03	5.180350E-03	4.416923E-04
3.759843E+03	5.209189E-03	4.440686E-04
3.769685E+03	5.236926E-03	4.463501E-04
3.779528E+03	5.264771E-03	4.486398E-04
3.789370E+03	5.292099E-03	4.508845E-04
3.799213E+03	5.318899E-03	4.530832E-04
3.809055E+03	5.344541E-03	4.551823E-04
3.818898E+03	5.370248E-03	4.572861E-04
3.828740E+03	5.395391E-03	4.593410E-04
3.838583E+03	5.419962E-03	4.613463E-04
3.848425E+03	5.443951E-03	4.633011E-04
3.858268E+03	5.467349E-03	4.652049E-04
3.868110E+03	5.490149E-03	4.670570E-04
3.877953E+03	5.512344E-03	4.688569E-04
3.887795E+03	5.533929E-03	4.706041E-04
3.897638E+03	5.554899E-03	4.722983E-04
3.907480E+03	5.575252E-03	4.739393E-04
3.917323E+03	5.595612E-03	4.755801E-04
3.927165E+03	5.614725E-03	4.771144E-04
3.937008E+03	5.633217E-03	4.785952E-04
3.946850E+03	5.651092E-03	4.800230E-04
3.956693E+03	5.668353E-03	4.813981E-04
3.966535E+03	5.685634E-03	4.827744E-04
3.976378E+03	5.701685E-03	4.840455E-04
3.986220E+03	5.717141E-03	4.852657E-04
3.996063E+03	5.732015E-03	4.864360E-04
4.005906E+03	5.746316E-03	4.875572E-04
4.015748E+03	5.760689E-03	4.886841E-04
4.025591E+03	5.773898E-03	4.897117E-04
4.035433E+03	5.786573E-03	4.906938E-04
4.045276E+03	5.798745E-03	4.916328E-04
4.055118E+03	5.810434E-03	4.925305E-04
4.064961E+03	5.822291E-03	4.934420E-04
4.074803E+03	5.833072E-03	4.942622E-04
4.084646E+03	5.843450E-03	4.950479E-04
4.094488E+03	5.853437E-03	4.958001E-04
4.104331E+03	5.863065E-03	4.965217E-04
4.114173E+03	5.872368E-03	4.972156E-04
4.124016E+03	5.881370E-03	4.978838E-04
4.133858E+03	5.890109E-03	4.985295E-04
4.143701E+03	5.898614E-03	4.991553E-04
4.153543E+03	5.906918E-03	4.997639E-04
4.163386E+03	5.915056E-03	5.003583E-04
4.173228E+03	5.922446E-03	5.008892E-04
4.183071E+03	5.930358E-03	5.014642E-04
4.192913E+03	5.938205E-03	5.020336E-04
4.202756E+03	5.945411E-03	5.025488E-04
4.212598E+03	5.953236E-03	5.031161E-04
4.222441E+03	5.960487E-03	5.036349E-04
4.232283E+03	5.968431E-03	5.042121E-04
4.242126E+03	5.975868E-03	5.047465E-04
4.251969E+03	5.984055E-03	5.053441E-04
4.261811E+03	5.991798E-03	5.059042E-04
4.271654E+03	5.999743E-03	5.064812E-04
4.281496E+03	6.007910E-03	5.070771E-04
4.291339E+03	6.016335E-03	5.076947E-04
4.301181E+03	6.025041E-03	5.083358E-04
4.311024E+03	6.034049E-03	5.090025E-04
4.320866E+03	6.043378E-03	5.096961E-04
4.330709E+03	6.052443E-03	5.103676E-04
4.340551E+03	6.062480E-03	5.111209E-04
4.350394E+03	6.072288E-03	5.118549E-04
4.360236E+03	6.083095E-03	5.126731E-04
4.370079E+03	6.093702E-03	5.134744E-04
4.379921E+03	6.104720E-03	5.143103E-04
4.389764E+03	6.116161E-03	5.151817E-04
4.399606E+03	6.128036E-03	5.160897E-04
4.409449E+03	6.140339E-03	5.170338E-04
4.419291E+03	6.153081E-03	5.180148E-04
4.429134E+03	6.166259E-03	5.190324E-04
4.438976E+03	6.179259E-03	5.200351E-04
4.448819E+03	6.193305E-03	5.211257E-04
4.458661E+03	6.207168E-03	5.222010E-04
4.468504E+03	6.221455E-03	5.233119E-04
4.478346E+03	6.236160E-03	5.244579E-04
4.488189E+03	6.251266E-03	5.256377E-04
4.498031E+03	6.266773E-03	5.268511E-04
4.507874E+03	6.282058E-03	5.280459E-04
4.517717E+03	6.298322E-03	5.293230E-04
4.527559E+03	6.314347E-03	5.305801E-04
4.537402E+03	6.331329E-03	5.319175E-04
4.547244E+03	6.348045E-03	5.332326E-04
4.557087E+03	6.365088E-03	5.345752E-04
4.566929E+03	6.382442E-03	5.359440E-04
4.576772E+03	6.399484E-03	5.372867E-04
4.586614E+03	6.417433E-03	5.387055E-04
4.596457E+03	6.435041E-03	5.400958E-04
4.606299E+03	6.453533E-03	5.415604E-04
4.616142E+03	6.471662E-03	5.429946E-04
4.625984E+03	6.490046E-03	5.444503E-04
4.635827E+03	6.508662E-03	5.459256E-04
4.645669E+03	6.526898E-03	5.473692E-04
4.655512E+03	6.545979E-03	5.488838E-04
4.665354E+03	6.564674E-03	5.503662E-04
4.675197E+03	6.583602E-03	5.518683E-04
4.685039E+03	6.602768E-03	5.533906E-04
4.694882E+03	6.622184E-03	5.549340E-04
4.704724E+03	6.641878E-03	5.565009E-04
4.714567E+03	6.661867E-03	5.580929E-04
4.724409E+03	6.681562E-03	5.596603E-04
4.734252E+03	6.701597E-03	5.612566E-04
4.744094E+03	6.722007E-03	5.628846E-04
4.753937E+03	6.742815E-03	5.645462E-04
4.763780E+03	6.764050E-03	5.662437E-04
4.773622E+03	6.785103E-03	5.679262E-04
4.783465E+03	6.807258E-03	5.697013E-04
4.793307E+03	6.829278E-03	5.714653E-04
4.803150E+03	6.851803E-03	5.732719E-04
4.812992E+03	6.874857E-03	5.751229E-04
4.822835E+03	6.898446E-03	5.770190E-04
4.832677E+03	6.921951E-03	5.789082E-04
4.842520E+03	6.946644E-03	5.808971E-04
4.852362E+03	6.971252E-03	5.828791E-04
4.862205E+03	6.996407E-03	5.849071E-04
4.872047E+03	7.022108E-03	5.869810E-04
4.881890E+03	7.047696E-03	5.890457E-04
4.891732E+03	7.074439E-03	5.912072E-04
4.901575E+03	7.101030E-03	5.933562E-04
4.911417E+03	7.128088E-03	5.955445E-04
4.921260E+03	7.155574E-03	5.977688E-04
4.931102E+03	7.183459E-03	6.000267E-04
4.940945E+03	7.211048E-03	6.022602E-04
4.950787E+03	7.239595E-03	6.045739E-04
4.960630E+03	7.267744E-03	6.068547E-04
4.970472E+03	7.296099E-03	6.091530E-04
4.980315E+03	7.324591E-03	6.114630E-04
4.990157E+03	7.352498E-03	6.137244E-04
5.000000E+03	7.381072E-03	6.160419E-04
5.009843E+03	7.408912E-03	6.182984E-04
5.019685E+03	7.436610E-03	6.205435E-04
5.029528E+03	7.464075E-03	6.227695E-04
5.039370E+03	7.491232E-03	6.249702E-04
5.049213E+03	7.517986E-03	6.271377E-04
5.059055E+03	7.543577E-03	6.292086E-04
5.068898E+03	7.568587E-03	6.312315E-04
5.078740E+03	7.592907E-03	6.331973E-04
5.088583E+03	7.616446E-03	6.350985E-04
5.098425E+03	7.639106E-03	6.369270E-04
5.108268E+03	7.660096E-03	6.386167E-04
5.118110E+03	7.680684E-03	6.402736E-04
5.127953E+03	7.699390E-03	6.417742E-04
5.137795E+03	7.716799E-03	6.431673E-04
5.147638E+03	7.732809E-03	6.444445E-04
5.157480E+03	7.746621E-03	6.455393E-04
5.167323E+03	7.759511E-03	6.465580E-04
5.177165E+03	7.770002E-03	6.473775E-04
5.187008E+03	7.778675E-03	6.480464E-04
5.196850E+03	7.785449E-03	6.485581E-04
5.206693E+03	7.790215E-03	6.489033E-04
5.216535E+03	7.792214E-03	6.490190E-04
5.226378E+03	7.792729E-03	6.490120E-04
5.236220E+03	7.790315E-03	6.487621E-04
5.246063E+03	7.785589E-03	6.483207E-04
5.255906E+03	7.778485E-03	6.476823E-04
5.265748E+03	7.768964E-03	6.468438E-04
5.275591E+03	7.756288E-03	6.457438E-04
5.285433E+03	7.741792E-03	6.444934E-04
5.295276E+03	7.724100E-03	6.429781E-04
5.305118E+03	7.703866E-03	6.412525E-04
5.314961E+03	7.681103E-03	6.393175E-04
5.324803E+03	7.655145E-03	6.371179E-04
5.334646E+03	7.627347E-03	6.347663E-04
5.344488E+03	7.596410E-03	6.321549E-04
5.354331E+03	7.563704E-03	6.293976E-04
5.364173E+03	7.527962E-03	6.263889E-04
5.374016E+03	7.489255E-03	6.231349E-04
5.383858E+03	7.448966E-03	6.197506E-04
5.393701E+03	7.406512E-03	6.161874E-04
5.403543E+03	7.361349E-03	6.124002E-04
5.413386E+03	7.314230E-03	6.084517E-04
5.423228E+03	7.265882E-03	6.044022E-04
5.433071E+03	7.215165E-03	6.001571E-04
5.442913E+03	7.162199E-03	5.957262E-04
5.452756E+03	7.108368E-03	5.912247E-04
5.462598E+03	7.052567E-03	5.865607E-04
5.472441E+03	6.996158E-03	5.818474E-04
5.482283E+03	6.938064E-03	5.769953E-04
5.492126E+03	6.879040E-03	5.720672E-04
5.501969E+03	6.819241E-03	5.670758E-04
5.511811E+03	6.758814E-03	5.620335E-04
5.521654E+03	6.697332E-03	5.569047E-04
5.531496E+03	6.636103E-03	5.517982E-04
5.541339E+03	6.574139E-03	5.466317E-04
5.551181E+03	6.512165E-03	5.414656E-04
5.561024E+03	6.450330E-03	5.363122E-04
5.570866E+03	6.388784E-03	5.311840E-04
5.580709E+03	6.327676E-03	5.260933E-04
5.590551E+03	6.267143E-03	5.210515E-04
5.600394E+03	6.206790E-03	5.160257E-04
5.610236E+03	6.147298E-03	5.110726E-04
5.620079E+03	6.089316E-03	5.062460E-04
5.629921E+03	6.031922E-03	5.014693E-04
5.639764E+03	5.975756E-03	4.967957E-04
5.649606E+03	5.920935E-03	4.922348E-04
5.659449E+03	5.867052E-03	4.877528E-04
5.669291E+03	5.815225E-03	4.834427E-04
5.679134E+03	5.764536E-03	4.792281E-04
5.688976E+03	5.716067E-03	4.751990E-04
5.698819E+03	5.668909E-03	4.712796E-04
5.708661E+03	5.623627E-03	4.675170E-04
5.718504E+03	5.580283E-03	4.639165E-04
5.728346E+03	5.538934E-03	4.604826E-04
5.738189E+03	5.499631E-03	4.572196E-04
5.748031E+03	5.461945E-03	4.540918E-04
5.757874E+03	5.426858E-03	4.511808E-04
5.767717E+03	5.393460E-03	4.484112E-04
5.777559E+03	5.362250E-03	4.458241E-04
5.787402E+03	5.333703E-03	4.434593E-04
5.797244E+03	5.306914E-03	4.412414E-04
5.807087E+03	5.282353E-03	4.392095E-04
5.816929E+03	5.260024E-03	4.373640E-04
5.826772E+03	5.239476E-03	4.356674E-04
5.836614E+03	5.221609E-03	4.341945E-04
5.846457E+03	5.205513E-03	4.328696E-04
5.856299E+03	5.192075E-03	4.317665E-04
5.866142E+03	5.180381E-03	4.308094E-04
5.875984E+03	5.170861E-03	4.300338E-04
5.885827E+03	5.163937E-03	4.294749E-04
5.895669E+03	5.158690E-03	4.290565E-04
5.905512E+03	5.155536E-03	4.288130E-04
5.915354E+03	5.153997E-03	4.287046E-04
5.925197E+03	5.154921E-03	4.288022E-04
5.935039E+03	5.157824E-03	4.290652E-04
5.944882E+03	5.162211E-03	4.294527E-04
5.954724E+03	5.168922E-03	4.300345E-04
5.964567E+03	5.177007E-03	4.307316E-04
5.974409E+03	5.187296E-03	4.316132E-04
5.984252E+03	5.198825E-03	4.325990E-04
5.994094E+03	5.211963E-03	4.337199E-04
6.003937E+03	5.226628E-03	4.349688E-04
6.013780E+03	5.242725E-03	4.363382E-04
6.023622E+03	5.260155E-03	4.378198E-04
6.033465E+03	5.278807E-03	4.394043E-04
6.043307E+03	5.298561E-03	4.410818E-04
6.053150E+03	5.318828E-03	4.428032E-04
6.062992E+03	5.340383E-03	4.446333E-04
6.072835E+03	5.362155E-03	4.464828E-04
6.082677E+03	5.384907E-03	4.484153E-04
6.092520E+03	5.407539E-03	4.503391E-04
6.102362E+03	5.430333E-03	4.522779E-04
6.112205E+03	5.453570E-03	4.542550E-04
6.122047E+03	5.476115E-03	4.561758E-04
6.131890E+03	5.498237E-03	4.580627E-04
6.141732E+03	5.519730E-03	4.598987E-04
6.151575E+03	5.540401E-03	4.616675E-04
6.161417E+03	5.560066E-03	4.633539E-04
6.171260E+03	5.578544E-03	4.649427E-04
6.181102E+03	5.595170E-03	4.663783E-04
6.190945E+03	5.610731E-03	4.677266E-04
6.200787E+03	5.624570E-03	4.689324E-04
6.210630E+03	5.636021E-03	4.699403E-04
6.220472E+03	5.645893E-03	4.708177E-04
6.230315E+03	5.653041E-03	4.714691E-04
6.240157E+03	5.658287E-03	4.719629E-04
6.250000E+03	5.660502E-03	4.722048E-04
6.259843E+03	5.660035E-03	4.722239E-04
6.269685E+03	5.656760E-03	4.720094E-04
6.279528E+03	5.651053E-03	4.715929E-04
6.289370E+03	5.641829E-03	4.708836E-04
6.299213E+03	5.629499E-03	4.699156E-04
6.309055E+03	5.613995E-03	4.686831E-04
6.318898E+03	5.595269E-03	4.671821E-04
6.328740E+03	5.573291E-03	4.654099E-04
6.338583E+03	5.548053E-03	4.633657E-04
6.348425E+03	5.519083E-03	4.610098E-04
6.358268E+03	5.487376E-03	4.584254E-04
6.368110E+03	5.452498E-03	4.555760E-04
6.377953E+03	5.414520E-03	4.524675E-04
6.387795E+03	5.373059E-03	4.490676E-04
6.397638E+03	5.329164E-03	4.454639E-04
6.407480E+03	5.282022E-03	4.415883E-04
6.417323E+03	5.232699E-03	4.375297E-04
6.427165E+03	5.180427E-03	4.332240E-04
6.437008E+03	5.126280E-03	4.287607E-04
6.446850E+03	5.069533E-03	4.240791E-04
6.456693E+03	5.011262E-03	4.192691E-04
6.466535E+03	4.950775E-03	4.142728E-04
6.476378E+03	4.888715E-03	4.091437E-04
6.486220E+03	4.825284E-03	4.038986E-04
6.496063E+03	4.760684E-03	3.985547E-04
6.505906E+03	4.695533E-03	3.931632E-04
6.515748E+03	4.629206E-03	3.876720E-04
6.525591E+03	4.562323E-03	3.821329E-04
6.535433E+03	4.495083E-03	3.765624E-04
6.545276E+03	4.427681E-03	3.709770E-04
6.555118E+03	4.360307E-03	3.653924E-04
6.564961E+03	4.293143E-03	3.598239E-04
6.574803E+03	4.226365E-03	3.542863E-04
6.584646E+03	4.159775E-03	3.487630E-04
6.594488E+03	4.094273E-03	3.433293E-04
6.604331E+03	4.029635E-03	3.379665E-04
6.614173E+03	3.966006E-03	3.326869E-04
6.624016E+03	3.903173E-03	3.274725E-04
6.633858E+03	3.841955E-03	3.223920E-04
6.643701E+03	3.782114E-03	3.174256E-04
6.653543E+03	3.723427E-03	3.125547E-04
6.663386E+03	3.666653E-03	3.078428E-04
6.673228E+03	3.611544E-03	3.032694E-04
6.683071E+03	3.557862E-03	2.988144E-04
6.692913E+03	3.506311E-03	2.945370E-04
6.702756E+03	3.456326E-03	2.903899E-04
6.712598E+03	3.408273E-03	2.864039E-04
6.722441E+03	3.362496E-03	2.826079E-04
6.732283E+03	3.318432E-03	2.789547E-04
6.742126E+03	3.276414E-03	2.754723E-04
6.751969E+03	3.236752E-03	2.721870E-04
6.761811E+03	3.198887E-03	2.690517E-04
6.771654E+03	3.163120E-03	2.660920E-04
6.781496E+03	3.129458E-03	2.633084E-04
6.791339E+03	3.097902E-03	2.607012E-04
6.801181E+03	3.068721E-03	2.582930E-04
6.811024E+03	3.041358E-03	2.560371E-04
6.820866E+03	3.016076E-03	2.539557E-04
6.830709E+03	2.992856E-03	2.520473E-04
6.840551E+03	2.971679E-03	2.503103E-04
6.850394E+03	2.952518E-03	2.487426E-04
6.860236E+03	2.935344E-03	2.473419E-04
6.870079E+03	2.919866E-03	2.460837E-04
6.879921E+03	2.906569E-03	2.450089E-04
6.889764E+03	2.895152E-03	2.440923E-04
6.899606E+03	2.885573E-03	2.433304E-04
6.909449E+03	2.877785E-03	2.427194E-04
6.919291E+03	2.871482E-03	2.422336E-04
6.929134E+03	2.867128E-03	2.419119E-04
6.938976E+03	2.864407E-03	2.417280E-04
6.948819E+03	2.863004E-03	2.416554E-04
6.958661E+03	2.863372E-03	2.417323E-04
6.968504E+03	2.864929E-03	2.419097E-04
6.978346E+03	2.868122E-03	2.422253E-04
6.988189E+03	2.872364E-03	2.426296E-04
6.998031E+03	2.878093E-03	2.431598E-04
7.007874E+03	2.884715E-03	2.437658E-04
7.017717E+03	2.892406E-03	2.444623E-04
7.027559E+03	2.901342E-03	2.452643E-04
7.037402E+03	2.910913E-03	2.461203E-04
7.047244E+03	2.921287E-03	2.470446E-04
7.057087E+03	2.932372E-03	2.480294E-04
7.066929E+03	2.944071E-03	2.490665E-04
7.076772E+03	2.956553E-03	2.501703E-04
7.086614E+03	2.969183E-03	2.512870E-04
7.096457E+03	2.982125E-03	2.524306E-04
7.106299E+03	2.995277E-03	2.535924E-04
7.116142E+03	3.008532E-03	2.547634E-04
7.125984E+03	3.021513E-03	2.559115E-04
7.135827E+03	3.034660E-03	2.570742E-04
7.145669E+03	3.047597E-03	2.582195E-04
7.155512E+03	3.060221E-03	2.593386E-04
7.165354E+03	3.072151E-03	2.603993E-04
7.175197E+03	3.083845E-03	2.614405E-04
7.185039E+03	3.094930E-03	2.624303E-04
7.194882E+03	3.105030E-03	2.633370E-04
7.204724E+03	3.114622E-03	2.642008E-04
7.214567E+03	3.123056E-03	2.649668E-04
7.224409E+03	3.130826E-03	2.656766E-04
7.234252E+03	3.137288E-03	2.662756E-04
7.244094E+03	3.142666E-03	2.667828E-04
7.253937E+03	3.146903E-03	2.671933E-04
7.263780E+03	3.150239E-03	2.675273E-04
7.273622E+03	3.152059E-03	2.677326E-04
7.283465E+03	3.152619E-03	2.678309E-04
7.293307E+03	3.151896E-03	2.678202E-04
7.303150E+03	3.149879E-03	2.676994E-04
7.312992E+03	3.146563E-03	2.674682E-04
7.322835E+03	3.141953E-03	2.671267E-04
7.332677E+03	3.135774E-03	2.666516E-04
7.342520E+03	3.128627E-03	2.660939E-04
7.352362E+03	3.120253E-03	2.654315E-04
7.362205E+03	3.110402E-03	2.646432E-04
7.372047E+03	3.099694E-03	2.637815E-04
7.381890E+03	3.087608E-03	2.628022E-04
7.391732E+03	3.074772E-03	2.617586E-04
7.401575E+03	3.060679E-03	2.606074E-04
7.411417E+03	3.045961E-03	2.594025E-04
7.421260E+03	3.030121E-03	2.581015E-04
7.431102E+03	3.013513E-03	2.567346E-04
7.440945E+03	2.996209E-03	2.553077E-04
7.450787E+03	2.978281E-03	2.538270E-04
7.460630E+03	2.959800E-03	2.522985E-04
7.470472E+03	2.940834E-03	2.507280E-04
7.480315E+03	2.921453E-03	2.491214E-04
7.490157E+03	2.901719E-03	2.474841E-04
7.500000E+03	2.881426E-03	2.457983E-04
7.509843E+03	2.861168E-03	2.441149E-04
7.519685E+03	2.840727E-03	2.424151E-04
7.529528E+03	2.819886E-03	2.406805E-04
7.539370E+03	2.799217E-03	2.389598E-04
7.549213E+03	2.778231E-03	2.372112E-04
7.559055E+03	2.757221E-03	2.354600E-04
7.568898E+03	2.736472E-03	2.337302E-04
7.578740E+03	2.715487E-03	2.319796E-04
7.588583E+03	2.694543E-03	2.302317E-04
7.598425E+03	2.673648E-03	2.284873E-04
7.608268E+03	2.652810E-03	2.267471E-04
7.618110E+03	2.632030E-03	2.250111E-04
7.627953E+03	2.611061E-03	2.232582E-04
7.637795E+03	2.590393E-03	2.215303E-04
