#wls	flux	fluxerr
1.574803E+03	8.881100E-04	2.436679E-04
1.614173E+03	9.091329E-04	2.494316E-04
1.653543E+03	9.310249E-04	2.554333E-04
1.692913E+03	9.538228E-04	2.616832E-04
1.732283E+03	9.777394E-04	2.682397E-04
1.771654E+03	1.002470E-03	2.750190E-04
1.811024E+03	1.028406E-03	2.821289E-04
1.850394E+03	1.055418E-03	2.895333E-04
1.889764E+03	1.083356E-03	2.971913E-04
1.929134E+03	1.112841E-03	3.052731E-04
1.968504E+03	1.143341E-03	3.136329E-04
2.007874E+03	1.175095E-03	3.223360E-04
2.047244E+03	1.208362E-03	3.314536E-04
2.086614E+03	1.242988E-03	3.409433E-04
2.125984E+03	1.279020E-03	3.508182E-04
2.165354E+03	1.316506E-03	3.610913E-04
2.204724E+03	1.355496E-03	3.717757E-04
2.244094E+03	1.396280E-03	3.829518E-04
2.283465E+03	1.438422E-03	3.944994E-04
2.322835E+03	1.482466E-03	4.065677E-04
2.362205E+03	1.528210E-03	4.191014E-04
2.401575E+03	1.575698E-03	4.321123E-04
2.440945E+03	1.625251E-03	4.456886E-04
2.480315E+03	1.676348E-03	4.596871E-04
2.519685E+03	1.729597E-03	4.742747E-04
2.559055E+03	1.784744E-03	4.893814E-04
2.598425E+03	1.841810E-03	5.050132E-04
2.637795E+03	1.900814E-03	5.211749E-04
2.677165E+03	1.962103E-03	5.379619E-04
2.716535E+03	2.025011E-03	5.551912E-04
2.755906E+03	2.090220E-03	5.730497E-04
2.795276E+03	2.157372E-03	5.914395E-04
2.834646E+03	2.226438E-03	6.103525E-04
2.874016E+03	2.297377E-03	6.297771E-04
2.913386E+03	2.370540E-03	6.498095E-04
2.952756E+03	2.445473E-03	6.703253E-04
2.962598E+03	2.464262E-03	6.754693E-04
2.972441E+03	2.483152E-03	6.806408E-04
2.982283E+03	2.502569E-03	6.859566E-04
2.992126E+03	2.521658E-03	6.911824E-04
3.001969E+03	2.541278E-03	6.965535E-04
3.011811E+03	2.560560E-03	7.018320E-04
3.021654E+03	2.580374E-03	7.072563E-04
3.031496E+03	2.599842E-03	7.125852E-04
3.041339E+03	2.619844E-03	7.180606E-04
3.051181E+03	2.639488E-03	7.234378E-04
3.061024E+03	2.659668E-03	7.289620E-04
3.070866E+03	2.679481E-03	7.343849E-04
3.080709E+03	2.699831E-03	7.399554E-04
3.090551E+03	2.719802E-03	7.454215E-04
3.100394E+03	2.740312E-03	7.510355E-04
3.110236E+03	2.760431E-03	7.565421E-04
3.120079E+03	2.781091E-03	7.621968E-04
3.129921E+03	2.801824E-03	7.678712E-04
3.139764E+03	2.822146E-03	7.734331E-04
3.149606E+03	2.843011E-03	7.791435E-04
3.159449E+03	2.863453E-03	7.847381E-04
3.169291E+03	2.884439E-03	7.904812E-04
3.179134E+03	2.905481E-03	7.962398E-04
3.188976E+03	2.926081E-03	8.018771E-04
3.198819E+03	2.947223E-03	8.076629E-04
3.208661E+03	2.967910E-03	8.133237E-04
3.218504E+03	2.989139E-03	8.191329E-04
3.228346E+03	3.010408E-03	8.249529E-04
3.238189E+03	3.031199E-03	8.306420E-04
3.248031E+03	3.052532E-03	8.364792E-04
3.257874E+03	3.073892E-03	8.423237E-04
3.267717E+03	3.094753E-03	8.480313E-04
3.277559E+03	3.116152E-03	8.538863E-04
3.287402E+03	3.137567E-03	8.597455E-04
3.297244E+03	3.158459E-03	8.654613E-04
3.307087E+03	3.179887E-03	8.713237E-04
3.316929E+03	3.201316E-03	8.771864E-04
3.326772E+03	3.222742E-03	8.830480E-04
3.336614E+03	3.243614E-03	8.887577E-04
3.346457E+03	3.265016E-03	8.946124E-04
3.356299E+03	3.286400E-03	9.004620E-04
3.366142E+03	3.307204E-03	9.061528E-04
3.375984E+03	3.328533E-03	9.119871E-04
3.385827E+03	3.349828E-03	9.178120E-04
3.395669E+03	3.371085E-03	9.236263E-04
3.405512E+03	3.391728E-03	9.292720E-04
3.415354E+03	3.412886E-03	9.350590E-04
3.425197E+03	3.433988E-03	9.408305E-04
3.435039E+03	3.455029E-03	9.465849E-04
3.444882E+03	3.475420E-03	9.521612E-04
3.454724E+03	3.496316E-03	9.578758E-04
3.464567E+03	3.517133E-03	9.635684E-04
3.474409E+03	3.537863E-03	9.692372E-04
3.484252E+03	3.558501E-03	9.748806E-04
3.494094E+03	3.578442E-03	9.803330E-04
3.503937E+03	3.598873E-03	9.859194E-04
3.513780E+03	3.619192E-03	9.914750E-04
3.523622E+03	3.639393E-03	9.969980E-04
3.533465E+03	3.658857E-03	1.002319E-03
3.543307E+03	3.678797E-03	1.007771E-03
3.553150E+03	3.698598E-03	1.013184E-03
3.562992E+03	3.718252E-03	1.018557E-03
3.572835E+03	3.737754E-03	1.023887E-03
3.582677E+03	3.757094E-03	1.029174E-03
3.592520E+03	3.775639E-03	1.034242E-03
3.602362E+03	3.794633E-03	1.039434E-03
3.612205E+03	3.813445E-03	1.044575E-03
3.622047E+03	3.832066E-03	1.049664E-03
3.631890E+03	3.850489E-03	1.054699E-03
3.641732E+03	3.868065E-03	1.059501E-03
3.651575E+03	3.886066E-03	1.064420E-03
3.661417E+03	3.903846E-03	1.069278E-03
3.671260E+03	3.921397E-03	1.074073E-03
3.681102E+03	3.938710E-03	1.078803E-03
3.690945E+03	3.955778E-03	1.083466E-03
3.700787E+03	3.971935E-03	1.087879E-03
3.710630E+03	3.988484E-03	1.092400E-03
3.720472E+03	4.004765E-03	1.096847E-03
3.730315E+03	4.020766E-03	1.101217E-03
3.740157E+03	4.036481E-03	1.105508E-03
3.750000E+03	4.051231E-03	1.109536E-03
3.759843E+03	4.066345E-03	1.113663E-03
3.769685E+03	4.081146E-03	1.117704E-03
3.779528E+03	4.095627E-03	1.121657E-03
3.789370E+03	4.109778E-03	1.125520E-03
3.799213E+03	4.122912E-03	1.129104E-03
3.809055E+03	4.136376E-03	1.132778E-03
3.818898E+03	4.149485E-03	1.136356E-03
3.828740E+03	4.162229E-03	1.139833E-03
3.838583E+03	4.174601E-03	1.143208E-03
3.848425E+03	4.186590E-03	1.146478E-03
3.858268E+03	4.197499E-03	1.149453E-03
3.868110E+03	4.208696E-03	1.152506E-03
3.877953E+03	4.219484E-03	1.155447E-03
3.887795E+03	4.229855E-03	1.158274E-03
3.897638E+03	4.239800E-03	1.160984E-03
3.907480E+03	4.248613E-03	1.163384E-03
3.917323E+03	4.257677E-03	1.165853E-03
3.927165E+03	4.266287E-03	1.168198E-03
3.937008E+03	4.274436E-03	1.170416E-03
3.946850E+03	4.281413E-03	1.172314E-03
3.956693E+03	4.288611E-03	1.174271E-03
3.966535E+03	4.295319E-03	1.176095E-03
3.976378E+03	4.301530E-03	1.177782E-03
3.986220E+03	4.306532E-03	1.179139E-03
3.996063E+03	4.311721E-03	1.180547E-03
4.005906E+03	4.316386E-03	1.181811E-03
4.015748E+03	4.320520E-03	1.182929E-03
4.025591E+03	4.323407E-03	1.183707E-03
4.035433E+03	4.326450E-03	1.184527E-03
4.045276E+03	4.328935E-03	1.185194E-03
4.055118E+03	4.330853E-03	1.185706E-03
4.064961E+03	4.331492E-03	1.185868E-03
4.074803E+03	4.332253E-03	1.186063E-03
4.084646E+03	4.332423E-03	1.186097E-03
4.094488E+03	4.331290E-03	1.185774E-03
4.104331E+03	4.330255E-03	1.185477E-03
4.114173E+03	4.328605E-03	1.185013E-03
4.124016E+03	4.325630E-03	1.184186E-03
4.133858E+03	4.322727E-03	1.183378E-03
4.143701E+03	4.319188E-03	1.182397E-03
4.153543E+03	4.314305E-03	1.181047E-03
4.163386E+03	4.309470E-03	1.179711E-03
4.173228E+03	4.303977E-03	1.178194E-03
4.183071E+03	4.297123E-03	1.176306E-03
4.192913E+03	4.290293E-03	1.174424E-03
4.202756E+03	4.282093E-03	1.172166E-03
4.212598E+03	4.273902E-03	1.169912E-03
4.222441E+03	4.265022E-03	1.167469E-03
4.232283E+03	4.254758E-03	1.164647E-03
4.242126E+03	4.244481E-03	1.161822E-03
4.251969E+03	4.232815E-03	1.158617E-03
4.261811E+03	4.221123E-03	1.155404E-03
4.271654E+03	4.208036E-03	1.151810E-03
4.281496E+03	4.194909E-03	1.148205E-03
4.291339E+03	4.181057E-03	1.144402E-03
4.301181E+03	4.165806E-03	1.140216E-03
4.311024E+03	4.150496E-03	1.136014E-03
4.320866E+03	4.133787E-03	1.131429E-03
4.330709E+03	4.117006E-03	1.126825E-03
4.340551E+03	4.098827E-03	1.121838E-03
4.350394E+03	4.079910E-03	1.116650E-03
4.360236E+03	4.060908E-03	1.111438E-03
4.370079E+03	4.040511E-03	1.105844E-03
4.379921E+03	4.020017E-03	1.100225E-03
4.389764E+03	3.998132E-03	1.094224E-03
4.399606E+03	3.976142E-03	1.088196E-03
4.409449E+03	3.952765E-03	1.081787E-03
4.419291E+03	3.928642E-03	1.075175E-03
4.429134E+03	3.904397E-03	1.068530E-03
4.438976E+03	3.878772E-03	1.061507E-03
4.448819E+03	3.853008E-03	1.054446E-03
4.458661E+03	3.825863E-03	1.047008E-03
4.468504E+03	3.797948E-03	1.039359E-03
4.478346E+03	3.769852E-03	1.031661E-03
4.488189E+03	3.740343E-03	1.023576E-03
4.498031E+03	3.710001E-03	1.015264E-03
4.507874E+03	3.678785E-03	1.006712E-03
4.517717E+03	3.647231E-03	9.980685E-04
4.527559E+03	3.614115E-03	9.889976E-04
4.537402E+03	3.579973E-03	9.796461E-04
4.547244E+03	3.544761E-03	9.700021E-04
4.557087E+03	3.509014E-03	9.602120E-04
4.566929E+03	3.471611E-03	9.499690E-04
4.576772E+03	3.433160E-03	9.394393E-04
4.586614E+03	3.393745E-03	9.286462E-04
4.596457E+03	3.353497E-03	9.176256E-04
4.606299E+03	3.313120E-03	9.065697E-04
4.616142E+03	3.271761E-03	8.952456E-04
4.625984E+03	3.230194E-03	8.838644E-04
4.635827E+03	3.188674E-03	8.724968E-04
4.645669E+03	3.147468E-03	8.612151E-04
4.655512E+03	3.106843E-03	8.500927E-04
4.665354E+03	3.067060E-03	8.392010E-04
4.675197E+03	3.028370E-03	8.286084E-04
4.685039E+03	2.991008E-03	8.183797E-04
4.694882E+03	2.955192E-03	8.085740E-04
4.704724E+03	2.921119E-03	7.992455E-04
4.714567E+03	2.888967E-03	7.904429E-04
4.724409E+03	2.858892E-03	7.822086E-04
4.734252E+03	2.831030E-03	7.745798E-04
4.744094E+03	2.805494E-03	7.675878E-04
4.753937E+03	2.782383E-03	7.612595E-04
4.763780E+03	2.761775E-03	7.556162E-04
4.773622E+03	2.743737E-03	7.506760E-04
4.783465E+03	2.728320E-03	7.464530E-04
4.793307E+03	2.715565E-03	7.429584E-04
4.803150E+03	2.705501E-03	7.402005E-04
4.812992E+03	2.698154E-03	7.381856E-04
4.822835E+03	2.693111E-03	7.368013E-04
4.832677E+03	2.691231E-03	7.362826E-04
4.842520E+03	2.692088E-03	7.365124E-04
4.852362E+03	2.695667E-03	7.374874E-04
4.862205E+03	2.701948E-03	7.392011E-04
4.872047E+03	2.710464E-03	7.415268E-04
4.881890E+03	2.722022E-03	7.446845E-04
4.891732E+03	2.736133E-03	7.485407E-04
4.901575E+03	2.752720E-03	7.530744E-04
4.911417E+03	2.771255E-03	7.581407E-04
4.921260E+03	2.792495E-03	7.639472E-04
4.931102E+03	2.815873E-03	7.703386E-04
4.940945E+03	2.840782E-03	7.771490E-04
4.950787E+03	2.867928E-03	7.845712E-04
4.960630E+03	2.896654E-03	7.924255E-04
4.970472E+03	2.926254E-03	8.005190E-04
4.980315E+03	2.957379E-03	8.090296E-04
4.990157E+03	2.988821E-03	8.176269E-04
5.000000E+03	3.021233E-03	8.264898E-04
5.009843E+03	3.053410E-03	8.352879E-04
5.019685E+03	3.086081E-03	8.442215E-04
5.029528E+03	3.118115E-03	8.529807E-04
5.039370E+03	3.150388E-03	8.618053E-04
5.049213E+03	3.181879E-03	8.704158E-04
5.059055E+03	3.213597E-03	8.790886E-04
5.068898E+03	3.244579E-03	8.875598E-04
5.078740E+03	3.275877E-03	8.961176E-04
5.088583E+03	3.306477E-03	9.044842E-04
5.098425E+03	3.337360E-03	9.129287E-04
5.108268E+03	3.367368E-03	9.211333E-04
5.118110E+03	3.396823E-03	9.291871E-04
5.127953E+03	3.425999E-03	9.371644E-04
5.137795E+03	3.453495E-03	9.446820E-04
5.147638E+03	3.479466E-03	9.517826E-04
5.157480E+03	3.504057E-03	9.585058E-04
5.167323E+03	3.525763E-03	9.644396E-04
5.177165E+03	3.544743E-03	9.696280E-04
5.187008E+03	3.561213E-03	9.741296E-04
5.196850E+03	3.573775E-03	9.775625E-04
5.206693E+03	3.582774E-03	9.800207E-04
5.216535E+03	3.588063E-03	9.814641E-04
5.226378E+03	3.589562E-03	9.818709E-04
5.236220E+03	3.587805E-03	9.813872E-04
5.246063E+03	3.581684E-03	9.797097E-04
5.255906E+03	3.571811E-03	9.770063E-04
5.265748E+03	3.558273E-03	9.733001E-04
5.275591E+03	3.541180E-03	9.686219E-04
5.285433E+03	3.520675E-03	9.630104E-04
5.295276E+03	3.496928E-03	9.565122E-04
5.305118E+03	3.470139E-03	9.491820E-04
5.314961E+03	3.440537E-03	9.410825E-04
5.324803E+03	3.408379E-03	9.322838E-04
5.334646E+03	3.373943E-03	9.228625E-04
5.344488E+03	3.337529E-03	9.128998E-04
5.354331E+03	3.299440E-03	9.024795E-04
5.364173E+03	3.259982E-03	8.916847E-04
5.374016E+03	3.219447E-03	8.805952E-04
5.383858E+03	3.178102E-03	8.692845E-04
5.393701E+03	3.136184E-03	8.578173E-04
5.403543E+03	3.093890E-03	8.462472E-04
5.413386E+03	3.051375E-03	8.346165E-04
5.423228E+03	3.008744E-03	8.229544E-04
5.433071E+03	2.966056E-03	8.112770E-04
5.442913E+03	2.923323E-03	7.995872E-04
5.452756E+03	2.880506E-03	7.878746E-04
5.462598E+03	2.837080E-03	7.759955E-04
5.472441E+03	2.793815E-03	7.641604E-04
5.482283E+03	2.750107E-03	7.522042E-04
5.492126E+03	2.705779E-03	7.400788E-04
5.501969E+03	2.660236E-03	7.276210E-04
5.511811E+03	2.614140E-03	7.150121E-04
5.521654E+03	2.566925E-03	7.020969E-04
5.531496E+03	2.518494E-03	6.888495E-04
5.541339E+03	2.468432E-03	6.751560E-04
5.551181E+03	2.417560E-03	6.612410E-04
5.561024E+03	2.365606E-03	6.470303E-04
5.570866E+03	2.312405E-03	6.324784E-04
5.580709E+03	2.258939E-03	6.178541E-04
5.590551E+03	2.205133E-03	6.031371E-04
5.600394E+03	2.150975E-03	5.883236E-04
5.610236E+03	2.097471E-03	5.736890E-04
5.620079E+03	2.044285E-03	5.591416E-04
5.629921E+03	1.992371E-03	5.449424E-04
5.639764E+03	1.941693E-03	5.310808E-04
5.649606E+03	1.892214E-03	5.175476E-04
5.659449E+03	1.844762E-03	5.045686E-04
5.669291E+03	1.798951E-03	4.920387E-04
5.679134E+03	1.755519E-03	4.801595E-04
5.688976E+03	1.714054E-03	4.688183E-04
5.698819E+03	1.675212E-03	4.581945E-04
5.708661E+03	1.638553E-03	4.481679E-04
5.718504E+03	1.604408E-03	4.388288E-04
5.728346E+03	1.573060E-03	4.302547E-04
5.738189E+03	1.544029E-03	4.223147E-04
5.748031E+03	1.517795E-03	4.151396E-04
5.757874E+03	1.493854E-03	4.085917E-04
5.767717E+03	1.472402E-03	4.027244E-04
5.777559E+03	1.453602E-03	3.975827E-04
5.787402E+03	1.436927E-03	3.930221E-04
5.797244E+03	1.422742E-03	3.891428E-04
5.807087E+03	1.410512E-03	3.857980E-04
5.816929E+03	1.400360E-03	3.830218E-04
5.826772E+03	1.392183E-03	3.807858E-04
5.836614E+03	1.386089E-03	3.791194E-04
5.846457E+03	1.381534E-03	3.778743E-04
5.856299E+03	1.378629E-03	3.770801E-04
5.866142E+03	1.377267E-03	3.767083E-04
5.875984E+03	1.377568E-03	3.767914E-04
5.885827E+03	1.379025E-03	3.771907E-04
5.895669E+03	1.381794E-03	3.779486E-04
5.905512E+03	1.385840E-03	3.790561E-04
5.915354E+03	1.391159E-03	3.805119E-04
5.925197E+03	1.398002E-03	3.823843E-04
5.935039E+03	1.406001E-03	3.845732E-04
5.944882E+03	1.415480E-03	3.871670E-04
5.954724E+03	1.426587E-03	3.902060E-04
5.964567E+03	1.439507E-03	3.937409E-04
5.974409E+03	1.454462E-03	3.978327E-04
5.984252E+03	1.471714E-03	4.025526E-04
5.994094E+03	1.491554E-03	4.079807E-04
6.003937E+03	1.514542E-03	4.142698E-04
6.013780E+03	1.540562E-03	4.213884E-04
6.023622E+03	1.570224E-03	4.295033E-04
6.033465E+03	1.603927E-03	4.387234E-04
6.043307E+03	1.642086E-03	4.491627E-04
6.053150E+03	1.685134E-03	4.609394E-04
6.062992E+03	1.733517E-03	4.741758E-04
6.072835E+03	1.787692E-03	4.889962E-04
6.082677E+03	1.848119E-03	5.055272E-04
6.092520E+03	1.915263E-03	5.238956E-04
6.102362E+03	1.989582E-03	5.442270E-04
6.112205E+03	2.071194E-03	5.665534E-04
6.122047E+03	2.161131E-03	5.911575E-04
6.131890E+03	2.259426E-03	6.180482E-04
6.141732E+03	2.366332E-03	6.472944E-04
6.151575E+03	2.481970E-03	6.789298E-04
6.161417E+03	2.606292E-03	7.129410E-04
6.171260E+03	2.739029E-03	7.492545E-04
6.181102E+03	2.879642E-03	7.877228E-04
6.190945E+03	3.027270E-03	8.281109E-04
6.200787E+03	3.180196E-03	8.699486E-04
6.210630E+03	3.337763E-03	9.130565E-04
6.220472E+03	3.497464E-03	9.567487E-04
6.230315E+03	3.656850E-03	1.000355E-03
6.240157E+03	3.813090E-03	1.043102E-03
6.250000E+03	3.962424E-03	1.083960E-03
6.259843E+03	4.102720E-03	1.122346E-03
6.269685E+03	4.230002E-03	1.157173E-03
6.279528E+03	4.341041E-03	1.187557E-03
6.289370E+03	4.432262E-03	1.212519E-03
6.299213E+03	4.502689E-03	1.231794E-03
6.309055E+03	4.549991E-03	1.244743E-03
6.318898E+03	4.573283E-03	1.251123E-03
6.328740E+03	4.571753E-03	1.250713E-03
6.338583E+03	4.547468E-03	1.244078E-03
6.348425E+03	4.501013E-03	1.231378E-03
6.358268E+03	4.433532E-03	1.212925E-03
6.368110E+03	4.348651E-03	1.189712E-03
6.377953E+03	4.248167E-03	1.162230E-03
6.387795E+03	4.134065E-03	1.131022E-03
6.397638E+03	4.010293E-03	1.097167E-03
6.407480E+03	3.878740E-03	1.061184E-03
6.417323E+03	3.741210E-03	1.023565E-03
6.427165E+03	3.601041E-03	9.852236E-04
6.437008E+03	3.458983E-03	9.463647E-04
6.446850E+03	3.317739E-03	9.077279E-04
6.456693E+03	3.177580E-03	8.693875E-04
6.466535E+03	3.040578E-03	8.319105E-04
6.476378E+03	2.907044E-03	7.953817E-04
6.486220E+03	2.777170E-03	7.598538E-04
6.496063E+03	2.652294E-03	7.256927E-04
6.505906E+03	2.531886E-03	6.927537E-04
6.515748E+03	2.416959E-03	6.613137E-04
6.525591E+03	2.306859E-03	6.311942E-04
6.535433E+03	2.202370E-03	6.026095E-04
6.545276E+03	2.102782E-03	5.753653E-04
6.555118E+03	2.008712E-03	5.496304E-04
6.564961E+03	1.919425E-03	5.252040E-04
6.574803E+03	1.835407E-03	5.022190E-04
6.584646E+03	1.755920E-03	4.804732E-04
6.594488E+03	1.681083E-03	4.599996E-04
6.604331E+03	1.610952E-03	4.408134E-04
6.614173E+03	1.544810E-03	4.227184E-04
6.624016E+03	1.482942E-03	4.057925E-04
6.633858E+03	1.424670E-03	3.898506E-04
6.643701E+03	1.370251E-03	3.749627E-04
6.653543E+03	1.319063E-03	3.609586E-04
6.663386E+03	1.271151E-03	3.478509E-04
6.673228E+03	1.226547E-03	3.356479E-04
6.683071E+03	1.184713E-03	3.242030E-04
6.692913E+03	1.145718E-03	3.135347E-04
6.702756E+03	1.109614E-03	3.036576E-04
6.712598E+03	1.075946E-03	2.944468E-04
6.722441E+03	1.044797E-03	2.859250E-04
6.732283E+03	1.016237E-03	2.781119E-04
6.742126E+03	9.898689E-04	2.708983E-04
6.751969E+03	9.657818E-04	2.643089E-04
6.761811E+03	9.440569E-04	2.583659E-04
6.771654E+03	9.243341E-04	2.529706E-04
6.781496E+03	9.067072E-04	2.481489E-04
6.791339E+03	8.911231E-04	2.438862E-04
6.801181E+03	8.776714E-04	2.402071E-04
6.811024E+03	8.660321E-04	2.370239E-04
6.820866E+03	8.563080E-04	2.343648E-04
6.830709E+03	8.484672E-04	2.322211E-04
6.840551E+03	8.426159E-04	2.306219E-04
6.850394E+03	8.384699E-04	2.294895E-04
6.860236E+03	8.361486E-04	2.288564E-04
6.870079E+03	8.356433E-04	2.287204E-04
6.879921E+03	8.369502E-04	2.290804E-04
6.889764E+03	8.402018E-04	2.299727E-04
6.899606E+03	8.451417E-04	2.313271E-04
6.909449E+03	8.519098E-04	2.331820E-04
6.919291E+03	8.605177E-04	2.355405E-04
6.929134E+03	8.709815E-04	2.384070E-04
6.938976E+03	8.833192E-04	2.417866E-04
6.948819E+03	8.975529E-04	2.456852E-04
6.958661E+03	9.138496E-04	2.501486E-04
6.968504E+03	9.319546E-04	2.551071E-04
6.978346E+03	9.520386E-04	2.606074E-04
6.988189E+03	9.741358E-04	2.666590E-04
6.998031E+03	9.982817E-04	2.732714E-04
7.007874E+03	1.024514E-03	2.804552E-04
7.017717E+03	1.052873E-03	2.882214E-04
7.027559E+03	1.083399E-03	2.965807E-04
7.037402E+03	1.116132E-03	3.055445E-04
7.047244E+03	1.151110E-03	3.151230E-04
7.057087E+03	1.188368E-03	3.253261E-04
7.066929E+03	1.227937E-03	3.361619E-04
7.076772E+03	1.269841E-03	3.476372E-04
7.086614E+03	1.314096E-03	3.597565E-04
7.096457E+03	1.360711E-03	3.725219E-04
7.106299E+03	1.409684E-03	3.859330E-04
7.116142E+03	1.461003E-03	3.999870E-04
7.125984E+03	1.514647E-03	4.146777E-04
7.135827E+03	1.570584E-03	4.299967E-04
7.145669E+03	1.628773E-03	4.459323E-04
7.155512E+03	1.689159E-03	4.624698E-04
7.165354E+03	1.751676E-03	4.795912E-04
7.175197E+03	1.816243E-03	4.972741E-04
7.185039E+03	1.882760E-03	5.154911E-04
7.194882E+03	1.951099E-03	5.342078E-04
7.204724E+03	2.021104E-03	5.533808E-04
7.214567E+03	2.092570E-03	5.729542E-04
7.224409E+03	2.165238E-03	5.928570E-04
7.234252E+03	2.238420E-03	6.129012E-04
7.244094E+03	2.312383E-03	6.331596E-04
7.253937E+03	2.386254E-03	6.533930E-04
7.263780E+03	2.459375E-03	6.734215E-04
7.273622E+03	2.530963E-03	6.930309E-04
7.283465E+03	2.600110E-03	7.119722E-04
7.293307E+03	2.665791E-03	7.299648E-04
7.303150E+03	2.726464E-03	7.465864E-04
7.312992E+03	2.781809E-03	7.617492E-04
7.322835E+03	2.830234E-03	7.750176E-04
7.332677E+03	2.870628E-03	7.860870E-04
7.342520E+03	2.902000E-03	7.946860E-04
7.352362E+03	2.923085E-03	8.004683E-04
7.362205E+03	2.934234E-03	8.035297E-04
7.372047E+03	2.934700E-03	8.036654E-04
7.381890E+03	2.924483E-03	8.008757E-04
7.391732E+03	2.903421E-03	7.951159E-04
7.401575E+03	2.873002E-03	7.867936E-04
7.411417E+03	2.833574E-03	7.760039E-04
7.421260E+03	2.786145E-03	7.630227E-04
7.431102E+03	2.731438E-03	7.480481E-04
7.440945E+03	2.671570E-03	7.316599E-04
7.450787E+03	2.607387E-03	7.140894E-04
7.460630E+03	2.539760E-03	6.955752E-04
7.470472E+03	2.470716E-03	6.766729E-04
7.480315E+03	2.400971E-03	6.575778E-04
7.490157E+03	2.331163E-03	6.384654E-04
7.500000E+03	2.262923E-03	6.197817E-04
7.509843E+03	2.196615E-03	6.016271E-04
7.519685E+03	2.132515E-03	5.840767E-04
7.529528E+03	2.071788E-03	5.674497E-04
7.539370E+03	2.014439E-03	5.517478E-04
7.549213E+03	1.960399E-03	5.369518E-04
7.559055E+03	1.910429E-03	5.232703E-04
7.568898E+03	1.863960E-03	5.105473E-04
7.578740E+03	1.821554E-03	4.989372E-04
7.588583E+03	1.782818E-03	4.883319E-04
7.598425E+03	1.747335E-03	4.786175E-04
7.608268E+03	1.715490E-03	4.698993E-04
7.618110E+03	1.686532E-03	4.619719E-04
7.627953E+03	1.660778E-03	4.549218E-04
7.637795E+03	1.637453E-03	4.485371E-04
