#wls	flux	fluxerr
1.600000E+03	1.857483E-16	1.621714E-17
1.640000E+03	1.913698E-16	1.661964E-17
1.680000E+03	1.973555E-16	1.704603E-17
1.720000E+03	2.037949E-16	1.750321E-17
1.760000E+03	2.106825E-16	1.798977E-17
1.800000E+03	2.180502E-16	1.850741E-17
1.840000E+03	2.259469E-16	1.905921E-17
1.880000E+03	2.343838E-16	1.964488E-17
1.920000E+03	2.433891E-16	2.026553E-17
1.960000E+03	2.529903E-16	2.092205E-17
2.000000E+03	2.631758E-16	2.161201E-17
2.040000E+03	2.739888E-16	2.233744E-17
2.080000E+03	2.853781E-16	2.309253E-17
2.120000E+03	2.972913E-16	2.387147E-17
2.160000E+03	3.096937E-16	2.466989E-17
2.200000E+03	3.224939E-16	2.547903E-17
2.240000E+03	3.355455E-16	2.628595E-17
2.280000E+03	3.488481E-16	2.708944E-17
2.320000E+03	3.623638E-16	2.788536E-17
2.360000E+03	3.761986E-16	2.868060E-17
2.400000E+03	3.904726E-16	2.948281E-17
2.440000E+03	4.053019E-16	3.029890E-17
2.480000E+03	4.208157E-16	3.113636E-17
2.520000E+03	4.370665E-16	3.199660E-17
2.560000E+03	4.541725E-16	3.288553E-17
2.600000E+03	4.721580E-16	3.380187E-17
2.640000E+03	4.910597E-16	3.474503E-17
2.680000E+03	5.108737E-16	3.571140E-17
2.720000E+03	5.316089E-16	3.669811E-17
2.760000E+03	5.532339E-16	3.769944E-17
2.800000E+03	5.756960E-16	3.870824E-17
2.840000E+03	5.989719E-16	3.971944E-17
2.880000E+03	6.230160E-16	4.072646E-17
2.920000E+03	6.478275E-16	4.172576E-17
2.960000E+03	6.734316E-16	4.271531E-17
3.000000E+03	6.998770E-16	4.369445E-17
3.010000E+03	7.066227E-16	4.393733E-17
3.020000E+03	7.134269E-16	4.417960E-17
3.030000E+03	7.202876E-16	4.442109E-17
3.040000E+03	7.272190E-16	4.466261E-17
3.050000E+03	7.342032E-16	4.490297E-17
3.060000E+03	7.412387E-16	4.514202E-17
3.070000E+03	7.483547E-16	4.538148E-17
3.080000E+03	7.555180E-16	4.561924E-17
3.090000E+03	7.627579E-16	4.585703E-17
3.100000E+03	7.700567E-16	4.609367E-17
3.110000E+03	7.774124E-16	4.632900E-17
3.120000E+03	7.848539E-16	4.656466E-17
3.130000E+03	7.923480E-16	4.679860E-17
3.140000E+03	7.999082E-16	4.703153E-17
3.150000E+03	8.075319E-16	4.726324E-17
3.160000E+03	8.152326E-16	4.749444E-17
3.170000E+03	8.229925E-16	4.772401E-17
3.180000E+03	8.308246E-16	4.795263E-17
3.190000E+03	8.387265E-16	4.818007E-17
3.200000E+03	8.466807E-16	4.840526E-17
3.210000E+03	8.547001E-16	4.862887E-17
3.220000E+03	8.627971E-16	4.885152E-17
3.230000E+03	8.709396E-16	4.907131E-17
3.240000E+03	8.791548E-16	4.928971E-17
3.250000E+03	8.874107E-16	4.950485E-17
3.260000E+03	8.957492E-16	4.971900E-17
3.270000E+03	9.041238E-16	4.992950E-17
3.280000E+03	9.125467E-16	5.013697E-17
3.290000E+03	9.210301E-16	5.034200E-17
3.300000E+03	9.295571E-16	5.054362E-17
3.310000E+03	9.381398E-16	5.074241E-17
3.320000E+03	9.467469E-16	5.093662E-17
3.330000E+03	9.553906E-16	5.112686E-17
3.340000E+03	9.640687E-16	5.131297E-17
3.350000E+03	9.727790E-16	5.149477E-17
3.360000E+03	9.815193E-16	5.167211E-17
3.370000E+03	9.902733E-16	5.184408E-17
3.380000E+03	9.990382E-16	5.201050E-17
3.390000E+03	1.007813E-15	5.217131E-17
3.400000E+03	1.016596E-15	5.232639E-17
3.410000E+03	1.025372E-15	5.247487E-17
3.420000E+03	1.034137E-15	5.261667E-17
3.430000E+03	1.042892E-15	5.275173E-17
3.440000E+03	1.051620E-15	5.287924E-17
3.450000E+03	1.060321E-15	5.299916E-17
3.460000E+03	1.068992E-15	5.311142E-17
3.470000E+03	1.077608E-15	5.321471E-17
3.480000E+03	1.086178E-15	5.330961E-17
3.490000E+03	1.094691E-15	5.339553E-17
3.500000E+03	1.103131E-15	5.347179E-17
3.510000E+03	1.111498E-15	5.353841E-17
3.520000E+03	1.119765E-15	5.359421E-17
3.530000E+03	1.127934E-15	5.363930E-17
3.540000E+03	1.135990E-15	5.367312E-17
3.550000E+03	1.143922E-15	5.369522E-17
3.560000E+03	1.151718E-15	5.370516E-17
3.570000E+03	1.159365E-15	5.370243E-17
3.580000E+03	1.166840E-15	5.368616E-17
3.590000E+03	1.174144E-15	5.365651E-17
3.600000E+03	1.181253E-15	5.361262E-17
3.610000E+03	1.188171E-15	5.355478E-17
3.620000E+03	1.194861E-15	5.348159E-17
3.630000E+03	1.201340E-15	5.339393E-17
3.640000E+03	1.207560E-15	5.328999E-17
3.650000E+03	1.213525E-15	5.317016E-17
3.660000E+03	1.219215E-15	5.303382E-17
3.670000E+03	1.224632E-15	5.288137E-17
3.680000E+03	1.229746E-15	5.271171E-17
3.690000E+03	1.234561E-15	5.252538E-17
3.700000E+03	1.239058E-15	5.232185E-17
3.710000E+03	1.243241E-15	5.210166E-17
3.720000E+03	1.247093E-15	5.186442E-17
3.730000E+03	1.250630E-15	5.161108E-17
3.740000E+03	1.253824E-15	5.134085E-17
3.750000E+03	1.256691E-15	5.105476E-17
3.760000E+03	1.259226E-15	5.075290E-17
3.770000E+03	1.261435E-15	5.043593E-17
3.780000E+03	1.263313E-15	5.010395E-17
3.790000E+03	1.264879E-15	4.975805E-17
3.800000E+03	1.266115E-15	4.939788E-17
3.810000E+03	1.267039E-15	4.902454E-17
3.820000E+03	1.267659E-15	4.863863E-17
3.830000E+03	1.267981E-15	4.824074E-17
3.840000E+03	1.268014E-15	4.783151E-17
3.850000E+03	1.267754E-15	4.741112E-17
3.860000E+03	1.267230E-15	4.698098E-17
3.870000E+03	1.266450E-15	4.654172E-17
3.880000E+03	1.265414E-15	4.609356E-17
3.890000E+03	1.264138E-15	4.563746E-17
3.900000E+03	1.262635E-15	4.517410E-17
3.910000E+03	1.260921E-15	4.470440E-17
3.920000E+03	1.259000E-15	4.422865E-17
3.930000E+03	1.256901E-15	4.374821E-17
3.940000E+03	1.254625E-15	4.326327E-17
3.950000E+03	1.252204E-15	4.277520E-17
3.960000E+03	1.249640E-15	4.228424E-17
3.970000E+03	1.246945E-15	4.179102E-17
3.980000E+03	1.244155E-15	4.129688E-17
3.990000E+03	1.241271E-15	4.080202E-17
4.000000E+03	1.238319E-15	4.030746E-17
4.010000E+03	1.235312E-15	3.981375E-17
4.020000E+03	1.232280E-15	3.932190E-17
4.030000E+03	1.229236E-15	3.883249E-17
4.040000E+03	1.226198E-15	3.834610E-17
4.050000E+03	1.223195E-15	3.786371E-17
4.060000E+03	1.220254E-15	3.738620E-17
4.070000E+03	1.217375E-15	3.691358E-17
4.080000E+03	1.214606E-15	3.644730E-17
4.090000E+03	1.211949E-15	3.598738E-17
4.100000E+03	1.209444E-15	3.553498E-17
4.110000E+03	1.207101E-15	3.509033E-17
4.120000E+03	1.204952E-15	3.465425E-17
4.130000E+03	1.203017E-15	3.422725E-17
4.140000E+03	1.201318E-15	3.380983E-17
4.150000E+03	1.199873E-15	3.340237E-17
4.160000E+03	1.198705E-15	3.300533E-17
4.170000E+03	1.197841E-15	3.261932E-17
4.180000E+03	1.197300E-15	3.224468E-17
4.190000E+03	1.197091E-15	3.188145E-17
4.200000E+03	1.197232E-15	3.152993E-17
4.210000E+03	1.197738E-15	3.119030E-17
4.220000E+03	1.198637E-15	3.086307E-17
4.230000E+03	1.199931E-15	3.054812E-17
4.240000E+03	1.201638E-15	3.024563E-17
4.250000E+03	1.203758E-15	2.995543E-17
4.260000E+03	1.206315E-15	2.967787E-17
4.270000E+03	1.209309E-15	2.941276E-17
4.280000E+03	1.212750E-15	2.916009E-17
4.290000E+03	1.216644E-15	2.891986E-17
4.300000E+03	1.220977E-15	2.869149E-17
4.310000E+03	1.225770E-15	2.847532E-17
4.320000E+03	1.231004E-15	2.827076E-17
4.330000E+03	1.236677E-15	2.807756E-17
4.340000E+03	1.242769E-15	2.789520E-17
4.350000E+03	1.249292E-15	2.772380E-17
4.360000E+03	1.256197E-15	2.756222E-17
4.370000E+03	1.263485E-15	2.741041E-17
4.380000E+03	1.271127E-15	2.726771E-17
4.390000E+03	1.279098E-15	2.713364E-17
4.400000E+03	1.287380E-15	2.700781E-17
4.410000E+03	1.295935E-15	2.688950E-17
4.420000E+03	1.304744E-15	2.677841E-17
4.430000E+03	1.313720E-15	2.667292E-17
4.440000E+03	1.322783E-15	2.657155E-17
4.450000E+03	1.331811E-15	2.647199E-17
4.460000E+03	1.340692E-15	2.637204E-17
4.470000E+03	1.349332E-15	2.627006E-17
4.480000E+03	1.357587E-15	2.616343E-17
4.490000E+03	1.365381E-15	2.605098E-17
4.500000E+03	1.372582E-15	2.593046E-17
4.510000E+03	1.379122E-15	2.580096E-17
4.520000E+03	1.384915E-15	2.566126E-17
4.530000E+03	1.389902E-15	2.551066E-17
4.540000E+03	1.394045E-15	2.534886E-17
4.550000E+03	1.397304E-15	2.517553E-17
4.560000E+03	1.399706E-15	2.499159E-17
4.570000E+03	1.401251E-15	2.479735E-17
4.580000E+03	1.401984E-15	2.459398E-17
4.590000E+03	1.401964E-15	2.438279E-17
4.600000E+03	1.401263E-15	2.416531E-17
4.610000E+03	1.399954E-15	2.394297E-17
4.620000E+03	1.398112E-15	2.371726E-17
4.630000E+03	1.395832E-15	2.348991E-17
4.640000E+03	1.393214E-15	2.326266E-17
4.650000E+03	1.390356E-15	2.303719E-17
4.660000E+03	1.387331E-15	2.281472E-17
4.670000E+03	1.384250E-15	2.259704E-17
4.680000E+03	1.381193E-15	2.238540E-17
4.690000E+03	1.378236E-15	2.218093E-17
4.700000E+03	1.375458E-15	2.198480E-17
4.710000E+03	1.372917E-15	2.179784E-17
4.720000E+03	1.370661E-15	2.162067E-17
4.730000E+03	1.368726E-15	2.145371E-17
4.740000E+03	1.367133E-15	2.129720E-17
4.750000E+03	1.365892E-15	2.115116E-17
4.760000E+03	1.365000E-15	2.101543E-17
4.770000E+03	1.364444E-15	2.088972E-17
4.780000E+03	1.364186E-15	2.077336E-17
4.790000E+03	1.364208E-15	2.066604E-17
4.800000E+03	1.364446E-15	2.056674E-17
4.810000E+03	1.364886E-15	2.047523E-17
4.820000E+03	1.365460E-15	2.039047E-17
4.830000E+03	1.366138E-15	2.031205E-17
4.840000E+03	1.366877E-15	2.023936E-17
4.850000E+03	1.367611E-15	2.017143E-17
4.860000E+03	1.368329E-15	2.010816E-17
4.870000E+03	1.369003E-15	2.004921E-17
4.880000E+03	1.369651E-15	1.999488E-17
4.890000E+03	1.370241E-15	1.994463E-17
4.900000E+03	1.370831E-15	1.989905E-17
4.910000E+03	1.371410E-15	1.985782E-17
4.920000E+03	1.372017E-15	1.982127E-17
4.930000E+03	1.372668E-15	1.978942E-17
4.940000E+03	1.373409E-15	1.976274E-17
4.950000E+03	1.374247E-15	1.974108E-17
4.960000E+03	1.375234E-15	1.972503E-17
4.970000E+03	1.376423E-15	1.971514E-17
4.980000E+03	1.377823E-15	1.971133E-17
4.990000E+03	1.379473E-15	1.971400E-17
5.000000E+03	1.381423E-15	1.972369E-17
5.010000E+03	1.383706E-15	1.974069E-17
5.020000E+03	1.386326E-15	1.976491E-17
5.030000E+03	1.389322E-15	1.979677E-17
5.040000E+03	1.392714E-15	1.983641E-17
5.050000E+03	1.396519E-15	1.988395E-17
5.060000E+03	1.400728E-15	1.993918E-17
5.070000E+03	1.405340E-15	2.000199E-17
5.080000E+03	1.410359E-15	2.007232E-17
5.090000E+03	1.415736E-15	2.014942E-17
5.100000E+03	1.421451E-15	2.023295E-17
5.110000E+03	1.427450E-15	2.032209E-17
5.120000E+03	1.433684E-15	2.041611E-17
5.130000E+03	1.440098E-15	2.051419E-17
5.140000E+03	1.446627E-15	2.061540E-17
5.150000E+03	1.453191E-15	2.071858E-17
5.160000E+03	1.459732E-15	2.082293E-17
5.170000E+03	1.466147E-15	2.092696E-17
5.180000E+03	1.472374E-15	2.102982E-17
5.190000E+03	1.478320E-15	2.113019E-17
5.200000E+03	1.483906E-15	2.122700E-17
5.210000E+03	1.489060E-15	2.131921E-17
5.220000E+03	1.493707E-15	2.140583E-17
5.230000E+03	1.497751E-15	2.148549E-17
5.240000E+03	1.501162E-15	2.155781E-17
5.250000E+03	1.503840E-15	2.162141E-17
5.260000E+03	1.505772E-15	2.167613E-17
5.270000E+03	1.506891E-15	2.172105E-17
5.280000E+03	1.507185E-15	2.175605E-17
5.290000E+03	1.506624E-15	2.178072E-17
5.300000E+03	1.505188E-15	2.179481E-17
5.310000E+03	1.502898E-15	2.179861E-17
5.320000E+03	1.499748E-15	2.179200E-17
5.330000E+03	1.495787E-15	2.177570E-17
5.340000E+03	1.491056E-15	2.175025E-17
5.350000E+03	1.485611E-15	2.171645E-17
5.360000E+03	1.479542E-15	2.167561E-17
5.370000E+03	1.472961E-15	2.162927E-17
5.380000E+03	1.465995E-15	2.157906E-17
5.390000E+03	1.458761E-15	2.152639E-17
5.400000E+03	1.451427E-15	2.147349E-17
5.410000E+03	1.444052E-15	2.142096E-17
5.420000E+03	1.436555E-15	2.136739E-17
5.430000E+03	1.428792E-15	2.131035E-17
5.440000E+03	1.420698E-15	2.124864E-17
5.450000E+03	1.412186E-15	2.118070E-17
5.460000E+03	1.403261E-15	2.110634E-17
5.470000E+03	1.393830E-15	2.102392E-17
5.480000E+03	1.383758E-15	2.093113E-17
5.490000E+03	1.372960E-15	2.082645E-17
5.500000E+03	1.361420E-15	2.070935E-17
5.510000E+03	1.349191E-15	2.058041E-17
5.520000E+03	1.336275E-15	2.043945E-17
5.530000E+03	1.322770E-15	2.028774E-17
5.540000E+03	1.308718E-15	2.012572E-17
5.550000E+03	1.294210E-15	1.995465E-17
5.560000E+03	1.279343E-15	1.977588E-17
5.570000E+03	1.264221E-15	1.959091E-17
5.580000E+03	1.248926E-15	1.940091E-17
5.590000E+03	1.233564E-15	1.920748E-17
5.600000E+03	1.218247E-15	1.901228E-17
5.610000E+03	1.203066E-15	1.881676E-17
5.620000E+03	1.188116E-15	1.862235E-17
5.630000E+03	1.173507E-15	1.843084E-17
5.640000E+03	1.159313E-15	1.824338E-17
5.650000E+03	1.145621E-15	1.806142E-17
5.660000E+03	1.132498E-15	1.788607E-17
5.670000E+03	1.120016E-15	1.771852E-17
5.680000E+03	1.108223E-15	1.755961E-17
5.690000E+03	1.097154E-15	1.740998E-17
5.700000E+03	1.086843E-15	1.727027E-17
5.710000E+03	1.077315E-15	1.714091E-17
5.720000E+03	1.068555E-15	1.702179E-17
5.730000E+03	1.060563E-15	1.691300E-17
5.740000E+03	1.053313E-15	1.681419E-17
5.750000E+03	1.046774E-15	1.672494E-17
5.760000E+03	1.040922E-15	1.664496E-17
5.770000E+03	1.035681E-15	1.657311E-17
5.780000E+03	1.031014E-15	1.650885E-17
5.790000E+03	1.026841E-15	1.645100E-17
5.800000E+03	1.023102E-15	1.639866E-17
5.810000E+03	1.019718E-15	1.635065E-17
5.820000E+03	1.016615E-15	1.630583E-17
5.830000E+03	1.013725E-15	1.626320E-17
5.840000E+03	1.010962E-15	1.622144E-17
5.850000E+03	1.008261E-15	1.617963E-17
5.860000E+03	1.005551E-15	1.613667E-17
5.870000E+03	1.002751E-15	1.609137E-17
5.880000E+03	9.998159E-16	1.604310E-17
5.890000E+03	9.966624E-16	1.599063E-17
5.900000E+03	9.932521E-16	1.593343E-17
5.910000E+03	9.895193E-16	1.587058E-17
5.920000E+03	9.854136E-16	1.580137E-17
5.930000E+03	9.809022E-16	1.572541E-17
5.940000E+03	9.759228E-16	1.564181E-17
5.950000E+03	9.704519E-16	1.555034E-17
5.960000E+03	9.644735E-16	1.545087E-17
5.970000E+03	9.579438E-16	1.534282E-17
5.980000E+03	9.508592E-16	1.522628E-17
5.990000E+03	9.432155E-16	1.510130E-17
6.000000E+03	9.350032E-16	1.496788E-17
6.010000E+03	9.262314E-16	1.482627E-17
6.020000E+03	9.169182E-16	1.467690E-17
6.030000E+03	9.070801E-16	1.452014E-17
6.040000E+03	8.967517E-16	1.435666E-17
6.050000E+03	8.859866E-16	1.418741E-17
6.060000E+03	8.748044E-16	1.401281E-17
6.070000E+03	8.632833E-16	1.383419E-17
6.080000E+03	8.514555E-16	1.365214E-17
6.090000E+03	8.394083E-16	1.346812E-17
6.100000E+03	8.271824E-16	1.328285E-17
6.110000E+03	8.148604E-16	1.309769E-17
6.120000E+03	8.024964E-16	1.291356E-17
6.130000E+03	7.901734E-16	1.273182E-17
6.140000E+03	7.779441E-16	1.255335E-17
6.150000E+03	7.658683E-16	1.237914E-17
6.160000E+03	7.540210E-16	1.221041E-17
6.170000E+03	7.424441E-16	1.204786E-17
6.180000E+03	7.311999E-16	1.189240E-17
6.190000E+03	7.203321E-16	1.174458E-17
6.200000E+03	7.098762E-16	1.160483E-17
6.210000E+03	6.999187E-16	1.147443E-17
6.220000E+03	6.906616E-16	1.135659E-17
6.230000E+03	6.822763E-16	1.125407E-17
6.240000E+03	6.749169E-16	1.116939E-17
6.250000E+03	6.687123E-16	1.110470E-17
6.260000E+03	6.637823E-16	1.106207E-17
6.270000E+03	6.601866E-16	1.104258E-17
6.280000E+03	6.579771E-16	1.104725E-17
6.290000E+03	6.571905E-16	1.107685E-17
6.300000E+03	6.578338E-16	1.113167E-17
6.310000E+03	6.598877E-16	1.121160E-17
6.320000E+03	6.633180E-16	1.131625E-17
6.330000E+03	6.680967E-16	1.144537E-17
6.340000E+03	6.741602E-16	1.159807E-17
6.350000E+03	6.814550E-16	1.177366E-17
6.360000E+03	6.899125E-16	1.197114E-17
6.370000E+03	6.994572E-16	1.218941E-17
6.380000E+03	7.100080E-16	1.242723E-17
6.390000E+03	7.214770E-16	1.268322E-17
6.400000E+03	7.337708E-16	1.295589E-17
6.410000E+03	7.467792E-16	1.324341E-17
6.420000E+03	7.604085E-16	1.354421E-17
6.430000E+03	7.745514E-16	1.385646E-17
6.440000E+03	7.891099E-16	1.417845E-17
6.450000E+03	8.039870E-16	1.450846E-17
6.460000E+03	8.190623E-16	1.484430E-17
6.470000E+03	8.342532E-16	1.518446E-17
6.480000E+03	8.494562E-16	1.552699E-17
6.490000E+03	8.645838E-16	1.587021E-17
6.500000E+03	8.795264E-16	1.621201E-17
6.510000E+03	8.942175E-16	1.655104E-17
6.520000E+03	9.085533E-16	1.688524E-17
6.530000E+03	9.224598E-16	1.721307E-17
6.540000E+03	9.358351E-16	1.753245E-17
6.550000E+03	9.486058E-16	1.784181E-17
6.560000E+03	9.606991E-16	1.813957E-17
6.570000E+03	9.719940E-16	1.842322E-17
6.580000E+03	9.824183E-16	1.869114E-17
6.590000E+03	9.918992E-16	1.894170E-17
6.600000E+03	1.000322E-15	1.917245E-17
6.610000E+03	1.007641E-15	1.938223E-17
6.620000E+03	1.013758E-15	1.956888E-17
6.630000E+03	1.018651E-15	1.973167E-17
6.640000E+03	1.022246E-15	1.986891E-17
6.650000E+03	1.024539E-15	1.998022E-17
6.660000E+03	1.025528E-15	2.006523E-17
6.670000E+03	1.025206E-15	2.012352E-17
6.680000E+03	1.023624E-15	2.015574E-17
6.690000E+03	1.020807E-15	2.016214E-17
6.700000E+03	1.016816E-15	2.014363E-17
6.710000E+03	1.011738E-15	2.010169E-17
6.720000E+03	1.005634E-15	2.003734E-17
6.730000E+03	9.985777E-16	1.995181E-17
6.740000E+03	9.906952E-16	1.984749E-17
6.750000E+03	9.820473E-16	1.972546E-17
6.760000E+03	9.727507E-16	1.958794E-17
6.770000E+03	9.629038E-16	1.943683E-17
6.780000E+03	9.525870E-16	1.927370E-17
6.790000E+03	9.418962E-16	1.910045E-17
6.800000E+03	9.309238E-16	1.891892E-17
6.810000E+03	9.197747E-16	1.873126E-17
6.820000E+03	9.085143E-16	1.853882E-17
6.830000E+03	8.972021E-16	1.834285E-17
6.840000E+03	8.859234E-16	1.814512E-17
6.850000E+03	8.747390E-16	1.794695E-17
6.860000E+03	8.637025E-16	1.774951E-17
6.870000E+03	8.528437E-16	1.755346E-17
6.880000E+03	8.421964E-16	1.735960E-17
6.890000E+03	8.317955E-16	1.716872E-17
6.900000E+03	8.216387E-16	1.698085E-17
6.910000E+03	8.117346E-16	1.679625E-17
6.920000E+03	8.020870E-16	1.661510E-17
6.930000E+03	7.926961E-16	1.643746E-17
6.940000E+03	7.835587E-16	1.626337E-17
6.950000E+03	7.746688E-16	1.609278E-17
6.960000E+03	7.660031E-16	1.592528E-17
6.970000E+03	7.575513E-16	1.576074E-17
6.980000E+03	7.493153E-16	1.559928E-17
6.990000E+03	7.412804E-16	1.544068E-17
7.000000E+03	7.334026E-16	1.528409E-17
7.010000E+03	7.256945E-16	1.512985E-17
7.020000E+03	7.181252E-16	1.497740E-17
7.030000E+03	7.106792E-16	1.482649E-17
7.040000E+03	7.033276E-16	1.467660E-17
7.050000E+03	6.960712E-16	1.452781E-17
7.060000E+03	6.888983E-16	1.437996E-17
7.070000E+03	6.817992E-16	1.423293E-17
7.080000E+03	6.747527E-16	1.408635E-17
7.090000E+03	6.677535E-16	1.394019E-17
7.100000E+03	6.608113E-16	1.379473E-17
7.110000E+03	6.539112E-16	1.364973E-17
7.120000E+03	6.470397E-16	1.350500E-17
7.130000E+03	6.402242E-16	1.336119E-17
7.140000E+03	6.334536E-16	1.321814E-17
7.150000E+03	6.267311E-16	1.307601E-17
7.160000E+03	6.200476E-16	1.293467E-17
7.170000E+03	6.134202E-16	1.279458E-17
7.180000E+03	6.068531E-16	1.265589E-17
7.190000E+03	6.003389E-16	1.251853E-17
7.200000E+03	5.938824E-16	1.238268E-17
7.210000E+03	5.875007E-16	1.224876E-17
7.220000E+03	5.811861E-16	1.211671E-17
7.230000E+03	5.749430E-16	1.198668E-17
7.240000E+03	5.687759E-16	1.185884E-17
7.250000E+03	5.626893E-16	1.173337E-17
7.260000E+03	5.566764E-16	1.161019E-17
7.270000E+03	5.507657E-16	1.148997E-17
7.280000E+03	5.449515E-16	1.137267E-17
7.290000E+03	5.392177E-16	1.125802E-17
7.300000E+03	5.336061E-16	1.114695E-17
7.310000E+03	5.280909E-16	1.103901E-17
7.320000E+03	5.227036E-16	1.093491E-17
7.330000E+03	5.174421E-16	1.083468E-17
7.340000E+03	5.123159E-16	1.073859E-17
7.350000E+03	5.073234E-16	1.064668E-17
7.360000E+03	5.024740E-16	1.055919E-17
7.370000E+03	4.977762E-16	1.047639E-17
7.380000E+03	4.932383E-16	1.039851E-17
7.390000E+03	4.888469E-16	1.032533E-17
7.400000E+03	4.846195E-16	1.025731E-17
7.410000E+03	4.805416E-16	1.019419E-17
7.420000E+03	4.766087E-16	1.013594E-17
7.430000E+03	4.728155E-16	1.008254E-17
7.440000E+03	4.691763E-16	1.003433E-17
7.450000E+03	4.656932E-16	9.991448E-18
7.460000E+03	4.623875E-16	9.954409E-18
7.470000E+03	4.592773E-16	9.923688E-18
7.480000E+03	4.563482E-16	9.899050E-18
7.490000E+03	4.536035E-16	9.880650E-18
7.500000E+03	4.510537E-16	9.868803E-18
7.510000E+03	4.486665E-16	9.862885E-18
7.520000E+03	4.464480E-16	9.863114E-18
7.530000E+03	4.443818E-16	9.869213E-18
7.540000E+03	4.424504E-16	9.880863E-18
7.550000E+03	4.406345E-16	9.897631E-18
7.560000E+03	4.389138E-16	9.919022E-18
7.570000E+03	4.372774E-16	9.944740E-18
7.580000E+03	4.356936E-16	9.974014E-18
7.590000E+03	4.341507E-16	1.000651E-17
7.600000E+03	4.326167E-16	1.004143E-17
7.610000E+03	4.310808E-16	1.007842E-17
7.620000E+03	4.295222E-16	1.011693E-17
7.630000E+03	4.279114E-16	1.015614E-17
7.640000E+03	4.262397E-16	1.019572E-17
7.650000E+03	4.244982E-16	1.023536E-17
7.660000E+03	4.226830E-16	1.027481E-17
7.670000E+03	4.208111E-16	1.031436E-17
7.680000E+03	4.188791E-16	1.035380E-17
7.690000E+03	4.169137E-16	1.039367E-17
7.700000E+03	4.149013E-16	1.043351E-17
7.710000E+03	4.128584E-16	1.047362E-17
7.720000E+03	4.107816E-16	1.051382E-17
7.730000E+03	4.086870E-16	1.055439E-17
7.740000E+03	4.065812E-16	1.059543E-17
7.750000E+03	4.044706E-16	1.063699E-17
7.760000E+03	4.023515E-16	1.067890E-17
