#wls	flux	fluxerr
1.600000E+03	1.784644E-16	1.383620E-17
1.640000E+03	1.840682E-16	1.419530E-17
1.680000E+03	1.900714E-16	1.457847E-17
1.720000E+03	1.964879E-16	1.498604E-17
1.760000E+03	2.033484E-16	1.541956E-17
1.800000E+03	2.107005E-16	1.588176E-17
1.840000E+03	2.185207E-16	1.636994E-17
1.880000E+03	2.268725E-16	1.688785E-17
1.920000E+03	2.357656E-16	1.743514E-17
1.960000E+03	2.452089E-16	1.801129E-17
2.000000E+03	2.551921E-16	1.861434E-17
2.040000E+03	2.657218E-16	1.924354E-17
2.080000E+03	2.767680E-16	1.989544E-17
2.120000E+03	2.882646E-16	2.056402E-17
2.160000E+03	3.001976E-16	2.124705E-17
2.200000E+03	3.124813E-16	2.193728E-17
2.240000E+03	3.250476E-16	2.262880E-17
2.280000E+03	3.378622E-16	2.331820E-17
2.320000E+03	3.509241E-16	2.400438E-17
2.360000E+03	3.642824E-16	2.468962E-17
2.400000E+03	3.780010E-16	2.537704E-17
2.440000E+03	3.921412E-16	2.606937E-17
2.480000E+03	4.068116E-16	2.677229E-17
2.520000E+03	4.220662E-16	2.748754E-17
2.560000E+03	4.379886E-16	2.821858E-17
2.600000E+03	4.546078E-16	2.896512E-17
2.640000E+03	4.719654E-16	2.972748E-17
2.680000E+03	4.900653E-16	3.050348E-17
2.720000E+03	5.089079E-16	3.129062E-17
2.760000E+03	5.284894E-16	3.208607E-17
2.800000E+03	5.487858E-16	3.288576E-17
2.840000E+03	5.697696E-16	3.368541E-17
2.880000E+03	5.914415E-16	3.448242E-17
2.920000E+03	6.137665E-16	3.527207E-17
2.960000E+03	6.367838E-16	3.605392E-17
3.000000E+03	6.604806E-16	3.682444E-17
3.010000E+03	6.665315E-16	3.701612E-17
3.020000E+03	6.726169E-16	3.720640E-17
3.030000E+03	6.787353E-16	3.739520E-17
3.040000E+03	6.849161E-16	3.758406E-17
3.050000E+03	6.911424E-16	3.777202E-17
3.060000E+03	6.974132E-16	3.795897E-17
3.070000E+03	7.037421E-16	3.814560E-17
3.080000E+03	7.101124E-16	3.833095E-17
3.090000E+03	7.165229E-16	3.851492E-17
3.100000E+03	7.230023E-16	3.869899E-17
3.110000E+03	7.295189E-16	3.888142E-17
3.120000E+03	7.360864E-16	3.906288E-17
3.130000E+03	7.426884E-16	3.924247E-17
3.140000E+03	7.493679E-16	3.942239E-17
3.150000E+03	7.560792E-16	3.960019E-17
3.160000E+03	7.628352E-16	3.977651E-17
3.170000E+03	7.696496E-16	3.995199E-17
3.180000E+03	7.765204E-16	4.012649E-17
3.190000E+03	7.834171E-16	4.029837E-17
3.200000E+03	7.903819E-16	4.046977E-17
3.210000E+03	7.973842E-16	4.063906E-17
3.220000E+03	8.044370E-16	4.080685E-17
3.230000E+03	8.115245E-16	4.097230E-17
3.240000E+03	8.186594E-16	4.113600E-17
3.250000E+03	8.258404E-16	4.129784E-17
3.260000E+03	8.330661E-16	4.145769E-17
3.270000E+03	8.403206E-16	4.161473E-17
3.280000E+03	8.476169E-16	4.176956E-17
3.290000E+03	8.549537E-16	4.192206E-17
3.300000E+03	8.623154E-16	4.207144E-17
3.310000E+03	8.697148E-16	4.221828E-17
3.320000E+03	8.771368E-16	4.236180E-17
3.330000E+03	8.845941E-16	4.250259E-17
3.340000E+03	8.920716E-16	4.263989E-17
3.350000E+03	8.995682E-16	4.277361E-17
3.360000E+03	9.070830E-16	4.290368E-17
3.370000E+03	9.146150E-16	4.303003E-17
3.380000E+03	9.221633E-16	4.315260E-17
3.390000E+03	9.297135E-16	4.327068E-17
3.400000E+03	9.372784E-16	4.338486E-17
3.410000E+03	9.448304E-16	4.349384E-17
3.420000E+03	9.523958E-16	4.359883E-17
3.430000E+03	9.599475E-16	4.369857E-17
3.440000E+03	9.674851E-16	4.379304E-17
3.450000E+03	9.750086E-16	4.388225E-17
3.460000E+03	9.825042E-16	4.396558E-17
3.470000E+03	9.899865E-16	4.404369E-17
3.480000E+03	9.974411E-16	4.411595E-17
3.490000E+03	1.004855E-15	4.418181E-17
3.500000E+03	1.012230E-15	4.424136E-17
3.510000E+03	1.019555E-15	4.429411E-17
3.520000E+03	1.026840E-15	4.434062E-17
3.530000E+03	1.034051E-15	4.437936E-17
3.540000E+03	1.041199E-15	4.441094E-17
3.550000E+03	1.048276E-15	4.443501E-17
3.560000E+03	1.055281E-15	4.445157E-17
3.570000E+03	1.062193E-15	4.445983E-17
3.580000E+03	1.068998E-15	4.445931E-17
3.590000E+03	1.075715E-15	4.445082E-17
3.600000E+03	1.082306E-15	4.443292E-17
3.610000E+03	1.088787E-15	4.440635E-17
3.620000E+03	1.095150E-15	4.437086E-17
3.630000E+03	1.101372E-15	4.432564E-17
3.640000E+03	1.107445E-15	4.427050E-17
3.650000E+03	1.113372E-15	4.420567E-17
3.660000E+03	1.119132E-15	4.413049E-17
3.670000E+03	1.124742E-15	4.404572E-17
3.680000E+03	1.130170E-15	4.395026E-17
3.690000E+03	1.135419E-15	4.384440E-17
3.700000E+03	1.140482E-15	4.372802E-17
3.710000E+03	1.145362E-15	4.360143E-17
3.720000E+03	1.150042E-15	4.346410E-17
3.730000E+03	1.154522E-15	4.331628E-17
3.740000E+03	1.158798E-15	4.315794E-17
3.750000E+03	1.162872E-15	4.298937E-17
3.760000E+03	1.166737E-15	4.281048E-17
3.770000E+03	1.170395E-15	4.262157E-17
3.780000E+03	1.173838E-15	4.242255E-17
3.790000E+03	1.177058E-15	4.221329E-17
3.800000E+03	1.180081E-15	4.199497E-17
3.810000E+03	1.182875E-15	4.176662E-17
3.820000E+03	1.185455E-15	4.152901E-17
3.830000E+03	1.187834E-15	4.128275E-17
3.840000E+03	1.189993E-15	4.102744E-17
3.850000E+03	1.191934E-15	4.076335E-17
3.860000E+03	1.193672E-15	4.049116E-17
3.870000E+03	1.195209E-15	4.021121E-17
3.880000E+03	1.196549E-15	3.992380E-17
3.890000E+03	1.197686E-15	3.962892E-17
3.900000E+03	1.198634E-15	3.932724E-17
3.910000E+03	1.199398E-15	3.901914E-17
3.920000E+03	1.199984E-15	3.870496E-17
3.930000E+03	1.200397E-15	3.838513E-17
3.940000E+03	1.200645E-15	3.806001E-17
3.950000E+03	1.200745E-15	3.773037E-17
3.960000E+03	1.200708E-15	3.739667E-17
3.970000E+03	1.200530E-15	3.705896E-17
3.980000E+03	1.200243E-15	3.671844E-17
3.990000E+03	1.199848E-15	3.637519E-17
4.000000E+03	1.199366E-15	3.603005E-17
4.010000E+03	1.198813E-15	3.568358E-17
4.020000E+03	1.198189E-15	3.533589E-17
4.030000E+03	1.197533E-15	3.498825E-17
4.040000E+03	1.196851E-15	3.464089E-17
4.050000E+03	1.196172E-15	3.429473E-17
4.060000E+03	1.195517E-15	3.395043E-17
4.070000E+03	1.194912E-15	3.360873E-17
4.080000E+03	1.194380E-15	3.327032E-17
4.090000E+03	1.193961E-15	3.293627E-17
4.100000E+03	1.193671E-15	3.260704E-17
4.110000E+03	1.193542E-15	3.228342E-17
4.120000E+03	1.193625E-15	3.196669E-17
4.130000E+03	1.193925E-15	3.165694E-17
4.140000E+03	1.194482E-15	3.135506E-17
4.150000E+03	1.195320E-15	3.106159E-17
4.160000E+03	1.196466E-15	3.077701E-17
4.170000E+03	1.197942E-15	3.050181E-17
4.180000E+03	1.199772E-15	3.023637E-17
4.190000E+03	1.201981E-15	2.998111E-17
4.200000E+03	1.204588E-15	2.973630E-17
4.210000E+03	1.207617E-15	2.950234E-17
4.220000E+03	1.211086E-15	2.927943E-17
4.230000E+03	1.215003E-15	2.906754E-17
4.240000E+03	1.219387E-15	2.886685E-17
4.250000E+03	1.224265E-15	2.867781E-17
4.260000E+03	1.229651E-15	2.850046E-17
4.270000E+03	1.235539E-15	2.833440E-17
4.280000E+03	1.241951E-15	2.817993E-17
4.290000E+03	1.248894E-15	2.803696E-17
4.300000E+03	1.256378E-15	2.790547E-17
4.310000E+03	1.264405E-15	2.778527E-17
4.320000E+03	1.272964E-15	2.767590E-17
4.330000E+03	1.282074E-15	2.757757E-17
4.340000E+03	1.291702E-15	2.748936E-17
4.350000E+03	1.301855E-15	2.741128E-17
4.360000E+03	1.312513E-15	2.734275E-17
4.370000E+03	1.323658E-15	2.728323E-17
4.380000E+03	1.335252E-15	2.723188E-17
4.390000E+03	1.347259E-15	2.718788E-17
4.400000E+03	1.359611E-15	2.714985E-17
4.410000E+03	1.372256E-15	2.711677E-17
4.420000E+03	1.385094E-15	2.708678E-17
4.430000E+03	1.398010E-15	2.705774E-17
4.440000E+03	1.410892E-15	2.702774E-17
4.450000E+03	1.423588E-15	2.699415E-17
4.460000E+03	1.435943E-15	2.695426E-17
4.470000E+03	1.447801E-15	2.690543E-17
4.480000E+03	1.458962E-15	2.684428E-17
4.490000E+03	1.469269E-15	2.676834E-17
4.500000E+03	1.478550E-15	2.667499E-17
4.510000E+03	1.486626E-15	2.656160E-17
4.520000E+03	1.493383E-15	2.642675E-17
4.530000E+03	1.498719E-15	2.626930E-17
4.540000E+03	1.502563E-15	2.608869E-17
4.550000E+03	1.504937E-15	2.588598E-17
4.560000E+03	1.505880E-15	2.566248E-17
4.570000E+03	1.505450E-15	2.541978E-17
4.580000E+03	1.503813E-15	2.516119E-17
4.590000E+03	1.501092E-15	2.488922E-17
4.600000E+03	1.497425E-15	2.460654E-17
4.610000E+03	1.492987E-15	2.431627E-17
4.620000E+03	1.487933E-15	2.402117E-17
4.630000E+03	1.482372E-15	2.372313E-17
4.640000E+03	1.476518E-15	2.342563E-17
4.650000E+03	1.470474E-15	2.313032E-17
4.660000E+03	1.464424E-15	2.284005E-17
4.670000E+03	1.458507E-15	2.255684E-17
4.680000E+03	1.452851E-15	2.228252E-17
4.690000E+03	1.447567E-15	2.201859E-17
4.700000E+03	1.442747E-15	2.176622E-17
4.710000E+03	1.438497E-15	2.152677E-17
4.720000E+03	1.434864E-15	2.130062E-17
4.730000E+03	1.431869E-15	2.108783E-17
4.740000E+03	1.429530E-15	2.088841E-17
4.750000E+03	1.427811E-15	2.070155E-17
4.760000E+03	1.426710E-15	2.052701E-17
4.770000E+03	1.426130E-15	2.036315E-17
4.780000E+03	1.426037E-15	2.020935E-17
4.790000E+03	1.426365E-15	2.006450E-17
4.800000E+03	1.427018E-15	1.992713E-17
4.810000E+03	1.427938E-15	1.979638E-17
4.820000E+03	1.429074E-15	1.967148E-17
4.830000E+03	1.430333E-15	1.955113E-17
4.840000E+03	1.431670E-15	1.943471E-17
4.850000E+03	1.433035E-15	1.932157E-17
4.860000E+03	1.434372E-15	1.921099E-17
4.870000E+03	1.435645E-15	1.910258E-17
4.880000E+03	1.436857E-15	1.899643E-17
4.890000E+03	1.437986E-15	1.889227E-17
4.900000E+03	1.439052E-15	1.879032E-17
4.910000E+03	1.440050E-15	1.869044E-17
4.920000E+03	1.441030E-15	1.859319E-17
4.930000E+03	1.442030E-15	1.849900E-17
4.940000E+03	1.443095E-15	1.840835E-17
4.950000E+03	1.444301E-15	1.832212E-17
4.960000E+03	1.445695E-15	1.824083E-17
4.970000E+03	1.447360E-15	1.816540E-17
4.980000E+03	1.449340E-15	1.809632E-17
4.990000E+03	1.451701E-15	1.803428E-17
5.000000E+03	1.454477E-15	1.797962E-17
5.010000E+03	1.457746E-15	1.793321E-17
5.020000E+03	1.461520E-15	1.789510E-17
5.030000E+03	1.465828E-15	1.786557E-17
5.040000E+03	1.470707E-15	1.784499E-17
5.050000E+03	1.476152E-15	1.783325E-17
5.060000E+03	1.482151E-15	1.783015E-17
5.070000E+03	1.488677E-15	1.783536E-17
5.080000E+03	1.495698E-15	1.784847E-17
5.090000E+03	1.503148E-15	1.786873E-17
5.100000E+03	1.510970E-15	1.789548E-17
5.110000E+03	1.519112E-15	1.792819E-17
5.120000E+03	1.527467E-15	1.796567E-17
5.130000E+03	1.535979E-15	1.800738E-17
5.140000E+03	1.544511E-15	1.805186E-17
5.150000E+03	1.553004E-15	1.809857E-17
5.160000E+03	1.561347E-15	1.814639E-17
5.170000E+03	1.569440E-15	1.819437E-17
5.180000E+03	1.577184E-15	1.824157E-17
5.190000E+03	1.584462E-15	1.828686E-17
5.200000E+03	1.591170E-15	1.832929E-17
5.210000E+03	1.597193E-15	1.836778E-17
5.220000E+03	1.602464E-15	1.840181E-17
5.230000E+03	1.606838E-15	1.842996E-17
5.240000E+03	1.610253E-15	1.845179E-17
5.250000E+03	1.612640E-15	1.846672E-17
5.260000E+03	1.613938E-15	1.847430E-17
5.270000E+03	1.614086E-15	1.847402E-17
5.280000E+03	1.613085E-15	1.846607E-17
5.290000E+03	1.610920E-15	1.845033E-17
5.300000E+03	1.607629E-15	1.842720E-17
5.310000E+03	1.603251E-15	1.839702E-17
5.320000E+03	1.597862E-15	1.836057E-17
5.330000E+03	1.591517E-15	1.831835E-17
5.340000E+03	1.584307E-15	1.827125E-17
5.350000E+03	1.576304E-15	1.821994E-17
5.360000E+03	1.567625E-15	1.816559E-17
5.370000E+03	1.558314E-15	1.810833E-17
5.380000E+03	1.548459E-15	1.804875E-17
5.390000E+03	1.538136E-15	1.798727E-17
5.400000E+03	1.527400E-15	1.792410E-17
5.410000E+03	1.516242E-15	1.785870E-17
5.420000E+03	1.504675E-15	1.779081E-17
5.430000E+03	1.492682E-15	1.771980E-17
5.440000E+03	1.480163E-15	1.764408E-17
5.450000E+03	1.467084E-15	1.756280E-17
5.460000E+03	1.453354E-15	1.747449E-17
5.470000E+03	1.438910E-15	1.737792E-17
5.480000E+03	1.423798E-15	1.727327E-17
5.490000E+03	1.408008E-15	1.716000E-17
5.500000E+03	1.391593E-15	1.703840E-17
5.510000E+03	1.374604E-15	1.690872E-17
5.520000E+03	1.357141E-15	1.677185E-17
5.530000E+03	1.339237E-15	1.662793E-17
5.540000E+03	1.320996E-15	1.647796E-17
5.550000E+03	1.302499E-15	1.632271E-17
5.560000E+03	1.283870E-15	1.616353E-17
5.570000E+03	1.265204E-15	1.600146E-17
5.580000E+03	1.246621E-15	1.583788E-17
5.590000E+03	1.228228E-15	1.567406E-17
5.600000E+03	1.210157E-15	1.551161E-17
5.610000E+03	1.192495E-15	1.535164E-17
5.620000E+03	1.175347E-15	1.519550E-17
5.630000E+03	1.158808E-15	1.504443E-17
5.640000E+03	1.142951E-15	1.489945E-17
5.650000E+03	1.127851E-15	1.476161E-17
5.660000E+03	1.113547E-15	1.463151E-17
5.670000E+03	1.100095E-15	1.450998E-17
5.680000E+03	1.087539E-15	1.439772E-17
5.690000E+03	1.075902E-15	1.429518E-17
5.700000E+03	1.065201E-15	1.420268E-17
5.710000E+03	1.055440E-15	1.412044E-17
5.720000E+03	1.046627E-15	1.404868E-17
5.730000E+03	1.038719E-15	1.398697E-17
5.740000E+03	1.031706E-15	1.393528E-17
5.750000E+03	1.025519E-15	1.389284E-17
5.760000E+03	1.020073E-15	1.385858E-17
5.770000E+03	1.015298E-15	1.383166E-17
5.780000E+03	1.011107E-15	1.381101E-17
5.790000E+03	1.007389E-15	1.379517E-17
5.800000E+03	1.004044E-15	1.378285E-17
5.810000E+03	1.000992E-15	1.377305E-17
5.820000E+03	9.981144E-16	1.376418E-17
5.830000E+03	9.953269E-16	1.375512E-17
5.840000E+03	9.925451E-16	1.374478E-17
5.850000E+03	9.896924E-16	1.373213E-17
5.860000E+03	9.867018E-16	1.371630E-17
5.870000E+03	9.834871E-16	1.369614E-17
5.880000E+03	9.800092E-16	1.367114E-17
5.890000E+03	9.762011E-16	1.364043E-17
5.900000E+03	9.720194E-16	1.360345E-17
5.910000E+03	9.674255E-16	1.355972E-17
5.920000E+03	9.623859E-16	1.350882E-17
5.930000E+03	9.568861E-16	1.345060E-17
5.940000E+03	9.508843E-16	1.338456E-17
5.950000E+03	9.443655E-16	1.331053E-17
5.960000E+03	9.373359E-16	1.322868E-17
5.970000E+03	9.297958E-16	1.313908E-17
5.980000E+03	9.217280E-16	1.304156E-17
5.990000E+03	9.131625E-16	1.293663E-17
6.000000E+03	9.040799E-16	1.282406E-17
6.010000E+03	8.945276E-16	1.270463E-17
6.020000E+03	8.844952E-16	1.257824E-17
6.030000E+03	8.740073E-16	1.244533E-17
6.040000E+03	8.631024E-16	1.230650E-17
6.050000E+03	8.518066E-16	1.216220E-17
6.060000E+03	8.401590E-16	1.201305E-17
6.070000E+03	8.281825E-16	1.185943E-17
6.080000E+03	8.159520E-16	1.170248E-17
6.090000E+03	8.034951E-16	1.154263E-17
6.100000E+03	7.908920E-16	1.138110E-17
6.110000E+03	7.782098E-16	1.121889E-17
6.120000E+03	7.655181E-16	1.105705E-17
6.130000E+03	7.528994E-16	1.089682E-17
6.140000E+03	7.404630E-16	1.073982E-17
6.150000E+03	7.283038E-16	1.058747E-17
6.160000E+03	7.165269E-16	1.044136E-17
6.170000E+03	7.052589E-16	1.030339E-17
6.180000E+03	6.945947E-16	1.017495E-17
6.190000E+03	6.846556E-16	1.005779E-17
6.200000E+03	6.755480E-16	9.953446E-18
6.210000E+03	6.673835E-16	9.863566E-18
6.220000E+03	6.602580E-16	9.789597E-18
6.230000E+03	6.542423E-16	9.732652E-18
6.240000E+03	6.494159E-16	9.693993E-18
6.250000E+03	6.458400E-16	9.674640E-18
6.260000E+03	6.435565E-16	9.675350E-18
6.270000E+03	6.425937E-16	9.696699E-18
6.280000E+03	6.429845E-16	9.739350E-18
6.290000E+03	6.447251E-16	9.803426E-18
6.300000E+03	6.478046E-16	9.888953E-18
6.310000E+03	6.522158E-16	9.996024E-18
6.320000E+03	6.579328E-16	1.012445E-17
6.330000E+03	6.649045E-16	1.027365E-17
6.340000E+03	6.730909E-16	1.044322E-17
6.350000E+03	6.824369E-16	1.063251E-17
6.360000E+03	6.928593E-16	1.084042E-17
6.370000E+03	7.042960E-16	1.106616E-17
6.380000E+03	7.166575E-16	1.130852E-17
6.390000E+03	7.298447E-16	1.156609E-17
6.400000E+03	7.437511E-16	1.183731E-17
6.410000E+03	7.582912E-16	1.212097E-17
6.420000E+03	7.733404E-16	1.241518E-17
6.430000E+03	7.888014E-16	1.271845E-17
6.440000E+03	8.045566E-16	1.302895E-17
6.450000E+03	8.204831E-16	1.334472E-17
6.460000E+03	8.364698E-16	1.366399E-17
6.470000E+03	8.524119E-16	1.398501E-17
6.480000E+03	8.682204E-16	1.430631E-17
6.490000E+03	8.837675E-16	1.462572E-17
6.500000E+03	8.989867E-16	1.494207E-17
6.510000E+03	9.137882E-16	1.525378E-17
6.520000E+03	9.280673E-16	1.555898E-17
6.530000E+03	9.417455E-16	1.585624E-17
6.540000E+03	9.547308E-16	1.614385E-17
6.550000E+03	9.669337E-16	1.642015E-17
6.560000E+03	9.782670E-16	1.668346E-17
6.570000E+03	9.886632E-16	1.693245E-17
6.580000E+03	9.980291E-16	1.716529E-17
6.590000E+03	1.006294E-15	1.738056E-17
6.600000E+03	1.013412E-15	1.757720E-17
6.610000E+03	1.019326E-15	1.775400E-17
6.620000E+03	1.023980E-15	1.790969E-17
6.630000E+03	1.027355E-15	1.804370E-17
6.640000E+03	1.029411E-15	1.815506E-17
6.650000E+03	1.030180E-15	1.824402E-17
6.660000E+03	1.029635E-15	1.830978E-17
6.670000E+03	1.027800E-15	1.835245E-17
6.680000E+03	1.024738E-15	1.837280E-17
6.690000E+03	1.020507E-15	1.837154E-17
6.700000E+03	1.015155E-15	1.834926E-17
6.710000E+03	1.008764E-15	1.830715E-17
6.720000E+03	1.001438E-15	1.824683E-17
6.730000E+03	9.932512E-16	1.816944E-17
6.740000E+03	9.843156E-16	1.807680E-17
6.750000E+03	9.746910E-16	1.796982E-17
6.760000E+03	9.645080E-16	1.785075E-17
6.770000E+03	9.538239E-16	1.772052E-17
6.780000E+03	9.427637E-16	1.758135E-17
6.790000E+03	9.313821E-16	1.743415E-17
6.800000E+03	9.197826E-16	1.728081E-17
6.810000E+03	9.080481E-16	1.712283E-17
6.820000E+03	8.962408E-16	1.696138E-17
6.830000E+03	8.844535E-16	1.679819E-17
6.840000E+03	8.727400E-16	1.663431E-17
6.850000E+03	8.611804E-16	1.647129E-17
6.860000E+03	8.497980E-16	1.630962E-17
6.870000E+03	8.386732E-16	1.615091E-17
6.880000E+03	8.278302E-16	1.599568E-17
6.890000E+03	8.172948E-16	1.584451E-17
6.900000E+03	8.070704E-16	1.569754E-17
6.910000E+03	7.972002E-16	1.555570E-17
6.920000E+03	7.876387E-16	1.541818E-17
6.930000E+03	7.784267E-16	1.528587E-17
6.940000E+03	7.695257E-16	1.515811E-17
6.950000E+03	7.609175E-16	1.503461E-17
6.960000E+03	7.525962E-16	1.491533E-17
6.970000E+03	7.445249E-16	1.479963E-17
6.980000E+03	7.366763E-16	1.468704E-17
6.990000E+03	7.290230E-16	1.457706E-17
7.000000E+03	7.215379E-16	1.446924E-17
7.010000E+03	7.141948E-16	1.436310E-17
7.020000E+03	7.069544E-16	1.425790E-17
7.030000E+03	6.998214E-16	1.415379E-17
7.040000E+03	6.927352E-16	1.404960E-17
7.050000E+03	6.857194E-16	1.394585E-17
7.060000E+03	6.787186E-16	1.384145E-17
7.070000E+03	6.717509E-16	1.373682E-17
7.080000E+03	6.647958E-16	1.363157E-17
7.090000E+03	6.578491E-16	1.352566E-17
7.100000E+03	6.509227E-16	1.341938E-17
7.110000E+03	6.439915E-16	1.331225E-17
7.120000E+03	6.370711E-16	1.320461E-17
7.130000E+03	6.301534E-16	1.309636E-17
7.140000E+03	6.232575E-16	1.298792E-17
7.150000E+03	6.163898E-16	1.287946E-17
7.160000E+03	6.095452E-16	1.277093E-17
7.170000E+03	6.027437E-16	1.266278E-17
7.180000E+03	5.959686E-16	1.255470E-17
7.190000E+03	5.892521E-16	1.244742E-17
7.200000E+03	5.825891E-16	1.234088E-17
7.210000E+03	5.759755E-16	1.223501E-17
7.220000E+03	5.694296E-16	1.213028E-17
7.230000E+03	5.629580E-16	1.202684E-17
7.240000E+03	5.565554E-16	1.192465E-17
7.250000E+03	5.502289E-16	1.182389E-17
7.260000E+03	5.439850E-16	1.172475E-17
7.270000E+03	5.378312E-16	1.162743E-17
7.280000E+03	5.317763E-16	1.153218E-17
7.290000E+03	5.258079E-16	1.143876E-17
7.300000E+03	5.199575E-16	1.134791E-17
7.310000E+03	5.142248E-16	1.125967E-17
7.320000E+03	5.086103E-16	1.117411E-17
7.330000E+03	5.031352E-16	1.109173E-17
7.340000E+03	4.977900E-16	1.101238E-17
7.350000E+03	4.925860E-16	1.093636E-17
7.360000E+03	4.875343E-16	1.086396E-17
7.370000E+03	4.826351E-16	1.079526E-17
7.380000E+03	4.779089E-16	1.073076E-17
7.390000E+03	4.733349E-16	1.067007E-17
7.400000E+03	4.689413E-16	1.061386E-17
7.410000E+03	4.647154E-16	1.056192E-17
7.420000E+03	4.606737E-16	1.051469E-17
7.430000E+03	4.568087E-16	1.047207E-17
7.440000E+03	4.531224E-16	1.043415E-17
7.450000E+03	4.496243E-16	1.040125E-17
7.460000E+03	4.462988E-16	1.037306E-17
7.470000E+03	4.431665E-16	1.035013E-17
7.480000E+03	4.402000E-16	1.033190E-17
7.490000E+03	4.374082E-16	1.031866E-17
7.500000E+03	4.347709E-16	1.031000E-17
7.510000E+03	4.323053E-16	1.030639E-17
7.520000E+03	4.299884E-16	1.030737E-17
7.530000E+03	4.278065E-16	1.031267E-17
7.540000E+03	4.257540E-16	1.032222E-17
7.550000E+03	4.238125E-16	1.033557E-17
7.560000E+03	4.219816E-16	1.035271E-17
7.570000E+03	4.202233E-16	1.037271E-17
7.580000E+03	4.185265E-16	1.039526E-17
7.590000E+03	4.168806E-16	1.042009E-17
7.600000E+03	4.152577E-16	1.044648E-17
7.610000E+03	4.136502E-16	1.047417E-17
7.620000E+03	4.120339E-16	1.050254E-17
7.630000E+03	4.104154E-16	1.053168E-17
7.640000E+03	4.087669E-16	1.056084E-17
7.650000E+03	4.071003E-16	1.059026E-17
7.660000E+03	4.053937E-16	1.061930E-17
7.670000E+03	4.036620E-16	1.064830E-17
7.680000E+03	4.018853E-16	1.067666E-17
7.690000E+03	4.000832E-16	1.070483E-17
7.700000E+03	3.982496E-16	1.073260E-17
7.710000E+03	3.963889E-16	1.076001E-17
7.720000E+03	3.945073E-16	1.078716E-17
7.730000E+03	3.926107E-16	1.081418E-17
7.740000E+03	3.907064E-16	1.084120E-17
7.750000E+03	3.887923E-16	1.086812E-17
7.760000E+03	3.868930E-16	1.089558E-17
