#wls	flux	fluxerr
1.600000E+03	1.445495E-16	1.249714E-17
1.640000E+03	1.488405E-16	1.280484E-17
1.680000E+03	1.534513E-16	1.313455E-17
1.720000E+03	1.583796E-16	1.348548E-17
1.760000E+03	1.636834E-16	1.386190E-17
1.800000E+03	1.693597E-16	1.426282E-17
1.840000E+03	1.754351E-16	1.468971E-17
1.880000E+03	1.819660E-16	1.514642E-17
1.920000E+03	1.889477E-16	1.563160E-17
1.960000E+03	1.964201E-16	1.614753E-17
2.000000E+03	2.043919E-16	1.669384E-17
2.040000E+03	2.129011E-16	1.727245E-17
2.080000E+03	2.219247E-16	1.788023E-17
2.120000E+03	2.314535E-16	1.851518E-17
2.160000E+03	2.414622E-16	1.917398E-17
2.200000E+03	2.518501E-16	1.984737E-17
2.240000E+03	2.625009E-16	2.052507E-17
2.280000E+03	2.733574E-16	2.120166E-17
2.320000E+03	2.844217E-16	2.187638E-17
2.360000E+03	2.958575E-16	2.256076E-17
2.400000E+03	3.077954E-16	2.326336E-17
2.440000E+03	3.203486E-16	2.399104E-17
2.480000E+03	3.336557E-16	2.475217E-17
2.520000E+03	3.477632E-16	2.554789E-17
2.560000E+03	3.627433E-16	2.638099E-17
2.600000E+03	3.786344E-16	2.725155E-17
2.640000E+03	3.954855E-16	2.816014E-17
2.680000E+03	4.132972E-16	2.910374E-17
2.720000E+03	4.320660E-16	3.007891E-17
2.760000E+03	4.517696E-16	3.108083E-17
2.800000E+03	4.723671E-16	3.210339E-17
2.840000E+03	4.938132E-16	3.314024E-17
2.880000E+03	5.160862E-16	3.418667E-17
2.920000E+03	5.391864E-16	3.523939E-17
2.960000E+03	5.631629E-16	3.629816E-17
3.000000E+03	5.880961E-16	3.736451E-17
3.010000E+03	5.945063E-16	3.763356E-17
3.020000E+03	6.009708E-16	3.790243E-17
3.030000E+03	6.075149E-16	3.817262E-17
3.040000E+03	6.141234E-16	3.844314E-17
3.050000E+03	6.208082E-16	3.871465E-17
3.060000E+03	6.275807E-16	3.898778E-17
3.070000E+03	6.344126E-16	3.926069E-17
3.080000E+03	6.413420E-16	3.953568E-17
3.090000E+03	6.483403E-16	3.981089E-17
3.100000E+03	6.554320E-16	4.008776E-17
3.110000E+03	6.626021E-16	4.036528E-17
3.120000E+03	6.698483E-16	4.064323E-17
3.130000E+03	6.771951E-16	4.092302E-17
3.140000E+03	6.846139E-16	4.120282E-17
3.150000E+03	6.921418E-16	4.148479E-17
3.160000E+03	6.997375E-16	4.176636E-17
3.170000E+03	7.074375E-16	4.204964E-17
3.180000E+03	7.152138E-16	4.233284E-17
3.190000E+03	7.230897E-16	4.261728E-17
3.200000E+03	7.310499E-16	4.290196E-17
3.210000E+03	7.391048E-16	4.318740E-17
3.220000E+03	7.472517E-16	4.347334E-17
3.230000E+03	7.554883E-16	4.375956E-17
3.240000E+03	7.637990E-16	4.404508E-17
3.250000E+03	7.722067E-16	4.433112E-17
3.260000E+03	7.806961E-16	4.461671E-17
3.270000E+03	7.892770E-16	4.490233E-17
3.280000E+03	7.979341E-16	4.518701E-17
3.290000E+03	8.066646E-16	4.547052E-17
3.300000E+03	8.154784E-16	4.575333E-17
3.310000E+03	8.243600E-16	4.603449E-17
3.320000E+03	8.333192E-16	4.631446E-17
3.330000E+03	8.423529E-16	4.659299E-17
3.340000E+03	8.514339E-16	4.686850E-17
3.350000E+03	8.605836E-16	4.714212E-17
3.360000E+03	8.697873E-16	4.741294E-17
3.370000E+03	8.790426E-16	4.768079E-17
3.380000E+03	8.883456E-16	4.794538E-17
3.390000E+03	8.976701E-16	4.820526E-17
3.400000E+03	9.070371E-16	4.846151E-17
3.410000E+03	9.164324E-16	4.871331E-17
3.420000E+03	9.258418E-16	4.895987E-17
3.430000E+03	9.352614E-16	4.920096E-17
3.440000E+03	9.446899E-16	4.943649E-17
3.450000E+03	9.541011E-16	4.966506E-17
3.460000E+03	9.635040E-16	4.988712E-17
3.470000E+03	9.728731E-16	5.010138E-17
3.480000E+03	9.822071E-16	5.030776E-17
3.490000E+03	9.914917E-16	5.050556E-17
3.500000E+03	1.000714E-15	5.069412E-17
3.510000E+03	1.009860E-15	5.087285E-17
3.520000E+03	1.018919E-15	5.104117E-17
3.530000E+03	1.027866E-15	5.119796E-17
3.540000E+03	1.036677E-15	5.134208E-17
3.550000E+03	1.045340E-15	5.147309E-17
3.560000E+03	1.053834E-15	5.159002E-17
3.570000E+03	1.062147E-15	5.169244E-17
3.580000E+03	1.070245E-15	5.177892E-17
3.590000E+03	1.078119E-15	5.184914E-17
3.600000E+03	1.085749E-15	5.190231E-17
3.610000E+03	1.093133E-15	5.193863E-17
3.620000E+03	1.100245E-15	5.195698E-17
3.630000E+03	1.107071E-15	5.195706E-17
3.640000E+03	1.113575E-15	5.193731E-17
3.650000E+03	1.119746E-15	5.189764E-17
3.660000E+03	1.125568E-15	5.183750E-17
3.670000E+03	1.131024E-15	5.175645E-17
3.680000E+03	1.136106E-15	5.165448E-17
3.690000E+03	1.140808E-15	5.153169E-17
3.700000E+03	1.145115E-15	5.138771E-17
3.710000E+03	1.149033E-15	5.122315E-17
3.720000E+03	1.152546E-15	5.103769E-17
3.730000E+03	1.155671E-15	5.083243E-17
3.740000E+03	1.158403E-15	5.060754E-17
3.750000E+03	1.160738E-15	5.036323E-17
3.760000E+03	1.162684E-15	5.010018E-17
3.770000E+03	1.164257E-15	4.981945E-17
3.780000E+03	1.165454E-15	4.952130E-17
3.790000E+03	1.166292E-15	4.920680E-17
3.800000E+03	1.166770E-15	4.887623E-17
3.810000E+03	1.166895E-15	4.853024E-17
3.820000E+03	1.166684E-15	4.816992E-17
3.830000E+03	1.166157E-15	4.779635E-17
3.840000E+03	1.165312E-15	4.740983E-17
3.850000E+03	1.164177E-15	4.701175E-17
3.860000E+03	1.162742E-15	4.660202E-17
3.870000E+03	1.161044E-15	4.618246E-17
3.880000E+03	1.159075E-15	4.575297E-17
3.890000E+03	1.156873E-15	4.531535E-17
3.900000E+03	1.154438E-15	4.486983E-17
3.910000E+03	1.151790E-15	4.441748E-17
3.920000E+03	1.148941E-15	4.395888E-17
3.930000E+03	1.145910E-15	4.349507E-17
3.940000E+03	1.142708E-15	4.302662E-17
3.950000E+03	1.139366E-15	4.255490E-17
3.960000E+03	1.135887E-15	4.208016E-17
3.970000E+03	1.132290E-15	4.160333E-17
3.980000E+03	1.128591E-15	4.112505E-17
3.990000E+03	1.124819E-15	4.064654E-17
4.000000E+03	1.120987E-15	4.016837E-17
4.010000E+03	1.117108E-15	3.969110E-17
4.020000E+03	1.113195E-15	3.921528E-17
4.030000E+03	1.109281E-15	3.874212E-17
4.040000E+03	1.105370E-15	3.827179E-17
4.050000E+03	1.101494E-15	3.780542E-17
4.060000E+03	1.097658E-15	3.734326E-17
4.070000E+03	1.093885E-15	3.688603E-17
4.080000E+03	1.090197E-15	3.643447E-17
4.090000E+03	1.086610E-15	3.598909E-17
4.100000E+03	1.083139E-15	3.555031E-17
4.110000E+03	1.079798E-15	3.511854E-17
4.120000E+03	1.076618E-15	3.469472E-17
4.130000E+03	1.073607E-15	3.427900E-17
4.140000E+03	1.070787E-15	3.387198E-17
4.150000E+03	1.068165E-15	3.347375E-17
4.160000E+03	1.065764E-15	3.308489E-17
4.170000E+03	1.063606E-15	3.270595E-17
4.180000E+03	1.061695E-15	3.233692E-17
4.190000E+03	1.060056E-15	3.197835E-17
4.200000E+03	1.058691E-15	3.163013E-17
4.210000E+03	1.057624E-15	3.129278E-17
4.220000E+03	1.056855E-15	3.096617E-17
4.230000E+03	1.056408E-15	3.065071E-17
4.240000E+03	1.056282E-15	3.034625E-17
4.250000E+03	1.056491E-15	3.005289E-17
4.260000E+03	1.057034E-15	2.977048E-17
4.270000E+03	1.057928E-15	2.949924E-17
4.280000E+03	1.059174E-15	2.923897E-17
4.290000E+03	1.060778E-15	2.898965E-17
4.300000E+03	1.062735E-15	2.875095E-17
4.310000E+03	1.065044E-15	2.852260E-17
4.320000E+03	1.067704E-15	2.830440E-17
4.330000E+03	1.070719E-15	2.809625E-17
4.340000E+03	1.074075E-15	2.789764E-17
4.350000E+03	1.077770E-15	2.770832E-17
4.360000E+03	1.081790E-15	2.752776E-17
4.370000E+03	1.086129E-15	2.735573E-17
4.380000E+03	1.090777E-15	2.719180E-17
4.390000E+03	1.095741E-15	2.703605E-17
4.400000E+03	1.101000E-15	2.688785E-17
4.410000E+03	1.106545E-15	2.674690E-17
4.420000E+03	1.112357E-15	2.661266E-17
4.430000E+03	1.118423E-15	2.648478E-17
4.440000E+03	1.124699E-15	2.636217E-17
4.450000E+03	1.131138E-15	2.624375E-17
4.460000E+03	1.137705E-15	2.612857E-17
4.470000E+03	1.144352E-15	2.601553E-17
4.480000E+03	1.151034E-15	2.590356E-17
4.490000E+03	1.157693E-15	2.579135E-17
4.500000E+03	1.164294E-15	2.567824E-17
4.510000E+03	1.170786E-15	2.556314E-17
4.520000E+03	1.177136E-15	2.544541E-17
4.530000E+03	1.183309E-15	2.532447E-17
4.540000E+03	1.189262E-15	2.519952E-17
4.550000E+03	1.194988E-15	2.507059E-17
4.560000E+03	1.200466E-15	2.493740E-17
4.570000E+03	1.205693E-15	2.480007E-17
4.580000E+03	1.210654E-15	2.465849E-17
4.590000E+03	1.215369E-15	2.451321E-17
4.600000E+03	1.219834E-15	2.436433E-17
4.610000E+03	1.224081E-15	2.421267E-17
4.620000E+03	1.228113E-15	2.405844E-17
4.630000E+03	1.231961E-15	2.390236E-17
4.640000E+03	1.235646E-15	2.374499E-17
4.650000E+03	1.239211E-15	2.358729E-17
4.660000E+03	1.242673E-15	2.342962E-17
4.670000E+03	1.246080E-15	2.327300E-17
4.680000E+03	1.249459E-15	2.311797E-17
4.690000E+03	1.252836E-15	2.296509E-17
4.700000E+03	1.256257E-15	2.281524E-17
4.710000E+03	1.259735E-15	2.266867E-17
4.720000E+03	1.263299E-15	2.252592E-17
4.730000E+03	1.266953E-15	2.238706E-17
4.740000E+03	1.270717E-15	2.225250E-17
4.750000E+03	1.274572E-15	2.212190E-17
4.760000E+03	1.278528E-15	2.199546E-17
4.770000E+03	1.282565E-15	2.187289E-17
4.780000E+03	1.286683E-15	2.175420E-17
4.790000E+03	1.290853E-15	2.163901E-17
4.800000E+03	1.295056E-15	2.152703E-17
4.810000E+03	1.299266E-15	2.141794E-17
4.820000E+03	1.303463E-15	2.131151E-17
4.830000E+03	1.307619E-15	2.120740E-17
4.840000E+03	1.311697E-15	2.110514E-17
4.850000E+03	1.315689E-15	2.100474E-17
4.860000E+03	1.319573E-15	2.090601E-17
4.870000E+03	1.323332E-15	2.080884E-17
4.880000E+03	1.326975E-15	2.071353E-17
4.890000E+03	1.330522E-15	2.062056E-17
4.900000E+03	1.333964E-15	2.052993E-17
4.910000E+03	1.337341E-15	2.044231E-17
4.920000E+03	1.340660E-15	2.035774E-17
4.930000E+03	1.343925E-15	2.027622E-17
4.940000E+03	1.347173E-15	2.019826E-17
4.950000E+03	1.350428E-15	2.012412E-17
4.960000E+03	1.353697E-15	2.005385E-17
4.970000E+03	1.357019E-15	1.998795E-17
4.980000E+03	1.360393E-15	1.992632E-17
4.990000E+03	1.363867E-15	1.986957E-17
5.000000E+03	1.367452E-15	1.981780E-17
5.010000E+03	1.371155E-15	1.977102E-17
5.020000E+03	1.375009E-15	1.972964E-17
5.030000E+03	1.379018E-15	1.969363E-17
5.040000E+03	1.383199E-15	1.966318E-17
5.050000E+03	1.387560E-15	1.963833E-17
5.060000E+03	1.392109E-15	1.961917E-17
5.070000E+03	1.396834E-15	1.960546E-17
5.080000E+03	1.401743E-15	1.959730E-17
5.090000E+03	1.406813E-15	1.959433E-17
5.100000E+03	1.412028E-15	1.959633E-17
5.110000E+03	1.417348E-15	1.960276E-17
5.120000E+03	1.422763E-15	1.961347E-17
5.130000E+03	1.428208E-15	1.962763E-17
5.140000E+03	1.433674E-15	1.964516E-17
5.150000E+03	1.439092E-15	1.966517E-17
5.160000E+03	1.444432E-15	1.968732E-17
5.170000E+03	1.449630E-15	1.971084E-17
5.180000E+03	1.454628E-15	1.973502E-17
5.190000E+03	1.459390E-15	1.975951E-17
5.200000E+03	1.463851E-15	1.978353E-17
5.210000E+03	1.467966E-15	1.980660E-17
5.220000E+03	1.471690E-15	1.982826E-17
5.230000E+03	1.474966E-15	1.984785E-17
5.240000E+03	1.477758E-15	1.986504E-17
5.250000E+03	1.480015E-15	1.987929E-17
5.260000E+03	1.481724E-15	1.989056E-17
5.270000E+03	1.482848E-15	1.989846E-17
5.280000E+03	1.483370E-15	1.990290E-17
5.290000E+03	1.483278E-15	1.990384E-17
5.300000E+03	1.482553E-15	1.990114E-17
5.310000E+03	1.481200E-15	1.989494E-17
5.320000E+03	1.479229E-15	1.988547E-17
5.330000E+03	1.476661E-15	1.987307E-17
5.340000E+03	1.473516E-15	1.985796E-17
5.350000E+03	1.469857E-15	1.984079E-17
5.360000E+03	1.465744E-15	1.982220E-17
5.370000E+03	1.461241E-15	1.980287E-17
5.380000E+03	1.456403E-15	1.978328E-17
5.390000E+03	1.451330E-15	1.976445E-17
5.400000E+03	1.446068E-15	1.974667E-17
5.410000E+03	1.440675E-15	1.973038E-17
5.420000E+03	1.435110E-15	1.971470E-17
5.430000E+03	1.429338E-15	1.969881E-17
5.440000E+03	1.423304E-15	1.968162E-17
5.450000E+03	1.416982E-15	1.966243E-17
5.460000E+03	1.410309E-15	1.964006E-17
5.470000E+03	1.403228E-15	1.961338E-17
5.480000E+03	1.395683E-15	1.958124E-17
5.490000E+03	1.387654E-15	1.954307E-17
5.500000E+03	1.379112E-15	1.949811E-17
5.510000E+03	1.370049E-15	1.944593E-17
5.520000E+03	1.360471E-15	1.938630E-17
5.530000E+03	1.350396E-15	1.931918E-17
5.540000E+03	1.339848E-15	1.924462E-17
5.550000E+03	1.328875E-15	1.916307E-17
5.560000E+03	1.317519E-15	1.907486E-17
5.570000E+03	1.305850E-15	1.898078E-17
5.580000E+03	1.293906E-15	1.888122E-17
5.590000E+03	1.281780E-15	1.877731E-17
5.600000E+03	1.269512E-15	1.866952E-17
5.610000E+03	1.257187E-15	1.855895E-17
5.620000E+03	1.244885E-15	1.844668E-17
5.630000E+03	1.232648E-15	1.833329E-17
5.640000E+03	1.220580E-15	1.822022E-17
5.650000E+03	1.208730E-15	1.810819E-17
5.660000E+03	1.197140E-15	1.799781E-17
5.670000E+03	1.185900E-15	1.789044E-17
5.680000E+03	1.175026E-15	1.778634E-17
5.690000E+03	1.164568E-15	1.768631E-17
5.700000E+03	1.154563E-15	1.759095E-17
5.710000E+03	1.145032E-15	1.750062E-17
5.720000E+03	1.135983E-15	1.741551E-17
5.730000E+03	1.127419E-15	1.733576E-17
5.740000E+03	1.119343E-15	1.726148E-17
5.750000E+03	1.111756E-15	1.719275E-17
5.760000E+03	1.104612E-15	1.712893E-17
5.770000E+03	1.097918E-15	1.707022E-17
5.780000E+03	1.091618E-15	1.701583E-17
5.790000E+03	1.085694E-15	1.696555E-17
5.800000E+03	1.080093E-15	1.691864E-17
5.810000E+03	1.074778E-15	1.687458E-17
5.820000E+03	1.069702E-15	1.683270E-17
5.830000E+03	1.064822E-15	1.679241E-17
5.840000E+03	1.060076E-15	1.675280E-17
5.850000E+03	1.055411E-15	1.671309E-17
5.860000E+03	1.050787E-15	1.667272E-17
5.870000E+03	1.046161E-15	1.663108E-17
5.880000E+03	1.041461E-15	1.658708E-17
5.890000E+03	1.036660E-15	1.654037E-17
5.900000E+03	1.031700E-15	1.649006E-17
5.910000E+03	1.026546E-15	1.643569E-17
5.920000E+03	1.021155E-15	1.637664E-17
5.930000E+03	1.015480E-15	1.631218E-17
5.940000E+03	1.009496E-15	1.624203E-17
5.950000E+03	1.003174E-15	1.616576E-17
5.960000E+03	9.964771E-16	1.608285E-17
5.970000E+03	9.894096E-16	1.599344E-17
5.980000E+03	9.819353E-16	1.589702E-17
5.990000E+03	9.740597E-16	1.579374E-17
6.000000E+03	9.657820E-16	1.568366E-17
6.010000E+03	9.570978E-16	1.556677E-17
6.020000E+03	9.480327E-16	1.544356E-17
6.030000E+03	9.385839E-16	1.531405E-17
6.040000E+03	9.287997E-16	1.517909E-17
6.050000E+03	9.186902E-16	1.503891E-17
6.060000E+03	9.083031E-16	1.489436E-17
6.070000E+03	8.976684E-16	1.474597E-17
6.080000E+03	8.868299E-16	1.459453E-17
6.090000E+03	8.758232E-16	1.444068E-17
6.100000E+03	8.646852E-16	1.428508E-17
6.110000E+03	8.534741E-16	1.412874E-17
6.120000E+03	8.422070E-16	1.397199E-17
6.130000E+03	8.309420E-16	1.381584E-17
6.140000E+03	8.197062E-16	1.366078E-17
6.150000E+03	8.085469E-16	1.350764E-17
6.160000E+03	7.974719E-16	1.335658E-17
6.170000E+03	7.865374E-16	1.320847E-17
6.180000E+03	7.757596E-16	1.306348E-17
6.190000E+03	7.651750E-16	1.292211E-17
6.200000E+03	7.548150E-16	1.278479E-17
6.210000E+03	7.447788E-16	1.265314E-17
6.220000E+03	7.352168E-16	1.252963E-17
6.230000E+03	7.262804E-16	1.241683E-17
6.240000E+03	7.181093E-16	1.231714E-17
6.250000E+03	7.108007E-16	1.223224E-17
6.260000E+03	7.044819E-16	1.216440E-17
6.270000E+03	6.992074E-16	1.211464E-17
6.280000E+03	6.950508E-16	1.208435E-17
6.290000E+03	6.920590E-16	1.207448E-17
6.300000E+03	6.902355E-16	1.208524E-17
6.310000E+03	6.895965E-16	1.211705E-17
6.320000E+03	6.901368E-16	1.217000E-17
6.330000E+03	6.918411E-16	1.224398E-17
6.340000E+03	6.946666E-16	1.233839E-17
6.350000E+03	6.985823E-16	1.245285E-17
6.360000E+03	7.035418E-16	1.258669E-17
6.370000E+03	7.094937E-16	1.273914E-17
6.380000E+03	7.163712E-16	1.290915E-17
6.390000E+03	7.241026E-16	1.309556E-17
6.400000E+03	7.326111E-16	1.329709E-17
6.410000E+03	7.418260E-16	1.351256E-17
6.420000E+03	7.516621E-16	1.374051E-17
6.430000E+03	7.620083E-16	1.397898E-17
6.440000E+03	7.728164E-16	1.422713E-17
6.450000E+03	7.840049E-16	1.448350E-17
6.460000E+03	7.955026E-16	1.474681E-17
6.470000E+03	8.072516E-16	1.501598E-17
6.480000E+03	8.191588E-16	1.528928E-17
6.490000E+03	8.311683E-16	1.556566E-17
6.500000E+03	8.432012E-16	1.584360E-17
6.510000E+03	8.551928E-16	1.612185E-17
6.520000E+03	8.670392E-16	1.639840E-17
6.530000E+03	8.787031E-16	1.667246E-17
6.540000E+03	8.900804E-16	1.694199E-17
6.550000E+03	9.011068E-16	1.720567E-17
6.560000E+03	9.117038E-16	1.746190E-17
6.570000E+03	9.217780E-16	1.770878E-17
6.580000E+03	9.312650E-16	1.794494E-17
6.590000E+03	9.400879E-16	1.816877E-17
6.600000E+03	9.481573E-16	1.837841E-17
6.610000E+03	9.554035E-16	1.857235E-17
6.620000E+03	9.617637E-16	1.874920E-17
6.630000E+03	9.671995E-16	1.890808E-17
6.640000E+03	9.716355E-16	1.904733E-17
6.650000E+03	9.750578E-16	1.916646E-17
6.660000E+03	9.774500E-16	1.926493E-17
6.670000E+03	9.787894E-16	1.934207E-17
6.680000E+03	9.791017E-16	1.939818E-17
6.690000E+03	9.783889E-16	1.943308E-17
6.700000E+03	9.766974E-16	1.944750E-17
6.710000E+03	9.740354E-16	1.944143E-17
6.720000E+03	9.704669E-16	1.941597E-17
6.730000E+03	9.660654E-16	1.937244E-17
6.740000E+03	9.608597E-16	1.931128E-17
6.750000E+03	9.549331E-16	1.923405E-17
6.760000E+03	9.483394E-16	1.914172E-17
6.770000E+03	9.411674E-16	1.903601E-17
6.780000E+03	9.334738E-16	1.891800E-17
6.790000E+03	9.253322E-16	1.878912E-17
6.800000E+03	9.168310E-16	1.865113E-17
6.810000E+03	9.080074E-16	1.850476E-17
6.820000E+03	8.989609E-16	1.835204E-17
6.830000E+03	8.897219E-16	1.819358E-17
6.840000E+03	8.803813E-16	1.803125E-17
6.850000E+03	8.709604E-16	1.786552E-17
6.860000E+03	8.615080E-16	1.769742E-17
6.870000E+03	8.520831E-16	1.752819E-17
6.880000E+03	8.427189E-16	1.735856E-17
6.890000E+03	8.334075E-16	1.718842E-17
6.900000E+03	8.241984E-16	1.701883E-17
6.910000E+03	8.150912E-16	1.684985E-17
6.920000E+03	8.061131E-16	1.668210E-17
6.930000E+03	7.972433E-16	1.651519E-17
6.940000E+03	7.885044E-16	1.634967E-17
6.950000E+03	7.799018E-16	1.618570E-17
6.960000E+03	7.714243E-16	1.602310E-17
6.970000E+03	7.630887E-16	1.586230E-17
6.980000E+03	7.548950E-16	1.570336E-17
6.990000E+03	7.468278E-16	1.554602E-17
7.000000E+03	7.388849E-16	1.539030E-17
7.010000E+03	7.310630E-16	1.523619E-17
7.020000E+03	7.233724E-16	1.508398E-17
7.030000E+03	7.157804E-16	1.493304E-17
7.040000E+03	7.083107E-16	1.478394E-17
7.050000E+03	7.009306E-16	1.463607E-17
7.060000E+03	6.936503E-16	1.448969E-17
7.070000E+03	6.864524E-16	1.434452E-17
7.080000E+03	6.793480E-16	1.420085E-17
7.090000E+03	6.723345E-16	1.405869E-17
7.100000E+03	6.653973E-16	1.391780E-17
7.110000E+03	6.585223E-16	1.377796E-17
7.120000E+03	6.517362E-16	1.363980E-17
7.130000E+03	6.450262E-16	1.350310E-17
7.140000E+03	6.383934E-16	1.336796E-17
7.150000E+03	6.318393E-16	1.323449E-17
7.160000E+03	6.253528E-16	1.310250E-17
7.170000E+03	6.189488E-16	1.297239E-17
7.180000E+03	6.126169E-16	1.284400E-17
7.190000E+03	6.063598E-16	1.271745E-17
7.200000E+03	6.001922E-16	1.259311E-17
7.210000E+03	5.941039E-16	1.247085E-17
7.220000E+03	5.881099E-16	1.235103E-17
7.230000E+03	5.821874E-16	1.223324E-17
7.240000E+03	5.763511E-16	1.211786E-17
7.250000E+03	5.706033E-16	1.200500E-17
7.260000E+03	5.649462E-16	1.189476E-17
7.270000E+03	5.593826E-16	1.178727E-17
7.280000E+03	5.539154E-16	1.168264E-17
7.290000E+03	5.485359E-16	1.158077E-17
7.300000E+03	5.432597E-16	1.148203E-17
7.310000E+03	5.380909E-16	1.138657E-17
7.320000E+03	5.330336E-16	1.129454E-17
7.330000E+03	5.280807E-16	1.120586E-17
7.340000E+03	5.232484E-16	1.112091E-17
7.350000E+03	5.185526E-16	1.104010E-17
7.360000E+03	5.139745E-16	1.096308E-17
7.370000E+03	5.095300E-16	1.089026E-17
7.380000E+03	5.052225E-16	1.082177E-17
7.390000E+03	5.010668E-16	1.075799E-17
7.400000E+03	4.970548E-16	1.069880E-17
7.410000E+03	4.932003E-16	1.064457E-17
7.420000E+03	4.895162E-16	1.059563E-17
7.430000E+03	4.859931E-16	1.055186E-17
7.440000E+03	4.826537E-16	1.051381E-17
7.450000E+03	4.794759E-16	1.048108E-17
7.460000E+03	4.764690E-16	1.045394E-17
7.470000E+03	4.736194E-16	1.043216E-17
7.480000E+03	4.709333E-16	1.041595E-17
7.490000E+03	4.683825E-16	1.040477E-17
7.500000E+03	4.659698E-16	1.039873E-17
7.510000E+03	4.636847E-16	1.039769E-17
7.520000E+03	4.615047E-16	1.040119E-17
7.530000E+03	4.594375E-16	1.040948E-17
7.540000E+03	4.574464E-16	1.042174E-17
7.550000E+03	4.555258E-16	1.043780E-17
7.560000E+03	4.536476E-16	1.045696E-17
7.570000E+03	4.518046E-16	1.047900E-17
7.580000E+03	4.499675E-16	1.050317E-17
7.590000E+03	4.481288E-16	1.052921E-17
7.600000E+03	4.462596E-16	1.055637E-17
7.610000E+03	4.443425E-16	1.058412E-17
7.620000E+03	4.423718E-16	1.061224E-17
7.630000E+03	4.403216E-16	1.063997E-17
7.640000E+03	4.381788E-16	1.066689E-17
7.650000E+03	4.359485E-16	1.069297E-17
7.660000E+03	4.336235E-16	1.071790E-17
7.670000E+03	4.312209E-16	1.074198E-17
7.680000E+03	4.287264E-16	1.076471E-17
7.690000E+03	4.261689E-16	1.078669E-17
7.700000E+03	4.235558E-16	1.080797E-17
7.710000E+03	4.208842E-16	1.082837E-17
7.720000E+03	4.181728E-16	1.084825E-17
7.730000E+03	4.154186E-16	1.086741E-17
7.740000E+03	4.126289E-16	1.088596E-17
7.750000E+03	4.098218E-16	1.090426E-17
7.760000E+03	4.070041E-16	1.092241E-17
