#wls	flux	fluxerr
1.600000E+03	1.644786E-16	1.498013E-17
1.640000E+03	1.696799E-16	1.537073E-17
1.680000E+03	1.752483E-16	1.578737E-17
1.720000E+03	1.811963E-16	1.623037E-17
1.760000E+03	1.875519E-16	1.670144E-17
1.800000E+03	1.943588E-16	1.720352E-17
1.840000E+03	2.015949E-16	1.773369E-17
1.880000E+03	2.093183E-16	1.829603E-17
1.920000E+03	2.175380E-16	1.889017E-17
1.960000E+03	2.262609E-16	1.951553E-17
2.000000E+03	2.354776E-16	2.017005E-17
2.040000E+03	2.451933E-16	2.085289E-17
2.080000E+03	2.553797E-16	2.156035E-17
2.120000E+03	2.659753E-16	2.228596E-17
2.160000E+03	2.769661E-16	2.302732E-17
2.200000E+03	2.882729E-16	2.377663E-17
2.240000E+03	2.998317E-16	2.452755E-17
2.280000E+03	3.116104E-16	2.527644E-17
2.320000E+03	3.236076E-16	2.602220E-17
2.360000E+03	3.358683E-16	2.676742E-17
2.400000E+03	3.484508E-16	2.751559E-17
2.440000E+03	3.614114E-16	2.826982E-17
2.480000E+03	3.748501E-16	2.903642E-17
2.520000E+03	3.888165E-16	2.981750E-17
2.560000E+03	4.033881E-16	3.061707E-17
2.600000E+03	4.185917E-16	3.143506E-17
2.640000E+03	4.344666E-16	3.227215E-17
2.680000E+03	4.510174E-16	3.312636E-17
2.720000E+03	4.682462E-16	3.399536E-17
2.760000E+03	4.861518E-16	3.487661E-17
2.800000E+03	5.047149E-16	3.576620E-17
2.840000E+03	5.239144E-16	3.666011E-17
2.880000E+03	5.437558E-16	3.755620E-17
2.920000E+03	5.642126E-16	3.845010E-17
2.960000E+03	5.853285E-16	3.934221E-17
3.000000E+03	6.071006E-16	4.022964E-17
3.010000E+03	6.126663E-16	4.045178E-17
3.020000E+03	6.182665E-16	4.067298E-17
3.030000E+03	6.239000E-16	4.089313E-17
3.040000E+03	6.295940E-16	4.111395E-17
3.050000E+03	6.353334E-16	4.133441E-17
3.060000E+03	6.411171E-16	4.155440E-17
3.070000E+03	6.469581E-16	4.177471E-17
3.080000E+03	6.528415E-16	4.199432E-17
3.090000E+03	6.587661E-16	4.221312E-17
3.100000E+03	6.647585E-16	4.243275E-17
3.110000E+03	6.707900E-16	4.265134E-17
3.120000E+03	6.768734E-16	4.286965E-17
3.130000E+03	6.829941E-16	4.308671E-17
3.140000E+03	6.891917E-16	4.330496E-17
3.150000E+03	6.954244E-16	4.352172E-17
3.160000E+03	7.017049E-16	4.373774E-17
3.170000E+03	7.080453E-16	4.395374E-17
3.180000E+03	7.144449E-16	4.416959E-17
3.190000E+03	7.208756E-16	4.438353E-17
3.200000E+03	7.273767E-16	4.459792E-17
3.210000E+03	7.339203E-16	4.481100E-17
3.220000E+03	7.405190E-16	4.502348E-17
3.230000E+03	7.471584E-16	4.523444E-17
3.240000E+03	7.538508E-16	4.544459E-17
3.250000E+03	7.605954E-16	4.565381E-17
3.260000E+03	7.673911E-16	4.586200E-17
3.270000E+03	7.742242E-16	4.606828E-17
3.280000E+03	7.811068E-16	4.627335E-17
3.290000E+03	7.880383E-16	4.647710E-17
3.300000E+03	7.950047E-16	4.667868E-17
3.310000E+03	8.020185E-16	4.687878E-17
3.320000E+03	8.090662E-16	4.707657E-17
3.330000E+03	8.161599E-16	4.727271E-17
3.340000E+03	8.232865E-16	4.746640E-17
3.350000E+03	8.304454E-16	4.765757E-17
3.360000E+03	8.376363E-16	4.784618E-17
3.370000E+03	8.448590E-16	4.803217E-17
3.380000E+03	8.521130E-16	4.821551E-17
3.390000E+03	8.593858E-16	4.839543E-17
3.400000E+03	8.666898E-16	4.857263E-17
3.410000E+03	8.740000E-16	4.874568E-17
3.420000E+03	8.813415E-16	4.891596E-17
3.430000E+03	8.886898E-16	4.908209E-17
3.440000E+03	8.960450E-16	4.924406E-17
3.450000E+03	9.034079E-16	4.940192E-17
3.460000E+03	9.107667E-16	4.955501E-17
3.470000E+03	9.181341E-16	4.970403E-17
3.480000E+03	9.254990E-16	4.984836E-17
3.490000E+03	9.328500E-16	4.998741E-17
3.500000E+03	9.401884E-16	5.012125E-17
3.510000E+03	9.475032E-16	5.024932E-17
3.520000E+03	9.548079E-16	5.037235E-17
3.530000E+03	9.620682E-16	5.048854E-17
3.540000E+03	9.692977E-16	5.059866E-17
3.550000E+03	9.764864E-16	5.070221E-17
3.560000E+03	9.836364E-16	5.079935E-17
3.570000E+03	9.907263E-16	5.088902E-17
3.580000E+03	9.977468E-16	5.097080E-17
3.590000E+03	1.004712E-15	5.104547E-17
3.600000E+03	1.011591E-15	5.111151E-17
3.610000E+03	1.018396E-15	5.116969E-17
3.620000E+03	1.025121E-15	5.121969E-17
3.630000E+03	1.031745E-15	5.126064E-17
3.640000E+03	1.038260E-15	5.129216E-17
3.640048E+03	1.142487E-15	5.643966E-17
3.645566E+03	1.138464E-15	5.606404E-17
3.651084E+03	1.137331E-15	5.583140E-17
3.656602E+03	1.126891E-15	5.514365E-17
3.662120E+03	1.121668E-15	5.471356E-17
3.667637E+03	1.114595E-15	5.419509E-17
3.673155E+03	1.107491E-15	5.367725E-17
3.678673E+03	1.104667E-15	5.336831E-17
3.684191E+03	1.097238E-15	5.283845E-17
3.689709E+03	1.086956E-15	5.217389E-17
3.695227E+03	1.080563E-15	5.169860E-17
3.700745E+03	1.074336E-15	5.123315E-17
3.706263E+03	1.072642E-15	5.098506E-17
3.711781E+03	1.060797E-15	5.025657E-17
3.717299E+03	1.051164E-15	4.963620E-17
3.722817E+03	1.038056E-15	4.885527E-17
3.728335E+03	1.032072E-15	4.841257E-17
3.733853E+03	1.018432E-15	4.761382E-17
3.739371E+03	1.003169E-15	4.674367E-17
3.744889E+03	9.883341E-16	4.589816E-17
3.750406E+03	9.818556E-16	4.544409E-17
3.755924E+03	9.737810E-16	4.491840E-17
3.761442E+03	9.682963E-16	4.451429E-17
3.766960E+03	9.721183E-16	4.453832E-17
3.772478E+03	9.726351E-16	4.441025E-17
3.777996E+03	9.815398E-16	4.466374E-17
3.783514E+03	9.950407E-16	4.512290E-17
3.789032E+03	1.012849E-15	4.577257E-17
3.794550E+03	1.033964E-15	4.656562E-17
3.800068E+03	1.034513E-15	4.642911E-17
3.805586E+03	1.051602E-15	4.703228E-17
3.811104E+03	1.071558E-15	4.775795E-17
3.816622E+03	1.091534E-15	4.847834E-17
3.822140E+03	1.102249E-15	4.878276E-17
3.827657E+03	1.122798E-15	4.951764E-17
3.833175E+03	1.131716E-15	4.973503E-17
3.838693E+03	1.135418E-15	4.972135E-17
3.844211E+03	1.154926E-15	5.039636E-17
3.849729E+03	1.168781E-15	5.081957E-17
3.855247E+03	1.173863E-15	5.085858E-17
3.860765E+03	1.189442E-15	5.134927E-17
3.866283E+03	1.196072E-15	5.145033E-17
3.871801E+03	1.206142E-15	5.169692E-17
3.877319E+03	1.218150E-15	5.202331E-17
3.882837E+03	1.216741E-15	5.177527E-17
3.888355E+03	1.217090E-15	5.160233E-17
3.893873E+03	1.226076E-15	5.179436E-17
3.899390E+03	1.234676E-15	5.196756E-17
3.904908E+03	1.238429E-15	5.193503E-17
3.910426E+03	1.236113E-15	5.164799E-17
3.915944E+03	1.231142E-15	5.125139E-17
3.921462E+03	1.225325E-15	5.082139E-17
3.926980E+03	1.226750E-15	5.069269E-17
3.932498E+03	1.215216E-15	5.003029E-17
3.938016E+03	1.206678E-15	4.949454E-17
3.943534E+03	1.202383E-15	4.913502E-17
3.949052E+03	1.199004E-15	4.881439E-17
3.954570E+03	1.190250E-15	4.827704E-17
3.960088E+03	1.188532E-15	4.802695E-17
3.965606E+03	1.180787E-15	4.753504E-17
3.971124E+03	1.175153E-15	4.713044E-17
3.976642E+03	1.173801E-15	4.689891E-17
3.982159E+03	1.180302E-15	4.698075E-17
3.987677E+03	1.179801E-15	4.678325E-17
3.993195E+03	1.183916E-15	4.676858E-17
3.998713E+03	1.187062E-15	4.671492E-17
4.004231E+03	1.198455E-15	4.698395E-17
4.009749E+03	1.206760E-15	4.712937E-17
4.015267E+03	1.213374E-15	4.720689E-17
4.020785E+03	1.218169E-15	4.721232E-17
4.026303E+03	1.226748E-15	4.736285E-17
4.031821E+03	1.218609E-15	4.686831E-17
4.037339E+03	1.216702E-15	4.661532E-17
4.042857E+03	1.222086E-15	4.664163E-17
4.048375E+03	1.220706E-15	4.640962E-17
4.053892E+03	1.224041E-15	4.635712E-17
4.059410E+03	1.230718E-15	4.643016E-17
4.064928E+03	1.227484E-15	4.612928E-17
4.070446E+03	1.226785E-15	4.592474E-17
4.075964E+03	1.226739E-15	4.574527E-17
4.081482E+03	1.220885E-15	4.535060E-17
4.087000E+03	1.219656E-15	4.512927E-17
4.092518E+03	1.221094E-15	4.500715E-17
4.098036E+03	1.216590E-15	4.466705E-17
4.103554E+03	1.213091E-15	4.436555E-17
4.109072E+03	1.214227E-15	4.423444E-17
4.114590E+03	1.204673E-15	4.371572E-17
4.120108E+03	1.205579E-15	4.357842E-17
4.125626E+03	1.203257E-15	4.332523E-17
4.131144E+03	1.199796E-15	4.303248E-17
4.136661E+03	1.194665E-15	4.268171E-17
4.142179E+03	1.188494E-15	4.229595E-17
4.147697E+03	1.181810E-15	4.189442E-17
4.153215E+03	1.169757E-15	4.130580E-17
4.158733E+03	1.165010E-15	4.097814E-17
4.164251E+03	1.153344E-15	4.041005E-17
4.169769E+03	1.143237E-15	3.990029E-17
4.175287E+03	1.138673E-15	3.958664E-17
4.180805E+03	1.135069E-15	3.930821E-17
4.186323E+03	1.128975E-15	3.894556E-17
4.191841E+03	1.130822E-15	3.885814E-17
4.197359E+03	1.133433E-15	3.879716E-17
4.202877E+03	1.138665E-15	3.882560E-17
4.208395E+03	1.138741E-15	3.867831E-17
4.213912E+03	1.141030E-15	3.860671E-17
4.219430E+03	1.138894E-15	3.838613E-17
4.224948E+03	1.140780E-15	3.830198E-17
4.230466E+03	1.140680E-15	3.815175E-17
4.235984E+03	1.144379E-15	3.812897E-17
4.241502E+03	1.148924E-15	3.813419E-17
4.247020E+03	1.152069E-15	3.809288E-17
4.252538E+03	1.160017E-15	3.820988E-17
4.258056E+03	1.167820E-15	3.832104E-17
4.263574E+03	1.172157E-15	3.831788E-17
4.269092E+03	1.177904E-15	3.836057E-17
4.274610E+03	1.183479E-15	3.839723E-17
4.280128E+03	1.186909E-15	3.836425E-17
4.285645E+03	1.184736E-15	3.815102E-17
4.291163E+03	1.180743E-15	3.788093E-17
4.296681E+03	1.175902E-15	3.758572E-17
4.302199E+03	1.175362E-15	3.742973E-17
4.307717E+03	1.172258E-15	3.719356E-17
4.313235E+03	1.170279E-15	3.699478E-17
4.318753E+03	1.174514E-15	3.699327E-17
4.324271E+03	1.171404E-15	3.676143E-17
4.329789E+03	1.171378E-15	3.662784E-17
4.335307E+03	1.169500E-15	3.643769E-17
4.340825E+03	1.168056E-15	3.626264E-17
4.346343E+03	1.162313E-15	3.595606E-17
4.351861E+03	1.163983E-15	3.588045E-17
4.357379E+03	1.170962E-15	3.596876E-17
4.362896E+03	1.175500E-15	3.598209E-17
4.368414E+03	1.181720E-15	3.604698E-17
4.373932E+03	1.191224E-15	3.621165E-17
4.379450E+03	1.200143E-15	3.635793E-17
4.384968E+03	1.208710E-15	3.649303E-17
4.390486E+03	1.220828E-15	3.673456E-17
4.396004E+03	1.235699E-15	3.705760E-17
4.401522E+03	1.250068E-15	3.736403E-17
4.407040E+03	1.263080E-15	3.762864E-17
4.412558E+03	1.276106E-15	3.789257E-17
4.418076E+03	1.285491E-15	3.804773E-17
4.423594E+03	1.299630E-15	3.834289E-17
4.429112E+03	1.311813E-15	3.857938E-17
4.434630E+03	1.319776E-15	3.869145E-17
4.440148E+03	1.328916E-15	3.883796E-17
4.445665E+03	1.335647E-15	3.891420E-17
4.451183E+03	1.338691E-15	3.888368E-17
4.456701E+03	1.341946E-15	3.886021E-17
4.462219E+03	1.344836E-15	3.882718E-17
4.467737E+03	1.348222E-15	3.880941E-17
4.473255E+03	1.349367E-15	3.872823E-17
4.478773E+03	1.356400E-15	3.881684E-17
4.484291E+03	1.354832E-15	3.866033E-17
4.489809E+03	1.356022E-15	3.858401E-17
4.495327E+03	1.358775E-15	3.855328E-17
4.500845E+03	1.356278E-15	3.837496E-17
4.506363E+03	1.355104E-15	3.823582E-17
4.511881E+03	1.359726E-15	3.826134E-17
4.517399E+03	1.361941E-15	3.821997E-17
4.522916E+03	1.357767E-15	3.800085E-17
4.528434E+03	1.357300E-15	3.788716E-17
4.533952E+03	1.356928E-15	3.777754E-17
4.539470E+03	1.351284E-15	3.752286E-17
4.544988E+03	1.346307E-15	3.728880E-17
4.550506E+03	1.346903E-15	3.721067E-17
4.556024E+03	1.341326E-15	3.696361E-17
4.561542E+03	1.334528E-15	3.668499E-17
4.567060E+03	1.328502E-15	3.642969E-17
4.572578E+03	1.318496E-15	3.606751E-17
4.578096E+03	1.311282E-15	3.578405E-17
4.583614E+03	1.298191E-15	3.534267E-17
4.589132E+03	1.286656E-15	3.494639E-17
4.594650E+03	1.277495E-15	3.461698E-17
4.600167E+03	1.264053E-15	3.417409E-17
4.605685E+03	1.255618E-15	3.386897E-17
4.611203E+03	1.247902E-15	3.358527E-17
4.616721E+03	1.241354E-15	3.333487E-17
4.622239E+03	1.236451E-15	3.313031E-17
4.627757E+03	1.226707E-15	3.279788E-17
4.633275E+03	1.219976E-15	3.254793E-17
4.638793E+03	1.212490E-15	3.227958E-17
4.644311E+03	1.203772E-15	3.198025E-17
4.649829E+03	1.194693E-15	3.167323E-17
4.655347E+03	1.186676E-15	3.139620E-17
4.660865E+03	1.182946E-15	3.123406E-17
4.666383E+03	1.181023E-15	3.112080E-17
4.671900E+03	1.175702E-15	3.091922E-17
4.677418E+03	1.176389E-15	3.087670E-17
4.682936E+03	1.173440E-15	3.073966E-17
4.688454E+03	1.169601E-15	3.058044E-17
4.693972E+03	1.168866E-15	3.050339E-17
4.699490E+03	1.164147E-15	3.032341E-17
4.705008E+03	1.162664E-15	3.022877E-17
4.710526E+03	1.165714E-15	3.025264E-17
4.716044E+03	1.168111E-15	3.026008E-17
4.721562E+03	1.165175E-15	3.013007E-17
4.727080E+03	1.170184E-15	3.020616E-17
4.732598E+03	1.172292E-15	3.020772E-17
4.738116E+03	1.178669E-15	3.031961E-17
4.743634E+03	1.185796E-15	3.045088E-17
4.749151E+03	1.189330E-15	3.049012E-17
4.754669E+03	1.190012E-15	3.045671E-17
4.760187E+03	1.195095E-15	3.053636E-17
4.765705E+03	1.198858E-15	3.058259E-17
4.771223E+03	1.203317E-15	3.064686E-17
4.776741E+03	1.213681E-15	3.086157E-17
4.782259E+03	1.215817E-15	3.086719E-17
4.787777E+03	1.219068E-15	3.090154E-17
4.793295E+03	1.227534E-15	3.106826E-17
4.798813E+03	1.233595E-15	3.117414E-17
4.804331E+03	1.241877E-15	3.133623E-17
4.809849E+03	1.250820E-15	3.151496E-17
4.815367E+03	1.260501E-15	3.171219E-17
4.820885E+03	1.263886E-15	3.175115E-17
4.826403E+03	1.263491E-15	3.169562E-17
4.831920E+03	1.265499E-15	3.170092E-17
4.837438E+03	1.263649E-15	3.161014E-17
4.842956E+03	1.262616E-15	3.154050E-17
4.848474E+03	1.260739E-15	3.145041E-17
4.853992E+03	1.259177E-15	3.136887E-17
4.859510E+03	1.259829E-15	3.134307E-17
4.865028E+03	1.254966E-15	3.118072E-17
4.870546E+03	1.247389E-15	3.095189E-17
4.876064E+03	1.245006E-15	3.085278E-17
4.881582E+03	1.241939E-15	3.073738E-17
4.887100E+03	1.234159E-15	3.050619E-17
4.892618E+03	1.231438E-15	3.040082E-17
4.898136E+03	1.227297E-15	3.026109E-17
4.903654E+03	1.222818E-15	3.011374E-17
4.909171E+03	1.221811E-15	3.005249E-17
4.914689E+03	1.218415E-15	2.993306E-17
4.920207E+03	1.214839E-15	2.980982E-17
4.925725E+03	1.218951E-15	2.987563E-17
4.931243E+03	1.222821E-15	2.993570E-17
4.936761E+03	1.223910E-15	2.992793E-17
4.942279E+03	1.218246E-15	2.975556E-17
4.947797E+03	1.216826E-15	2.968743E-17
4.953315E+03	1.213084E-15	2.956315E-17
4.958833E+03	1.213108E-15	2.953114E-17
4.964351E+03	1.216734E-15	2.958705E-17
4.969869E+03	1.216209E-15	2.954232E-17
4.975387E+03	1.221028E-15	2.962762E-17
4.980904E+03	1.223627E-15	2.965921E-17
4.986422E+03	1.226431E-15	2.969598E-17
4.991940E+03	1.227153E-15	2.968258E-17
4.997458E+03	1.228577E-15	2.968642E-17
5.002976E+03	1.231114E-15	2.971739E-17
5.008494E+03	1.235670E-15	2.979724E-17
5.014012E+03	1.238200E-15	2.982839E-17
5.019530E+03	1.236899E-15	2.976754E-17
5.025048E+03	1.240461E-15	2.982398E-17
5.030566E+03	1.244844E-15	2.990027E-17
5.036084E+03	1.247414E-15	2.993318E-17
5.041602E+03	1.249931E-15	2.996498E-17
5.047120E+03	1.253293E-15	3.001723E-17
5.052638E+03	1.258218E-15	3.010701E-17
5.058155E+03	1.265164E-15	3.024520E-17
5.063673E+03	1.270943E-15	3.035550E-17
5.069191E+03	1.275559E-15	3.043809E-17
5.074709E+03	1.278682E-15	3.048522E-17
5.080227E+03	1.280524E-15	3.050196E-17
5.085745E+03	1.279784E-15	3.045749E-17
5.091263E+03	1.279788E-15	3.043106E-17
5.096781E+03	1.281834E-15	3.045342E-17
5.102299E+03	1.279578E-15	3.037389E-17
5.107817E+03	1.278398E-15	3.032026E-17
5.113335E+03	1.279584E-15	3.032305E-17
5.118853E+03	1.284192E-15	3.040710E-17
5.124371E+03	1.292156E-15	3.057070E-17
5.129889E+03	1.296894E-15	3.065804E-17
5.135407E+03	1.291475E-15	3.050557E-17
5.140924E+03	1.289276E-15	3.042963E-17
5.146442E+03	1.293078E-15	3.049560E-17
5.151960E+03	1.294912E-15	3.051538E-17
5.157478E+03	1.299131E-15	3.059156E-17
5.162996E+03	1.308732E-15	3.079456E-17
5.168514E+03	1.311350E-15	3.083335E-17
5.174032E+03	1.316989E-15	3.094338E-17
5.179550E+03	1.324564E-15	3.109899E-17
5.185068E+03	1.327034E-15	3.113495E-17
5.190586E+03	1.326391E-15	3.109816E-17
5.196104E+03	1.329831E-15	3.115741E-17
5.201622E+03	1.334379E-15	3.124287E-17
5.207140E+03	1.334805E-15	3.123209E-17
5.212658E+03	1.331622E-15	3.113728E-17
5.218175E+03	1.328726E-15	3.104963E-17
5.223693E+03	1.326112E-15	3.096907E-17
5.229211E+03	1.321271E-15	3.083697E-17
5.234729E+03	1.311778E-15	3.059688E-17
5.240247E+03	1.307229E-15	3.047271E-17
5.245765E+03	1.300372E-15	3.029529E-17
5.251283E+03	1.294154E-15	3.013333E-17
5.256801E+03	1.295683E-15	3.015222E-17
5.262319E+03	1.298992E-15	3.021290E-17
5.267837E+03	1.301007E-15	3.024381E-17
5.273355E+03	1.302242E-15	3.025699E-17
5.278873E+03	1.304766E-15	3.030049E-17
5.284391E+03	1.304815E-15	3.028695E-17
5.289908E+03	1.306902E-15	3.032113E-17
5.295426E+03	1.307587E-15	3.032319E-17
5.300944E+03	1.305550E-15	3.026262E-17
5.306462E+03	1.303285E-15	3.019726E-17
5.311980E+03	1.301155E-15	3.013551E-17
5.317498E+03	1.301315E-15	3.012733E-17
5.323016E+03	1.300788E-15	3.010370E-17
5.328534E+03	1.297303E-15	3.001215E-17
5.334052E+03	1.285915E-15	2.973838E-17
5.339570E+03	1.278789E-15	2.956379E-17
5.345088E+03	1.274143E-15	2.944714E-17
5.350606E+03	1.268712E-15	2.931291E-17
5.356124E+03	1.262761E-15	2.916722E-17
5.361642E+03	1.256647E-15	2.901832E-17
5.367159E+03	1.248082E-15	2.881334E-17
5.372677E+03	1.237125E-15	2.855369E-17
5.378195E+03	1.228540E-15	2.834930E-17
5.383713E+03	1.217081E-15	2.807908E-17
5.389231E+03	1.206161E-15	2.782176E-17
5.394749E+03	1.199870E-15	2.767165E-17
5.400267E+03	1.192231E-15	2.749084E-17
5.405785E+03	1.178757E-15	2.717587E-17
5.411303E+03	1.170455E-15	2.698053E-17
5.416821E+03	1.161310E-15	2.676608E-17
5.422339E+03	1.150748E-15	2.651929E-17
5.427857E+03	1.141576E-15	2.630485E-17
5.433375E+03	1.130117E-15	2.603799E-17
5.438893E+03	1.122095E-15	2.585058E-17
5.444410E+03	1.109335E-15	2.555425E-17
5.449928E+03	1.099019E-15	2.531446E-17
5.455446E+03	1.096533E-15	2.525523E-17
5.460964E+03	1.090983E-15	2.512558E-17
5.466482E+03	1.088110E-15	2.505773E-17
5.472000E+03	1.084643E-15	2.497636E-17
5.477518E+03	1.080429E-15	2.487791E-17
5.483036E+03	1.078598E-15	2.483444E-17
5.488554E+03	1.077058E-15	2.479775E-17
5.494072E+03	1.071271E-15	2.466339E-17
5.499590E+03	1.066352E-15	2.454909E-17
5.505108E+03	1.058119E-15	2.435855E-17
5.510626E+03	1.050896E-15	2.419133E-17
5.516144E+03	1.046176E-15	2.408175E-17
5.521662E+03	1.037627E-15	2.388409E-17
5.527179E+03	1.030641E-15	2.372242E-17
5.532697E+03	1.020741E-15	2.349371E-17
5.538215E+03	1.014934E-15	2.335921E-17
5.543733E+03	1.010295E-15	2.325155E-17
5.549251E+03	1.006374E-15	2.316042E-17
5.554769E+03	9.970397E-16	2.294469E-17
5.560287E+03	9.914773E-16	2.281573E-17
5.565805E+03	9.831883E-16	2.262399E-17
5.571323E+03	9.749063E-16	2.243236E-17
5.576841E+03	9.661728E-16	2.223030E-17
5.582359E+03	9.576671E-16	2.203342E-17
5.587877E+03	9.462763E-16	2.177011E-17
5.593395E+03	9.381865E-16	2.158268E-17
5.598913E+03	9.251642E-16	2.128172E-17
5.604430E+03	9.143125E-16	2.103063E-17
5.609948E+03	9.066752E-16	2.085340E-17
5.615466E+03	8.963109E-16	2.061338E-17
5.620984E+03	8.868687E-16	2.039448E-17
5.626502E+03	8.787290E-16	2.020546E-17
5.632020E+03	8.707714E-16	2.002054E-17
5.637538E+03	8.661549E-16	1.991233E-17
5.643056E+03	8.614074E-16	1.980101E-17
5.648574E+03	8.557221E-16	1.966803E-17
5.654092E+03	8.558730E-16	1.966906E-17
5.659610E+03	8.505395E-16	1.954393E-17
5.665128E+03	8.503620E-16	1.953715E-17
5.670646E+03	8.520198E-16	1.957238E-17
5.676163E+03	8.527455E-16	1.958604E-17
5.681681E+03	8.560935E-16	1.965976E-17
5.687199E+03	8.580460E-16	1.970125E-17
5.692717E+03	8.583194E-16	1.970402E-17
5.698235E+03	8.569037E-16	1.966785E-17
5.703753E+03	8.538719E-16	1.959444E-17
5.709271E+03	8.505436E-16	1.951409E-17
5.714789E+03	8.478748E-16	1.944873E-17
5.720307E+03	8.451996E-16	1.938307E-17
5.725825E+03	8.463185E-16	1.940426E-17
5.731343E+03	8.453965E-16	1.937848E-17
5.736861E+03	8.435159E-16	1.933057E-17
5.742379E+03	8.447886E-16	1.935475E-17
5.747897E+03	8.460616E-16	1.937874E-17
5.753414E+03	8.446157E-16	1.934028E-17
5.758932E+03	8.503242E-16	1.946543E-17
5.764450E+03	8.539597E-16	1.954289E-17
5.769968E+03	8.572017E-16	1.961112E-17
5.775486E+03	8.597689E-16	1.966368E-17
5.781004E+03	8.621722E-16	1.971228E-17
5.786522E+03	8.615428E-16	1.969135E-17
5.792040E+03	8.638696E-16	1.973779E-17
5.797558E+03	8.645860E-16	1.974722E-17
5.803076E+03	8.689670E-16	1.984014E-17
5.808594E+03	8.762909E-16	1.999997E-17
5.814112E+03	8.805747E-16	2.009014E-17
5.819630E+03	8.802567E-16	2.007511E-17
5.825148E+03	8.791931E-16	2.004291E-17
5.830666E+03	8.769701E-16	1.998414E-17
5.836183E+03	8.774712E-16	1.998729E-17
5.841701E+03	8.745895E-16	1.991324E-17
5.847219E+03	8.676695E-16	1.974718E-17
5.852737E+03	8.652764E-16	1.968407E-17
5.858255E+03	8.568834E-16	1.948442E-17
5.863773E+03	8.509179E-16	1.933997E-17
5.869291E+03	8.479388E-16	1.926335E-17
5.874809E+03	8.446308E-16	1.917917E-17
5.880327E+03	8.425064E-16	1.912179E-17
5.885845E+03	8.372517E-16	1.899332E-17
5.891363E+03	8.301719E-16	1.882344E-17
5.896881E+03	8.259813E-16	1.871909E-17
5.902399E+03	8.232045E-16	1.864673E-17
5.907917E+03	8.202006E-16	1.856919E-17
