#wls	flux	fluxerr
1.600000E+03	1.663984E-17	1.182689E-18
1.640000E+03	1.672493E-17	1.186804E-18
1.680000E+03	1.681854E-17	1.191450E-18
1.720000E+03	1.691448E-17	1.196183E-18
1.760000E+03	1.701574E-17	1.201211E-18
1.800000E+03	1.712534E-17	1.206743E-18
1.840000E+03	1.724008E-17	1.212548E-18
1.880000E+03	1.736930E-17	1.219277E-18
1.920000E+03	1.750667E-17	1.226479E-18
1.960000E+03	1.765843E-17	1.234584E-18
2.000000E+03	1.782451E-17	1.243576E-18
2.040000E+03	1.801128E-17	1.253891E-18
2.080000E+03	1.821546E-17	1.265287E-18
2.120000E+03	1.844016E-17	1.277968E-18
2.160000E+03	1.869176E-17	1.292361E-18
2.200000E+03	1.896361E-17	1.307991E-18
2.240000E+03	1.926530E-17	1.325501E-18
2.280000E+03	1.959008E-17	1.344408E-18
2.320000E+03	1.993758E-17	1.364669E-18
2.360000E+03	2.031071E-17	1.386463E-18
2.400000E+03	2.070237E-17	1.409288E-18
2.440000E+03	2.111860E-17	1.433535E-18
2.480000E+03	2.154880E-17	1.458465E-18
2.520000E+03	2.199884E-17	1.484459E-18
2.560000E+03	2.246124E-17	1.510994E-18
2.600000E+03	2.293837E-17	1.538211E-18
2.640000E+03	2.343252E-17	1.566246E-18
2.680000E+03	2.393591E-17	1.594562E-18
2.720000E+03	2.445066E-17	1.623282E-18
2.760000E+03	2.497214E-17	1.652083E-18
2.800000E+03	2.550225E-17	1.681078E-18
2.840000E+03	2.603623E-17	1.709936E-18
2.880000E+03	2.656924E-17	1.738328E-18
2.920000E+03	2.709645E-17	1.765931E-18
2.960000E+03	2.761952E-17	1.792846E-18
3.000000E+03	2.814655E-17	1.819591E-18
3.010000E+03	2.827791E-17	1.826183E-18
3.020000E+03	2.840775E-17	1.832650E-18
3.030000E+03	2.853930E-17	1.839199E-18
3.040000E+03	2.867250E-17	1.845827E-18
3.050000E+03	2.880733E-17	1.852532E-18
3.060000E+03	2.894054E-17	1.859103E-18
3.070000E+03	2.907529E-17	1.865746E-18
3.080000E+03	2.920838E-17	1.872253E-18
3.090000E+03	2.934615E-17	1.879031E-18
3.100000E+03	2.948218E-17	1.885667E-18
3.110000E+03	2.962282E-17	1.892570E-18
3.120000E+03	2.976165E-17	1.899325E-18
3.130000E+03	2.990499E-17	1.906339E-18
3.140000E+03	3.004646E-17	1.913202E-18
3.150000E+03	3.019236E-17	1.920316E-18
3.160000E+03	3.034263E-17	1.927676E-18
3.170000E+03	3.049091E-17	1.934876E-18
3.180000E+03	3.064347E-17	1.942316E-18
3.190000E+03	3.080024E-17	1.949990E-18
3.200000E+03	3.095804E-17	1.957694E-18
3.210000E+03	3.111996E-17	1.965624E-18
3.220000E+03	3.128592E-17	1.973774E-18
3.230000E+03	3.145587E-17	1.982140E-18
3.240000E+03	3.162975E-17	1.990715E-18
3.250000E+03	3.181059E-17	1.999692E-18
3.260000E+03	3.199210E-17	2.008671E-18
3.270000E+03	3.218044E-17	2.018040E-18
3.280000E+03	3.237550E-17	2.027790E-18
3.290000E+03	3.257720E-17	2.037913E-18
3.300000E+03	3.278544E-17	2.048403E-18
3.310000E+03	3.299709E-17	2.059061E-18
3.320000E+03	3.321817E-17	2.070262E-18
3.330000E+03	3.344854E-17	2.081995E-18
3.340000E+03	3.368507E-17	2.094063E-18
3.350000E+03	3.393070E-17	2.106647E-18
3.360000E+03	3.418829E-17	2.119921E-18
3.370000E+03	3.445171E-17	2.133503E-18
3.380000E+03	3.472685E-17	2.147756E-18
3.390000E+03	3.501353E-17	2.162665E-18
3.400000E+03	3.531164E-17	2.178220E-18
3.410000E+03	3.562101E-17	2.194408E-18
3.420000E+03	3.594443E-17	2.211398E-18
3.430000E+03	3.627879E-17	2.228995E-18
3.440000E+03	3.662980E-17	2.247545E-18
3.450000E+03	3.699432E-17	2.266853E-18
3.460000E+03	3.737216E-17	2.286902E-18
3.470000E+03	3.776606E-17	2.307856E-18
3.480000E+03	3.817578E-17	2.329698E-18
3.490000E+03	3.860402E-17	2.352586E-18
3.500000E+03	3.904762E-17	2.376323E-18
3.510000E+03	3.950925E-17	2.401067E-18
3.520000E+03	3.998866E-17	2.426799E-18
3.530000E+03	4.048846E-17	2.453670E-18
3.540000E+03	4.100550E-17	2.481486E-18
3.550000E+03	4.154239E-17	2.510398E-18
3.560000E+03	4.209602E-17	2.540213E-18
3.570000E+03	4.267176E-17	2.571250E-18
3.580000E+03	4.326649E-17	2.603315E-18
3.590000E+03	4.388274E-17	2.636555E-18
3.600000E+03	4.451740E-17	2.670777E-18
3.610000E+03	4.517020E-17	2.705959E-18
3.620000E+03	4.584639E-17	2.742410E-18
3.630000E+03	4.654015E-17	2.779774E-18
3.640000E+03	4.725391E-17	2.818193E-18
3.650000E+03	4.798467E-17	2.857482E-18
3.660000E+03	4.873761E-17	2.897942E-18
3.670000E+03	4.950967E-17	2.939386E-18
3.680000E+03	5.030058E-17	2.981792E-18
3.690000E+03	5.110738E-17	3.024979E-18
3.700000E+03	5.193514E-17	3.069243E-18
3.710000E+03	5.277826E-17	3.114244E-18
3.720000E+03	5.364181E-17	3.160278E-18
3.730000E+03	5.452019E-17	3.207009E-18
3.740000E+03	5.541581E-17	3.254575E-18
3.750000E+03	5.632845E-17	3.302954E-18
3.760000E+03	5.725524E-17	3.351976E-18
3.770000E+03	5.819858E-17	3.401774E-18
3.780000E+03	5.915565E-17	3.452181E-18
3.790000E+03	6.012887E-17	3.503331E-18
3.800000E+03	6.111543E-17	3.555056E-18
3.810000E+03	6.211520E-17	3.607344E-18
3.820000E+03	6.313055E-17	3.660329E-18
3.830000E+03	6.415625E-17	3.713701E-18
3.840000E+03	6.519217E-17	3.767451E-18
3.850000E+03	6.624077E-17	3.821715E-18
3.860000E+03	6.729940E-17	3.876338E-18
3.870000E+03	6.837049E-17	3.931456E-18
3.880000E+03	6.944901E-17	3.986774E-18
3.890000E+03	7.053738E-17	4.042430E-18
3.900000E+03	7.163560E-17	4.098420E-18
3.910000E+03	7.273873E-17	4.154459E-18
3.920000E+03	7.385171E-17	4.210824E-18
3.930000E+03	7.497210E-17	4.267376E-18
3.940000E+03	7.609753E-17	4.323975E-18
3.950000E+03	7.722809E-17	4.380625E-18
3.960000E+03	7.836388E-17	4.437330E-18
3.970000E+03	7.950502E-17	4.494094E-18
3.980000E+03	8.064924E-17	4.550788E-18
3.990000E+03	8.179909E-17	4.607553E-18
4.000000E+03	8.295001E-17	4.664131E-18
4.010000E+03	8.410455E-17	4.720663E-18
4.020000E+03	8.526058E-17	4.777030E-18
4.030000E+03	8.641833E-17	4.833244E-18
4.040000E+03	8.757808E-17	4.889319E-18
4.050000E+03	8.873777E-17	4.945139E-18
4.060000E+03	8.989769E-17	5.000720E-18
4.070000E+03	9.105817E-17	5.056081E-18
4.080000E+03	9.221724E-17	5.111112E-18
4.090000E+03	9.337754E-17	5.165958E-18
4.100000E+03	9.453715E-17	5.220513E-18
4.110000E+03	9.569417E-17	5.274674E-18
4.120000E+03	9.685128E-17	5.328587E-18
4.130000E+03	9.800660E-17	5.382150E-18
4.140000E+03	9.916059E-17	5.435388E-18
4.150000E+03	1.003114E-16	5.488202E-18
4.160000E+03	1.014618E-16	5.540739E-18
4.170000E+03	1.026099E-16	5.592906E-18
4.180000E+03	1.037563E-16	5.644721E-18
4.190000E+03	1.049013E-16	5.696217E-18
4.200000E+03	1.060455E-16	5.747420E-18
4.210000E+03	1.071872E-16	5.798238E-18
4.220000E+03	1.083289E-16	5.848809E-18
4.230000E+03	1.094691E-16	5.899051E-18
4.240000E+03	1.106081E-16	5.948982E-18
4.250000E+03	1.117465E-16	5.998636E-18
4.260000E+03	1.128869E-16	6.048153E-18
4.270000E+03	1.140256E-16	6.097328E-18
4.280000E+03	1.151649E-16	6.146298E-18
4.290000E+03	1.163056E-16	6.195088E-18
4.300000E+03	1.174478E-16	6.243723E-18
4.310000E+03	1.185900E-16	6.292114E-18
4.320000E+03	1.197369E-16	6.340505E-18
4.330000E+03	1.208845E-16	6.388696E-18
4.340000E+03	1.220354E-16	6.436816E-18
4.350000E+03	1.231900E-16	6.484892E-18
4.360000E+03	1.243463E-16	6.532816E-18
4.370000E+03	1.255070E-16	6.580727E-18
4.380000E+03	1.266722E-16	6.628634E-18
4.390000E+03	1.278402E-16	6.676443E-18
4.400000E+03	1.290110E-16	6.724164E-18
4.410000E+03	1.301852E-16	6.771818E-18
4.420000E+03	1.313606E-16	6.819296E-18
4.430000E+03	1.325394E-16	6.866717E-18
4.440000E+03	1.337198E-16	6.913979E-18
4.450000E+03	1.349020E-16	6.961098E-18
4.460000E+03	1.360836E-16	7.007956E-18
4.470000E+03	1.372672E-16	7.054679E-18
4.480000E+03	1.384502E-16	7.101143E-18
4.490000E+03	1.396329E-16	7.147361E-18
4.500000E+03	1.408193E-16	7.193541E-18
4.510000E+03	1.420050E-16	7.239457E-18
4.520000E+03	1.431898E-16	7.285108E-18
4.530000E+03	1.443757E-16	7.330586E-18
4.540000E+03	1.455602E-16	7.375776E-18
4.550000E+03	1.467431E-16	7.420661E-18
4.560000E+03	1.479239E-16	7.465228E-18
4.570000E+03	1.491022E-16	7.509456E-18
4.580000E+03	1.502755E-16	7.553221E-18
4.590000E+03	1.514431E-16	7.596493E-18
4.600000E+03	1.526046E-16	7.639255E-18
4.610000E+03	1.537593E-16	7.681474E-18
4.620000E+03	1.549023E-16	7.722914E-18
4.630000E+03	1.560369E-16	7.763748E-18
4.640000E+03	1.571603E-16	7.803836E-18
4.650000E+03	1.582696E-16	7.843042E-18
4.660000E+03	1.593657E-16	7.881419E-18
4.670000E+03	1.604437E-16	7.918728E-18
4.680000E+03	1.615065E-16	7.955126E-18
4.690000E+03	1.625487E-16	7.990352E-18
4.700000E+03	1.635693E-16	8.024363E-18
4.710000E+03	1.645690E-16	8.057209E-18
4.720000E+03	1.655443E-16	8.088725E-18
4.730000E+03	1.664961E-16	8.118962E-18
4.740000E+03	1.674186E-16	8.147651E-18
4.750000E+03	1.683145E-16	8.174937E-18
4.760000E+03	1.691823E-16	8.200754E-18
4.770000E+03	1.700183E-16	8.224938E-18
4.780000E+03	1.708251E-16	8.247623E-18
4.790000E+03	1.715990E-16	8.268647E-18
4.800000E+03	1.723364E-16	8.287847E-18
4.810000E+03	1.730402E-16	8.305374E-18
4.820000E+03	1.737026E-16	8.320871E-18
4.830000E+03	1.743266E-16	8.334493E-18
4.840000E+03	1.749091E-16	8.346106E-18
4.850000E+03	1.754493E-16	8.355695E-18
4.860000E+03	1.759446E-16	8.363141E-18
4.870000E+03	1.763991E-16	8.368653E-18
4.880000E+03	1.768083E-16	8.372045E-18
4.890000E+03	1.771747E-16	8.373441E-18
4.900000E+03	1.775010E-16	8.372984E-18
4.910000E+03	1.777857E-16	8.370616E-18
4.920000E+03	1.780317E-16	8.366493E-18
4.930000E+03	1.782380E-16	8.360578E-18
4.940000E+03	1.784078E-16	8.353025E-18
4.950000E+03	1.785440E-16	8.343985E-18
4.960000E+03	1.786460E-16	8.333437E-18
4.970000E+03	1.787148E-16	8.321436E-18
4.980000E+03	1.787535E-16	8.308140E-18
4.990000E+03	1.787654E-16	8.293703E-18
5.000000E+03	1.787475E-16	8.277997E-18
5.010000E+03	1.787029E-16	8.261173E-18
5.020000E+03	1.786366E-16	8.243468E-18
5.030000E+03	1.785438E-16	8.224662E-18
5.040000E+03	1.784311E-16	8.205067E-18
5.050000E+03	1.782975E-16	8.184648E-18
5.060000E+03	1.781440E-16	8.163445E-18
5.070000E+03	1.779712E-16	8.141500E-18
5.080000E+03	1.777819E-16	8.118940E-18
5.090000E+03	1.775747E-16	8.095710E-18
5.100000E+03	1.773523E-16	8.071928E-18
5.110000E+03	1.771152E-16	8.047632E-18
5.120000E+03	1.768641E-16	8.022844E-18
5.130000E+03	1.765993E-16	7.997590E-18
5.140000E+03	1.763233E-16	7.971983E-18
5.150000E+03	1.760345E-16	7.945952E-18
5.160000E+03	1.757333E-16	7.919518E-18
5.170000E+03	1.754219E-16	7.892787E-18
5.180000E+03	1.750987E-16	7.865685E-18
5.190000E+03	1.747660E-16	7.838315E-18
5.200000E+03	1.744237E-16	7.810682E-18
5.210000E+03	1.740705E-16	7.782720E-18
5.220000E+03	1.737100E-16	7.754601E-18
5.230000E+03	1.733388E-16	7.726169E-18
5.240000E+03	1.729605E-16	7.697593E-18
5.250000E+03	1.725719E-16	7.668721E-18
5.260000E+03	1.721746E-16	7.639635E-18
5.270000E+03	1.717706E-16	7.610427E-18
5.280000E+03	1.713564E-16	7.580933E-18
5.290000E+03	1.709357E-16	7.551329E-18
5.300000E+03	1.705067E-16	7.521530E-18
5.310000E+03	1.700696E-16	7.491546E-18
5.320000E+03	1.696245E-16	7.461387E-18
5.330000E+03	1.691731E-16	7.431128E-18
5.340000E+03	1.687121E-16	7.400625E-18
5.350000E+03	1.682452E-16	7.370036E-18
5.360000E+03	1.677707E-16	7.339301E-18
5.370000E+03	1.672907E-16	7.308499E-18
5.380000E+03	1.668019E-16	7.277494E-18
5.390000E+03	1.663079E-16	7.246442E-18
5.400000E+03	1.658092E-16	7.215362E-18
5.410000E+03	1.653026E-16	7.184117E-18
5.420000E+03	1.647920E-16	7.152872E-18
5.430000E+03	1.642777E-16	7.121639E-18
5.440000E+03	1.637570E-16	7.090297E-18
5.450000E+03	1.632353E-16	7.059086E-18
5.460000E+03	1.627100E-16	7.027884E-18
5.470000E+03	1.621815E-16	6.996711E-18
5.480000E+03	1.616524E-16	6.965674E-18
5.490000E+03	1.611232E-16	6.934795E-18
5.500000E+03	1.605930E-16	6.904032E-18
5.510000E+03	1.600644E-16	6.873494E-18
5.520000E+03	1.595364E-16	6.843140E-18
5.530000E+03	1.590130E-16	6.813139E-18
5.540000E+03	1.584937E-16	6.783460E-18
5.550000E+03	1.579776E-16	6.754069E-18
5.560000E+03	1.574689E-16	6.725139E-18
5.570000E+03	1.569668E-16	6.696636E-18
5.580000E+03	1.564721E-16	6.668593E-18
5.590000E+03	1.559859E-16	6.641048E-18
5.600000E+03	1.555104E-16	6.614101E-18
5.610000E+03	1.550451E-16	6.587719E-18
5.620000E+03	1.545923E-16	6.562003E-18
5.630000E+03	1.541512E-16	6.536910E-18
5.640000E+03	1.537240E-16	6.512537E-18
5.650000E+03	1.533099E-16	6.488847E-18
5.660000E+03	1.529111E-16	6.465926E-18
5.670000E+03	1.525265E-16	6.443726E-18
5.680000E+03	1.521582E-16	6.422332E-18
5.690000E+03	1.518049E-16	6.401689E-18
5.700000E+03	1.514684E-16	6.381870E-18
5.710000E+03	1.511473E-16	6.362816E-18
5.720000E+03	1.508435E-16	6.344595E-18
5.730000E+03	1.505565E-16	6.327193E-18
5.740000E+03	1.502849E-16	6.310546E-18
5.750000E+03	1.500284E-16	6.294635E-18
5.760000E+03	1.497881E-16	6.279511E-18
5.770000E+03	1.495620E-16	6.265082E-18
5.780000E+03	1.493509E-16	6.251386E-18
5.790000E+03	1.491527E-16	6.238329E-18
5.800000E+03	1.489680E-16	6.225934E-18
5.810000E+03	1.487945E-16	6.214106E-18
5.820000E+03	1.486312E-16	6.202801E-18
5.830000E+03	1.484769E-16	6.191971E-18
5.840000E+03	1.483307E-16	6.181574E-18
5.850000E+03	1.481927E-16	6.171613E-18
5.860000E+03	1.480590E-16	6.161927E-18
5.870000E+03	1.479296E-16	6.152518E-18
5.880000E+03	1.478050E-16	6.143399E-18
5.890000E+03	1.476809E-16	6.134400E-18
5.900000E+03	1.475560E-16	6.125466E-18
5.910000E+03	1.474324E-16	6.116677E-18
5.920000E+03	1.473044E-16	6.107806E-18
5.930000E+03	1.471740E-16	6.098932E-18
5.940000E+03	1.470403E-16	6.090017E-18
5.950000E+03	1.468995E-16	6.080910E-18
5.960000E+03	1.467524E-16	6.071639E-18
5.970000E+03	1.465983E-16	6.062178E-18
5.980000E+03	1.464355E-16	6.052459E-18
5.990000E+03	1.462651E-16	6.042527E-18
6.000000E+03	1.460854E-16	6.032313E-18
6.010000E+03	1.458964E-16	6.021819E-18
6.020000E+03	1.456983E-16	6.011054E-18
6.030000E+03	1.454899E-16	5.999969E-18
6.040000E+03	1.452731E-16	5.988641E-18
6.050000E+03	1.450456E-16	5.976985E-18
6.060000E+03	1.448084E-16	5.965031E-18
6.070000E+03	1.445633E-16	5.952865E-18
6.080000E+03	1.443089E-16	5.940423E-18
6.090000E+03	1.440461E-16	5.927746E-18
6.100000E+03	1.437748E-16	5.914827E-18
6.110000E+03	1.434976E-16	5.901779E-18
6.120000E+03	1.432116E-16	5.888485E-18
6.130000E+03	1.429184E-16	5.875004E-18
6.140000E+03	1.426165E-16	5.861282E-18
6.150000E+03	1.423076E-16	5.847384E-18
6.160000E+03	1.419889E-16	5.833203E-18
6.170000E+03	1.416607E-16	5.818743E-18
6.180000E+03	1.413188E-16	5.803841E-18
6.190000E+03	1.409647E-16	5.788552E-18
6.200000E+03	1.405999E-16	5.772939E-18
6.210000E+03	1.402297E-16	5.757215E-18
6.220000E+03	1.398569E-16	5.741492E-18
6.230000E+03	1.394866E-16	5.725979E-18
6.240000E+03	1.391198E-16	5.710715E-18
6.250000E+03	1.387618E-16	5.695908E-18
6.260000E+03	1.384118E-16	5.681532E-18
6.270000E+03	1.380734E-16	5.667725E-18
6.280000E+03	1.377470E-16	5.654504E-18
6.290000E+03	1.374359E-16	5.642004E-18
6.300000E+03	1.371406E-16	5.630236E-18
6.310000E+03	1.368610E-16	5.619202E-18
6.320000E+03	1.365973E-16	5.608903E-18
6.330000E+03	1.363536E-16	5.599509E-18
6.340000E+03	1.361255E-16	5.590836E-18
6.350000E+03	1.359168E-16	5.583039E-18
6.360000E+03	1.357272E-16	5.576100E-18
6.370000E+03	1.355547E-16	5.569942E-18
6.380000E+03	1.354014E-16	5.564644E-18
6.390000E+03	1.352650E-16	5.560115E-18
6.400000E+03	1.351463E-16	5.556382E-18
6.410000E+03	1.350441E-16	5.553397E-18
6.420000E+03	1.349601E-16	5.551229E-18
6.430000E+03	1.348904E-16	5.549718E-18
6.440000E+03	1.348380E-16	5.548985E-18
6.450000E+03	1.348016E-16	5.548972E-18
6.460000E+03	1.347797E-16	5.549627E-18
6.470000E+03	1.347740E-16	5.551007E-18
6.480000E+03	1.347857E-16	5.553167E-18
6.490000E+03	1.348135E-16	5.556054E-18
6.500000E+03	1.348559E-16	5.559605E-18
6.510000E+03	1.349086E-16	5.563640E-18
6.520000E+03	1.349713E-16	5.568150E-18
6.530000E+03	1.350412E-16	5.573016E-18
6.540000E+03	1.351152E-16	5.578112E-18
6.550000E+03	1.351935E-16	5.583441E-18
6.560000E+03	1.352729E-16	5.588875E-18
6.570000E+03	1.353521E-16	5.594358E-18
6.580000E+03	1.354310E-16	5.599888E-18
6.590000E+03	1.355071E-16	5.605354E-18
6.600000E+03	1.355804E-16	5.610764E-18
6.610000E+03	1.356497E-16	5.616063E-18
6.620000E+03	1.357140E-16	5.621209E-18
6.630000E+03	1.357722E-16	5.626155E-18
6.640000E+03	1.358235E-16	5.630867E-18
6.650000E+03	1.358699E-16	5.635431E-18
6.660000E+03	1.359078E-16	5.639696E-18
6.670000E+03	1.359380E-16	5.643690E-18
6.680000E+03	1.359615E-16	5.647456E-18
6.690000E+03	1.359764E-16	5.650917E-18
6.700000E+03	1.359822E-16	5.654053E-18
6.710000E+03	1.359803E-16	5.656913E-18
6.720000E+03	1.359705E-16	5.659498E-18
6.730000E+03	1.359544E-16	5.661868E-18
6.740000E+03	1.359287E-16	5.663886E-18
6.750000E+03	1.358967E-16	5.665688E-18
6.760000E+03	1.358569E-16	5.667214E-18
6.770000E+03	1.358112E-16	5.668540E-18
6.780000E+03	1.357597E-16	5.669669E-18
6.790000E+03	1.357026E-16	5.670614E-18
6.800000E+03	1.356405E-16	5.671393E-18
6.810000E+03	1.355734E-16	5.672010E-18
6.820000E+03	1.355019E-16	5.672489E-18
6.830000E+03	1.354277E-16	5.672899E-18
6.840000E+03	1.353480E-16	5.673128E-18
6.850000E+03	1.352681E-16	5.673389E-18
6.860000E+03	1.351847E-16	5.673554E-18
6.870000E+03	1.351000E-16	5.673705E-18
6.880000E+03	1.350123E-16	5.673782E-18
6.890000E+03	1.349236E-16	5.673860E-18
6.900000E+03	1.348339E-16	5.673946E-18
6.910000E+03	1.347433E-16	5.674038E-18
6.920000E+03	1.346517E-16	5.674135E-18
6.930000E+03	1.345574E-16	5.674172E-18
6.940000E+03	1.344636E-16	5.674272E-18
6.950000E+03	1.343667E-16	5.674293E-18
6.960000E+03	1.342681E-16	5.674294E-18
6.970000E+03	1.341691E-16	5.674326E-18
6.980000E+03	1.340660E-16	5.674236E-18
6.990000E+03	1.339582E-16	5.674000E-18
7.000000E+03	1.338486E-16	5.673735E-18
7.010000E+03	1.337332E-16	5.673280E-18
7.020000E+03	1.336130E-16	5.672678E-18
7.030000E+03	1.334875E-16	5.671898E-18
7.040000E+03	1.333540E-16	5.670836E-18
7.050000E+03	1.332136E-16	5.669532E-18
7.060000E+03	1.330638E-16	5.667884E-18
7.070000E+03	1.329054E-16	5.665925E-18
7.080000E+03	1.327344E-16	5.663483E-18
7.090000E+03	1.325531E-16	5.660660E-18
7.100000E+03	1.323592E-16	5.657351E-18
7.110000E+03	1.321501E-16	5.653449E-18
7.120000E+03	1.319268E-16	5.648994E-18
7.130000E+03	1.316885E-16	5.643955E-18
7.140000E+03	1.314327E-16	5.638220E-18
7.150000E+03	1.311572E-16	5.631693E-18
7.160000E+03	1.308647E-16	5.624489E-18
7.170000E+03	1.305513E-16	5.616439E-18
7.180000E+03	1.302180E-16	5.607588E-18
7.190000E+03	1.298628E-16	5.597846E-18
7.200000E+03	1.294837E-16	5.587124E-18
7.210000E+03	1.290821E-16	5.575479E-18
7.220000E+03	1.286576E-16	5.562898E-18
7.230000E+03	1.282071E-16	5.549232E-18
7.240000E+03	1.277319E-16	5.534546E-18
7.250000E+03	1.272290E-16	5.518704E-18
7.260000E+03	1.267017E-16	5.501845E-18
7.270000E+03	1.261471E-16	5.483843E-18
7.280000E+03	1.255657E-16	5.464708E-18
7.290000E+03	1.249561E-16	5.444387E-18
7.300000E+03	1.243191E-16	5.422901E-18
7.310000E+03	1.236539E-16	5.400215E-18
7.320000E+03	1.229626E-16	5.376420E-18
7.330000E+03	1.222417E-16	5.351352E-18
7.340000E+03	1.214953E-16	5.325192E-18
7.350000E+03	1.207197E-16	5.297773E-18
7.360000E+03	1.199179E-16	5.269216E-18
7.370000E+03	1.190881E-16	5.239443E-18
7.380000E+03	1.182333E-16	5.208578E-18
7.390000E+03	1.173520E-16	5.176550E-18
7.400000E+03	1.164473E-16	5.143497E-18
7.410000E+03	1.155164E-16	5.109283E-18
7.420000E+03	1.145628E-16	5.074055E-18
7.430000E+03	1.135866E-16	5.037821E-18
7.440000E+03	1.125913E-16	5.000724E-18
7.450000E+03	1.115758E-16	4.962715E-18
7.460000E+03	1.105450E-16	4.924007E-18
7.470000E+03	1.095022E-16	4.884738E-18
7.480000E+03	1.084480E-16	4.844935E-18
7.490000E+03	1.073855E-16	4.804732E-18
7.500000E+03	1.063193E-16	4.764335E-18
7.510000E+03	1.052487E-16	4.723703E-18
7.520000E+03	1.041794E-16	4.683090E-18
7.530000E+03	1.031130E-16	4.642574E-18
7.540000E+03	1.020513E-16	4.602223E-18
7.550000E+03	1.009968E-16	4.562157E-18
7.560000E+03	9.995111E-17	4.522437E-18
7.570000E+03	9.891567E-17	4.483128E-18
7.580000E+03	9.789413E-17	4.444393E-18
7.590000E+03	9.688637E-17	4.406225E-18
7.600000E+03	9.589339E-17	4.368666E-18
7.610000E+03	9.491871E-17	4.331879E-18
7.620000E+03	9.396160E-17	4.295827E-18
7.630000E+03	9.302413E-17	4.260607E-18
7.640000E+03	9.210657E-17	4.226231E-18
7.650000E+03	9.120925E-17	4.192714E-18
7.660000E+03	9.033234E-17	4.160066E-18
7.670000E+03	8.947585E-17	4.128289E-18
7.680000E+03	8.864211E-17	4.097491E-18
7.690000E+03	8.782729E-17	4.067498E-18
7.700000E+03	8.703473E-17	4.038466E-18
7.710000E+03	8.626169E-17	4.010269E-18
7.720000E+03	8.550899E-17	3.982948E-18
7.730000E+03	8.477617E-17	3.956484E-18
7.740000E+03	8.406163E-17	3.930803E-18
7.750000E+03	8.336723E-17	3.905996E-18
7.760000E+03	8.269016E-17	3.881932E-18
