#wls	flux	fluxerr
1.600000E+03	1.102869E-17	9.943395E-19
1.640000E+03	1.108908E-17	9.990682E-19
1.680000E+03	1.115568E-17	1.004331E-18
1.720000E+03	1.122424E-17	1.009743E-18
1.760000E+03	1.129686E-17	1.015492E-18
1.800000E+03	1.137353E-17	1.021576E-18
1.840000E+03	1.145641E-17	1.028186E-18
1.880000E+03	1.154552E-17	1.035322E-18
1.920000E+03	1.164085E-17	1.042981E-18
1.960000E+03	1.174463E-17	1.051360E-18
2.000000E+03	1.185687E-17	1.060458E-18
2.040000E+03	1.197760E-17	1.070273E-18
2.080000E+03	1.210907E-17	1.081004E-18
2.120000E+03	1.225131E-17	1.092648E-18
2.160000E+03	1.240661E-17	1.105407E-18
2.200000E+03	1.257267E-17	1.119071E-18
2.240000E+03	1.275179E-17	1.133838E-18
2.280000E+03	1.294391E-17	1.149700E-18
2.320000E+03	1.314900E-17	1.166647E-18
2.360000E+03	1.336695E-17	1.184665E-18
2.400000E+03	1.359528E-17	1.203528E-18
2.440000E+03	1.383618E-17	1.223424E-18
2.480000E+03	1.409186E-17	1.244543E-18
2.520000E+03	1.435732E-17	1.266436E-18
2.560000E+03	1.463230E-17	1.289075E-18
2.600000E+03	1.492129E-17	1.312850E-18
2.640000E+03	1.521915E-17	1.337300E-18
2.680000E+03	1.552791E-17	1.362599E-18
2.720000E+03	1.584717E-17	1.388704E-18
2.760000E+03	1.617650E-17	1.415571E-18
2.800000E+03	1.651542E-17	1.443150E-18
2.840000E+03	1.686341E-17	1.471391E-18
2.880000E+03	1.722239E-17	1.500452E-18
2.920000E+03	1.759177E-17	1.530275E-18
2.960000E+03	1.797829E-17	1.561437E-18
3.000000E+03	1.838133E-17	1.593874E-18
3.010000E+03	1.848626E-17	1.602319E-18
3.020000E+03	1.859066E-17	1.610706E-18
3.030000E+03	1.869937E-17	1.619457E-18
3.040000E+03	1.880750E-17	1.628146E-18
3.050000E+03	1.891750E-17	1.636986E-18
3.060000E+03	1.903178E-17	1.646184E-18
3.070000E+03	1.914545E-17	1.655319E-18
3.080000E+03	1.926338E-17	1.664808E-18
3.090000E+03	1.938068E-17	1.674232E-18
3.100000E+03	1.950220E-17	1.684008E-18
3.110000E+03	1.962793E-17	1.694134E-18
3.120000E+03	1.975299E-17	1.704190E-18
3.130000E+03	1.988223E-17	1.714593E-18
3.140000E+03	2.001562E-17	1.725341E-18
3.150000E+03	2.015073E-17	1.736222E-18
3.160000E+03	2.028754E-17	1.747237E-18
3.170000E+03	2.043087E-17	1.758798E-18
3.180000E+03	2.057587E-17	1.770488E-18
3.190000E+03	2.072493E-17	1.782512E-18
3.200000E+03	2.087562E-17	1.794661E-18
3.210000E+03	2.103275E-17	1.807347E-18
3.220000E+03	2.119388E-17	1.820360E-18
3.230000E+03	2.135898E-17	1.833698E-18
3.240000E+03	2.153045E-17	1.847566E-18
3.250000E+03	2.170584E-17	1.861751E-18
3.260000E+03	2.188514E-17	1.876255E-18
3.270000E+03	2.207073E-17	1.891277E-18
3.280000E+03	2.226016E-17	1.906610E-18
3.290000E+03	2.245821E-17	1.922661E-18
3.300000E+03	2.266006E-17	1.939017E-18
3.310000E+03	2.286807E-17	1.955879E-18
3.320000E+03	2.308458E-17	1.973446E-18
3.330000E+03	2.330481E-17	1.991308E-18
3.340000E+03	2.353585E-17	2.010071E-18
3.350000E+03	2.377052E-17	2.029120E-18
3.360000E+03	2.401594E-17	2.049062E-18
3.370000E+03	2.426730E-17	2.069485E-18
3.380000E+03	2.452693E-17	2.090587E-18
3.390000E+03	2.479479E-17	2.112363E-18
3.400000E+03	2.507320E-17	2.135010E-18
3.410000E+03	2.535975E-17	2.158320E-18
3.420000E+03	2.565439E-17	2.182289E-18
3.430000E+03	2.595941E-17	2.207111E-18
3.440000E+03	2.627479E-17	2.232781E-18
3.450000E+03	2.660045E-17	2.259290E-18
3.460000E+03	2.693634E-17	2.286636E-18
3.470000E+03	2.728475E-17	2.315008E-18
3.480000E+03	2.764327E-17	2.344200E-18
3.490000E+03	2.801417E-17	2.374406E-18
3.500000E+03	2.839507E-17	2.405420E-18
3.510000E+03	2.879056E-17	2.437629E-18
3.520000E+03	2.919591E-17	2.470631E-18
3.530000E+03	2.961570E-17	2.504812E-18
3.540000E+03	3.004987E-17	2.540164E-18
3.550000E+03	3.049602E-17	2.576483E-18
3.560000E+03	3.095639E-17	2.613956E-18
3.570000E+03	3.142860E-17	2.652379E-18
3.580000E+03	3.191720E-17	2.692134E-18
3.590000E+03	3.242208E-17	2.733210E-18
3.600000E+03	3.293857E-17	2.775212E-18
3.610000E+03	3.347350E-17	2.818710E-18
3.620000E+03	3.402219E-17	2.863309E-18
3.630000E+03	3.458683E-17	2.909193E-18
3.640000E+03	3.516736E-17	2.956350E-18
3.650000E+03	3.576370E-17	3.004774E-18
3.660000E+03	3.637802E-17	3.054643E-18
3.670000E+03	3.700799E-17	3.105759E-18
3.680000E+03	3.765577E-17	3.158301E-18
3.690000E+03	3.832129E-17	3.212259E-18
3.700000E+03	3.900220E-17	3.267435E-18
3.710000E+03	3.970295E-17	3.324196E-18
3.720000E+03	4.041893E-17	3.382156E-18
3.730000E+03	4.115457E-17	3.441681E-18
3.740000E+03	4.190754E-17	3.502574E-18
3.750000E+03	4.267777E-17	3.564825E-18
3.760000E+03	4.346743E-17	3.628612E-18
3.770000E+03	4.427642E-17	3.693925E-18
3.780000E+03	4.510246E-17	3.760569E-18
3.790000E+03	4.594770E-17	3.828720E-18
3.800000E+03	4.681207E-17	3.898370E-18
3.810000E+03	4.769551E-17	3.969509E-18
3.820000E+03	4.859795E-17	4.042129E-18
3.830000E+03	4.951934E-17	4.116221E-18
3.840000E+03	5.045742E-17	4.191596E-18
3.850000E+03	5.141655E-17	4.268611E-18
3.860000E+03	5.239447E-17	4.347076E-18
3.870000E+03	5.339116E-17	4.426984E-18
3.880000E+03	5.440655E-17	4.508328E-18
3.890000E+03	5.544065E-17	4.591104E-18
3.900000E+03	5.649339E-17	4.675302E-18
3.910000E+03	5.756478E-17	4.760920E-18
3.920000E+03	5.865478E-17	4.847952E-18
3.930000E+03	5.976556E-17	4.936572E-18
3.940000E+03	6.089276E-17	5.026417E-18
3.950000E+03	6.203640E-17	5.117486E-18
3.960000E+03	6.320080E-17	5.210130E-18
3.970000E+03	6.438164E-17	5.303991E-18
3.980000E+03	6.558110E-17	5.399245E-18
3.990000E+03	6.679704E-17	5.495711E-18
4.000000E+03	6.803165E-17	5.593566E-18
4.010000E+03	6.928280E-17	5.692631E-18
4.020000E+03	7.055053E-17	5.792908E-18
4.030000E+03	7.183277E-17	5.894221E-18
4.040000E+03	7.313381E-17	5.996920E-18
4.050000E+03	7.444730E-17	6.100482E-18
4.060000E+03	7.577973E-17	6.205433E-18
4.070000E+03	7.712475E-17	6.311252E-18
4.080000E+03	7.848457E-17	6.418115E-18
4.090000E+03	7.985924E-17	6.526024E-18
4.100000E+03	8.124887E-17	6.634983E-18
4.110000E+03	8.264929E-17	6.744651E-18
4.120000E+03	8.406271E-17	6.855205E-18
4.130000E+03	8.548920E-17	6.966647E-18
4.140000E+03	8.692886E-17	7.078982E-18
4.150000E+03	8.837759E-17	7.191874E-18
4.160000E+03	8.983757E-17	7.305498E-18
4.170000E+03	9.130679E-17	7.419688E-18
4.180000E+03	9.278537E-17	7.534451E-18
4.190000E+03	9.427129E-17	7.649621E-18
4.200000E+03	9.576676E-17	7.765375E-18
4.210000E+03	9.726978E-17	7.881550E-18
4.220000E+03	9.877831E-17	7.997977E-18
4.230000E+03	1.002925E-16	8.114666E-18
4.240000E+03	1.018123E-16	8.231617E-18
4.250000E+03	1.033360E-16	8.348679E-18
4.260000E+03	1.048613E-16	8.465672E-18
4.270000E+03	1.063905E-16	8.582783E-18
4.280000E+03	1.079194E-16	8.699675E-18
4.290000E+03	1.094502E-16	8.816511E-18
4.300000E+03	1.109789E-16	8.932978E-18
4.310000E+03	1.125074E-16	9.049225E-18
4.320000E+03	1.140318E-16	9.164938E-18
4.330000E+03	1.155540E-16	9.280274E-18
4.340000E+03	1.170699E-16	9.394903E-18
4.350000E+03	1.185816E-16	9.508990E-18
4.360000E+03	1.200849E-16	9.622200E-18
4.370000E+03	1.215819E-16	9.734704E-18
4.380000E+03	1.230704E-16	9.846331E-18
4.390000E+03	1.245484E-16	9.956909E-18
4.400000E+03	1.260157E-16	1.006643E-17
4.410000E+03	1.274722E-16	1.017490E-17
4.420000E+03	1.289157E-16	1.028212E-17
4.430000E+03	1.303442E-16	1.038795E-17
4.440000E+03	1.317592E-16	1.049251E-17
4.450000E+03	1.331588E-16	1.059565E-17
4.460000E+03	1.345407E-16	1.069719E-17
4.470000E+03	1.359045E-16	1.079710E-17
4.480000E+03	1.372522E-16	1.089554E-17
4.490000E+03	1.385795E-16	1.099217E-17
4.500000E+03	1.398880E-16	1.108713E-17
4.510000E+03	1.411775E-16	1.118040E-17
4.520000E+03	1.424456E-16	1.127179E-17
4.530000E+03	1.436940E-16	1.136146E-17
4.540000E+03	1.449184E-16	1.144904E-17
4.550000E+03	1.461224E-16	1.153484E-17
4.560000E+03	1.473037E-16	1.161868E-17
4.570000E+03	1.484597E-16	1.170036E-17
4.580000E+03	1.495944E-16	1.178019E-17
4.590000E+03	1.507030E-16	1.185781E-17
4.600000E+03	1.517873E-16	1.193336E-17
4.610000E+03	1.528469E-16	1.200681E-17
4.620000E+03	1.538793E-16	1.207797E-17
4.630000E+03	1.548841E-16	1.214682E-17
4.640000E+03	1.558650E-16	1.221365E-17
4.650000E+03	1.568154E-16	1.227795E-17
4.660000E+03	1.577370E-16	1.233986E-17
4.670000E+03	1.586314E-16	1.239950E-17
4.680000E+03	1.594942E-16	1.245655E-17
4.690000E+03	1.603270E-16	1.251113E-17
4.700000E+03	1.611276E-16	1.256307E-17
4.710000E+03	1.618955E-16	1.261235E-17
4.720000E+03	1.626305E-16	1.265895E-17
4.730000E+03	1.633302E-16	1.270270E-17
4.740000E+03	1.639964E-16	1.274375E-17
4.750000E+03	1.646230E-16	1.278162E-17
4.760000E+03	1.652138E-16	1.281661E-17
4.770000E+03	1.657665E-16	1.284857E-17
4.780000E+03	1.662791E-16	1.287733E-17
4.790000E+03	1.667535E-16	1.290306E-17
4.800000E+03	1.671897E-16	1.292577E-17
4.810000E+03	1.675895E-16	1.294559E-17
4.820000E+03	1.679551E-16	1.296271E-17
4.830000E+03	1.682861E-16	1.297712E-17
4.840000E+03	1.685829E-16	1.298883E-17
4.850000E+03	1.688492E-16	1.299816E-17
4.860000E+03	1.690871E-16	1.300525E-17
4.870000E+03	1.692946E-16	1.300996E-17
4.880000E+03	1.694735E-16	1.301246E-17
4.890000E+03	1.696260E-16	1.301289E-17
4.900000E+03	1.697539E-16	1.301142E-17
4.910000E+03	1.698572E-16	1.300804E-17
4.920000E+03	1.699358E-16	1.300276E-17
4.930000E+03	1.699900E-16	1.299559E-17
4.940000E+03	1.700236E-16	1.298684E-17
4.950000E+03	1.700366E-16	1.297652E-17
4.960000E+03	1.700273E-16	1.296448E-17
4.970000E+03	1.699975E-16	1.295089E-17
4.980000E+03	1.699475E-16	1.293577E-17
4.990000E+03	1.698795E-16	1.291928E-17
5.000000E+03	1.697936E-16	1.290143E-17
5.010000E+03	1.696899E-16	1.288225E-17
5.020000E+03	1.695689E-16	1.286177E-17
5.030000E+03	1.694306E-16	1.284000E-17
5.040000E+03	1.692774E-16	1.281711E-17
5.050000E+03	1.691095E-16	1.279314E-17
5.060000E+03	1.689273E-16	1.276810E-17
5.070000E+03	1.687291E-16	1.274189E-17
5.080000E+03	1.685192E-16	1.271482E-17
5.090000E+03	1.682960E-16	1.268678E-17
5.100000E+03	1.680599E-16	1.265780E-17
5.110000E+03	1.678133E-16	1.262807E-17
5.120000E+03	1.675527E-16	1.259732E-17
5.130000E+03	1.672842E-16	1.256601E-17
5.140000E+03	1.670043E-16	1.253390E-17
5.150000E+03	1.667156E-16	1.250116E-17
5.160000E+03	1.664165E-16	1.246769E-17
5.170000E+03	1.661094E-16	1.243366E-17
5.180000E+03	1.657927E-16	1.239897E-17
5.190000E+03	1.654706E-16	1.236392E-17
5.200000E+03	1.651400E-16	1.232828E-17
5.210000E+03	1.648031E-16	1.229223E-17
5.220000E+03	1.644585E-16	1.225566E-17
5.230000E+03	1.641101E-16	1.221887E-17
5.240000E+03	1.637552E-16	1.218163E-17
5.250000E+03	1.633955E-16	1.214411E-17
5.260000E+03	1.630302E-16	1.210623E-17
5.270000E+03	1.626629E-16	1.206825E-17
5.280000E+03	1.622906E-16	1.202997E-17
5.290000E+03	1.619139E-16	1.199142E-17
5.300000E+03	1.615348E-16	1.195276E-17
5.310000E+03	1.611539E-16	1.191403E-17
5.320000E+03	1.607697E-16	1.187512E-17
5.330000E+03	1.603846E-16	1.183621E-17
5.340000E+03	1.599972E-16	1.179719E-17
5.350000E+03	1.596095E-16	1.175823E-17
5.360000E+03	1.592205E-16	1.171923E-17
5.370000E+03	1.588304E-16	1.168022E-17
5.380000E+03	1.584397E-16	1.164123E-17
5.390000E+03	1.580505E-16	1.160242E-17
5.400000E+03	1.576614E-16	1.156369E-17
5.410000E+03	1.572714E-16	1.152496E-17
5.420000E+03	1.568838E-16	1.148648E-17
5.430000E+03	1.564975E-16	1.144817E-17
5.440000E+03	1.561113E-16	1.140994E-17
5.450000E+03	1.557287E-16	1.137203E-17
5.460000E+03	1.553467E-16	1.133424E-17
5.470000E+03	1.549675E-16	1.129673E-17
5.480000E+03	1.545897E-16	1.125938E-17
5.490000E+03	1.542167E-16	1.122246E-17
5.500000E+03	1.538457E-16	1.118576E-17
5.510000E+03	1.534801E-16	1.114952E-17
5.520000E+03	1.531202E-16	1.111376E-17
5.530000E+03	1.527663E-16	1.107850E-17
5.540000E+03	1.524170E-16	1.104365E-17
5.550000E+03	1.520757E-16	1.100945E-17
5.560000E+03	1.517396E-16	1.097569E-17
5.570000E+03	1.514088E-16	1.094238E-17
5.580000E+03	1.510838E-16	1.090956E-17
5.590000E+03	1.507661E-16	1.087734E-17
5.600000E+03	1.504546E-16	1.084562E-17
5.610000E+03	1.501493E-16	1.081443E-17
5.620000E+03	1.498505E-16	1.078376E-17
5.630000E+03	1.495585E-16	1.075366E-17
5.640000E+03	1.492732E-16	1.072410E-17
5.650000E+03	1.489950E-16	1.069511E-17
5.660000E+03	1.487240E-16	1.066671E-17
5.670000E+03	1.484588E-16	1.063879E-17
5.680000E+03	1.482027E-16	1.061158E-17
5.690000E+03	1.479525E-16	1.058487E-17
5.700000E+03	1.477103E-16	1.055878E-17
5.710000E+03	1.474756E-16	1.053330E-17
5.720000E+03	1.472474E-16	1.050835E-17
5.730000E+03	1.470258E-16	1.048393E-17
5.740000E+03	1.468121E-16	1.046014E-17
5.750000E+03	1.466051E-16	1.043689E-17
5.760000E+03	1.464049E-16	1.041417E-17
5.770000E+03	1.462128E-16	1.039211E-17
5.780000E+03	1.460261E-16	1.037048E-17
5.790000E+03	1.458447E-16	1.034930E-17
5.800000E+03	1.456716E-16	1.032877E-17
5.810000E+03	1.455025E-16	1.030858E-17
5.820000E+03	1.453417E-16	1.028905E-17
5.830000E+03	1.451849E-16	1.026987E-17
5.840000E+03	1.450337E-16	1.025113E-17
5.850000E+03	1.448880E-16	1.023285E-17
5.860000E+03	1.447464E-16	1.021493E-17
5.870000E+03	1.446103E-16	1.019746E-17
5.880000E+03	1.444797E-16	1.018044E-17
5.890000E+03	1.443518E-16	1.016367E-17
5.900000E+03	1.442282E-16	1.014727E-17
5.910000E+03	1.441087E-16	1.013123E-17
5.920000E+03	1.439935E-16	1.011555E-17
5.930000E+03	1.438798E-16	1.010005E-17
5.940000E+03	1.437705E-16	1.008492E-17
5.950000E+03	1.436641E-16	1.007007E-17
5.960000E+03	1.435595E-16	1.005540E-17
5.970000E+03	1.434580E-16	1.004102E-17
5.980000E+03	1.433596E-16	1.002694E-17
5.990000E+03	1.432633E-16	1.001307E-17
6.000000E+03	1.431676E-16	9.999307E-18
6.010000E+03	1.430754E-16	9.985866E-18
6.020000E+03	1.429854E-16	9.972655E-18
6.030000E+03	1.428979E-16	9.959689E-18
6.040000E+03	1.428115E-16	9.946875E-18
6.050000E+03	1.427292E-16	9.934425E-18
6.060000E+03	1.426483E-16	9.922150E-18
6.070000E+03	1.425705E-16	9.910167E-18
6.080000E+03	1.424970E-16	9.898564E-18
6.090000E+03	1.424257E-16	9.887189E-18
6.100000E+03	1.423592E-16	9.876225E-18
6.110000E+03	1.422976E-16	9.865687E-18
6.120000E+03	1.422412E-16	9.855590E-18
6.130000E+03	1.421915E-16	9.846045E-18
6.140000E+03	1.421487E-16	9.837059E-18
6.150000E+03	1.421129E-16	9.828633E-18
6.160000E+03	1.420883E-16	9.821074E-18
6.170000E+03	1.420736E-16	9.814288E-18
6.180000E+03	1.420719E-16	9.808478E-18
6.190000E+03	1.420816E-16	9.803544E-18
6.200000E+03	1.421027E-16	9.799485E-18
6.210000E+03	1.421338E-16	9.796199E-18
6.220000E+03	1.421708E-16	9.793409E-18
6.230000E+03	1.422161E-16	9.791282E-18
6.240000E+03	1.422668E-16	9.789613E-18
6.250000E+03	1.423228E-16	9.788395E-18
6.260000E+03	1.423822E-16	9.787504E-18
6.270000E+03	1.424463E-16	9.787021E-18
6.280000E+03	1.425145E-16	9.786915E-18
6.290000E+03	1.425852E-16	9.787070E-18
6.300000E+03	1.426579E-16	9.787458E-18
6.310000E+03	1.427335E-16	9.788144E-18
6.320000E+03	1.428102E-16	9.788997E-18
6.330000E+03	1.428890E-16	9.790089E-18
6.340000E+03	1.429691E-16	9.791370E-18
6.350000E+03	1.430488E-16	9.792717E-18
6.360000E+03	1.431302E-16	9.794289E-18
6.370000E+03	1.432098E-16	9.795833E-18
6.380000E+03	1.432900E-16	9.797522E-18
6.390000E+03	1.433685E-16	9.799205E-18
6.400000E+03	1.434448E-16	9.800839E-18
6.410000E+03	1.435182E-16	9.802379E-18
6.420000E+03	1.435893E-16	9.803878E-18
6.430000E+03	1.436574E-16	9.805277E-18
6.440000E+03	1.437219E-16	9.806540E-18
6.450000E+03	1.437818E-16	9.807610E-18
6.460000E+03	1.438381E-16	9.808544E-18
6.470000E+03	1.438913E-16	9.809380E-18
6.480000E+03	1.439406E-16	9.810075E-18
6.490000E+03	1.439884E-16	9.810780E-18
6.500000E+03	1.440322E-16	9.811338E-18
6.510000E+03	1.440729E-16	9.811805E-18
6.520000E+03	1.441065E-16	9.811914E-18
6.530000E+03	1.441340E-16	9.811730E-18
6.540000E+03	1.441528E-16	9.811088E-18
6.550000E+03	1.441638E-16	9.810037E-18
6.560000E+03	1.441676E-16	9.808630E-18
6.570000E+03	1.441620E-16	9.806713E-18
6.580000E+03	1.441493E-16	9.804448E-18
6.590000E+03	1.441287E-16	9.801775E-18
6.600000E+03	1.440995E-16	9.798660E-18
6.610000E+03	1.440626E-16	9.795153E-18
6.620000E+03	1.440188E-16	9.791319E-18
6.630000E+03	1.439674E-16	9.787109E-18
6.640000E+03	1.439078E-16	9.782485E-18
6.650000E+03	1.438394E-16	9.777405E-18
6.660000E+03	1.437648E-16	9.772049E-18
6.670000E+03	1.436801E-16	9.766150E-18
6.680000E+03	1.435881E-16	9.759897E-18
6.690000E+03	1.434866E-16	9.753151E-18
6.700000E+03	1.433766E-16	9.745977E-18
6.710000E+03	1.432578E-16	9.738348E-18
6.720000E+03	1.431295E-16	9.730232E-18
6.730000E+03	1.429932E-16	9.721718E-18
6.740000E+03	1.428451E-16	9.712543E-18
6.750000E+03	1.426881E-16	9.702909E-18
6.760000E+03	1.425202E-16	9.692678E-18
6.770000E+03	1.423428E-16	9.681945E-18
6.780000E+03	1.421539E-16	9.670562E-18
6.790000E+03	1.419549E-16	9.658631E-18
6.800000E+03	1.417456E-16	9.646130E-18
6.810000E+03	1.415240E-16	9.632919E-18
6.820000E+03	1.412916E-16	9.619108E-18
6.830000E+03	1.410496E-16	9.604774E-18
6.840000E+03	1.407932E-16	9.589576E-18
6.850000E+03	1.405270E-16	9.573832E-18
6.860000E+03	1.402491E-16	9.557418E-18
6.870000E+03	1.399579E-16	9.540202E-18
6.880000E+03	1.396563E-16	9.522402E-18
6.890000E+03	1.393411E-16	9.503784E-18
6.900000E+03	1.390137E-16	9.484441E-18
6.910000E+03	1.386740E-16	9.464364E-18
6.920000E+03	1.383221E-16	9.443554E-18
6.930000E+03	1.379576E-16	9.421986E-18
6.940000E+03	1.375790E-16	9.399559E-18
6.950000E+03	1.371879E-16	9.376365E-18
6.960000E+03	1.367842E-16	9.352403E-18
6.970000E+03	1.363662E-16	9.327557E-18
6.980000E+03	1.359356E-16	9.301932E-18
6.990000E+03	1.354924E-16	9.275529E-18
7.000000E+03	1.350332E-16	9.248113E-18
7.010000E+03	1.345633E-16	9.220033E-18
7.020000E+03	1.340775E-16	9.190944E-18
7.030000E+03	1.335794E-16	9.161079E-18
7.040000E+03	1.330656E-16	9.130211E-18
7.050000E+03	1.325397E-16	9.098570E-18
7.060000E+03	1.319985E-16	9.065945E-18
7.070000E+03	1.314438E-16	9.032450E-18
7.080000E+03	1.308759E-16	8.998100E-18
7.090000E+03	1.302933E-16	8.962789E-18
7.100000E+03	1.296962E-16	8.926532E-18
7.110000E+03	1.290866E-16	8.889459E-18
7.120000E+03	1.284614E-16	8.851355E-18
7.130000E+03	1.278244E-16	8.812476E-18
7.140000E+03	1.271710E-16	8.772498E-18
7.150000E+03	1.265063E-16	8.731777E-18
7.160000E+03	1.258263E-16	8.690021E-18
7.170000E+03	1.251342E-16	8.647460E-18
7.180000E+03	1.244274E-16	8.603905E-18
7.190000E+03	1.237082E-16	8.559506E-18
7.200000E+03	1.229754E-16	8.514181E-18
7.210000E+03	1.222311E-16	8.468076E-18
7.220000E+03	1.214728E-16	8.421006E-18
7.230000E+03	1.207042E-16	8.373225E-18
7.240000E+03	1.199215E-16	8.324469E-18
7.250000E+03	1.191296E-16	8.275073E-18
7.260000E+03	1.183248E-16	8.224778E-18
7.270000E+03	1.175096E-16	8.173744E-18
7.280000E+03	1.166828E-16	8.121898E-18
7.290000E+03	1.158483E-16	8.069500E-18
7.300000E+03	1.150024E-16	8.016294E-18
7.310000E+03	1.141475E-16	7.962438E-18
7.320000E+03	1.132844E-16	7.907984E-18
7.330000E+03	1.124138E-16	7.852980E-18
7.340000E+03	1.115365E-16	7.797477E-18
7.350000E+03	1.106520E-16	7.741438E-18
7.360000E+03	1.097611E-16	7.684919E-18
7.370000E+03	1.088646E-16	7.627971E-18
7.380000E+03	1.079636E-16	7.570666E-18
7.390000E+03	1.070586E-16	7.513039E-18
7.400000E+03	1.061521E-16	7.455260E-18
7.410000E+03	1.052419E-16	7.397180E-18
7.420000E+03	1.043306E-16	7.338968E-18
7.430000E+03	1.034187E-16	7.280666E-18
7.440000E+03	1.025059E-16	7.222241E-18
7.450000E+03	1.015954E-16	7.163930E-18
7.460000E+03	1.006855E-16	7.105604E-18
7.470000E+03	9.977827E-17	7.047407E-18
7.480000E+03	9.887316E-17	6.989302E-18
7.490000E+03	9.797339E-17	6.931512E-18
7.500000E+03	9.707595E-17	6.873826E-18
7.510000E+03	9.618521E-17	6.816550E-18
7.520000E+03	9.529937E-17	6.759559E-18
7.530000E+03	9.442025E-17	6.702979E-18
7.540000E+03	9.354846E-17	6.646854E-18
7.550000E+03	9.268334E-17	6.591135E-18
7.560000E+03	9.182664E-17	6.535947E-18
7.570000E+03	9.097998E-17	6.481404E-18
7.580000E+03	9.014148E-17	6.427373E-18
7.590000E+03	8.931273E-17	6.373967E-18
7.600000E+03	8.849411E-17	6.321212E-18
7.610000E+03	8.768709E-17	6.269215E-18
7.620000E+03	8.689080E-17	6.217913E-18
7.630000E+03	8.610552E-17	6.167327E-18
7.640000E+03	8.533256E-17	6.117551E-18
7.650000E+03	8.457097E-17	6.068519E-18
7.660000E+03	8.382197E-17	6.020318E-18
7.670000E+03	8.308562E-17	5.972954E-18
7.680000E+03	8.236197E-17	5.926432E-18
7.690000E+03	8.164995E-17	5.880675E-18
7.700000E+03	8.095168E-17	5.835837E-18
7.710000E+03	8.026601E-17	5.791837E-18
7.720000E+03	7.959289E-17	5.748674E-18
7.730000E+03	7.893221E-17	5.706339E-18
7.740000E+03	7.828388E-17	5.664828E-18
7.750000E+03	7.764775E-17	5.624131E-18
7.760000E+03	7.702471E-17	5.584315E-18
