#wls	flux	fluxerr
1.600000E+03	4.498545E-18	9.783256E-19
1.640000E+03	4.529940E-18	9.845016E-19
1.680000E+03	4.562311E-18	9.908654E-19
1.720000E+03	4.597388E-18	9.977919E-19
1.760000E+03	4.633455E-18	1.004907E-18
1.800000E+03	4.672260E-18	1.012587E-18
1.840000E+03	4.712947E-18	1.020647E-18
1.880000E+03	4.756410E-18	1.029277E-18
1.920000E+03	4.802671E-18	1.038480E-18
1.960000E+03	4.850857E-18	1.048065E-18
2.000000E+03	4.902773E-18	1.058420E-18
2.040000E+03	4.958453E-18	1.069549E-18
2.080000E+03	5.017019E-18	1.081261E-18
2.120000E+03	5.079400E-18	1.093752E-18
2.160000E+03	5.145624E-18	1.107025E-18
2.200000E+03	5.216643E-18	1.121281E-18
2.240000E+03	5.292492E-18	1.136524E-18
2.280000E+03	5.373208E-18	1.152758E-18
2.320000E+03	5.459761E-18	1.170185E-18
2.360000E+03	5.552193E-18	1.188810E-18
2.400000E+03	5.651490E-18	1.208838E-18
2.440000E+03	5.756753E-18	1.230071E-18
2.480000E+03	5.869920E-18	1.252916E-18
2.520000E+03	5.991046E-18	1.277378E-18
2.560000E+03	6.122102E-18	1.303868E-18
2.600000E+03	6.261224E-18	1.331981E-18
2.640000E+03	6.412330E-18	1.362541E-18
2.680000E+03	6.573547E-18	1.395138E-18
2.720000E+03	6.747855E-18	1.430393E-18
2.760000E+03	6.936306E-18	1.468517E-18
2.800000E+03	7.138973E-18	1.509509E-18
2.840000E+03	7.358881E-18	1.553993E-18
2.880000E+03	7.597100E-18	1.602177E-18
2.920000E+03	7.854703E-18	1.654267E-18
2.960000E+03	8.134751E-18	1.710884E-18
3.000000E+03	8.439328E-18	1.772442E-18
3.010000E+03	8.520314E-18	1.788813E-18
3.020000E+03	8.602347E-18	1.805387E-18
3.030000E+03	8.685413E-18	1.822163E-18
3.040000E+03	8.771527E-18	1.839562E-18
3.050000E+03	8.858680E-18	1.857163E-18
3.060000E+03	8.947886E-18	1.875177E-18
3.070000E+03	9.039131E-18	1.893602E-18
3.080000E+03	9.132428E-18	1.912439E-18
3.090000E+03	9.227780E-18	1.931688E-18
3.100000E+03	9.326189E-18	1.951558E-18
3.110000E+03	9.425646E-18	1.971629E-18
3.120000E+03	9.527153E-18	1.992109E-18
3.130000E+03	9.631729E-18	2.013211E-18
3.140000E+03	9.738355E-18	2.034721E-18
3.150000E+03	9.847049E-18	2.056642E-18
3.160000E+03	9.958803E-18	2.079181E-18
3.170000E+03	1.007263E-17	2.102130E-18
3.180000E+03	1.018851E-17	2.125485E-18
3.190000E+03	1.030746E-17	2.149459E-18
3.200000E+03	1.042949E-17	2.174051E-18
3.210000E+03	1.055459E-17	2.199259E-18
3.220000E+03	1.068176E-17	2.224873E-18
3.230000E+03	1.081202E-17	2.251104E-18
3.240000E+03	1.094636E-17	2.278160E-18
3.250000E+03	1.108277E-17	2.305618E-18
3.260000E+03	1.122226E-17	2.333691E-18
3.270000E+03	1.136483E-17	2.362376E-18
3.280000E+03	1.151151E-17	2.391886E-18
3.290000E+03	1.166126E-17	2.422005E-18
3.300000E+03	1.181411E-17	2.452735E-18
3.310000E+03	1.197105E-17	2.484285E-18
3.320000E+03	1.213210E-17	2.516655E-18
3.330000E+03	1.229623E-17	2.549630E-18
3.340000E+03	1.246344E-17	2.583212E-18
3.350000E+03	1.263579E-17	2.617823E-18
3.360000E+03	1.281224E-17	2.653247E-18
3.370000E+03	1.299176E-17	2.689273E-18
3.380000E+03	1.317642E-17	2.726322E-18
3.390000E+03	1.336518E-17	2.764183E-18
3.400000E+03	1.355803E-17	2.802851E-18
3.410000E+03	1.375602E-17	2.842540E-18
3.420000E+03	1.395913E-17	2.883245E-18
3.430000E+03	1.416634E-17	2.924753E-18
3.440000E+03	1.437765E-17	2.967065E-18
3.450000E+03	1.459510E-17	3.010599E-18
3.460000E+03	1.481767E-17	3.055143E-18
3.470000E+03	1.504434E-17	3.100484E-18
3.480000E+03	1.527715E-17	3.147041E-18
3.490000E+03	1.551609E-17	3.194813E-18
3.500000E+03	1.576015E-17	3.243586E-18
3.510000E+03	1.600931E-17	3.293357E-18
3.520000E+03	1.626461E-17	3.344335E-18
3.530000E+03	1.652604E-17	3.396518E-18
3.540000E+03	1.679359E-17	3.449903E-18
3.550000E+03	1.706727E-17	3.504488E-18
3.560000E+03	1.734808E-17	3.560477E-18
3.570000E+03	1.763398E-17	3.617449E-18
3.580000E+03	1.792805E-17	3.676033E-18
3.590000E+03	1.822822E-17	3.735803E-18
3.600000E+03	1.853448E-17	3.796756E-18
3.610000E+03	1.884889E-17	3.859307E-18
3.620000E+03	1.917042E-17	3.923247E-18
3.630000E+03	1.949905E-17	3.988569E-18
3.640000E+03	1.983479E-17	4.055268E-18
3.650000E+03	2.017864E-17	4.123553E-18
3.660000E+03	2.052959E-17	4.193207E-18
3.670000E+03	2.088863E-17	4.264437E-18
3.680000E+03	2.125577E-17	4.337238E-18
3.690000E+03	2.163203E-17	4.411814E-18
3.700000E+03	2.201534E-17	4.487742E-18
3.710000E+03	2.240774E-17	4.565437E-18
3.720000E+03	2.280820E-17	4.644681E-18
3.730000E+03	2.321670E-17	4.725471E-18
3.740000E+03	2.363529E-17	4.808219E-18
3.750000E+03	2.406191E-17	4.892502E-18
3.760000E+03	2.449756E-17	4.978522E-18
3.770000E+03	2.494326E-17	5.066483E-18
3.780000E+03	2.539694E-17	5.155960E-18
3.790000E+03	2.586064E-17	5.247363E-18
3.800000E+03	2.633331E-17	5.340477E-18
3.810000E+03	2.681598E-17	5.435506E-18
3.820000E+03	2.730861E-17	5.532438E-18
3.830000E+03	2.781017E-17	5.631063E-18
3.840000E+03	2.832166E-17	5.731576E-18
3.850000E+03	2.884307E-17	5.833976E-18
3.860000E+03	2.937437E-17	5.938249E-18
3.870000E+03	2.991554E-17	6.044389E-18
3.880000E+03	3.046656E-17	6.152387E-18
3.890000E+03	3.102741E-17	6.262236E-18
3.900000E+03	3.159807E-17	6.373926E-18
3.910000E+03	3.217850E-17	6.487449E-18
3.920000E+03	3.276971E-17	6.603002E-18
3.930000E+03	3.337065E-17	6.720370E-18
3.940000E+03	3.398027E-17	6.839335E-18
3.950000E+03	3.460058E-17	6.960302E-18
3.960000E+03	3.523054E-17	7.083055E-18
3.970000E+03	3.587011E-17	7.207583E-18
3.980000E+03	3.651927E-17	7.333877E-18
3.990000E+03	3.717696E-17	7.461720E-18
4.000000E+03	3.784416E-17	7.591306E-18
4.010000E+03	3.852086E-17	7.722628E-18
4.020000E+03	3.920496E-17	7.855263E-18
4.030000E+03	3.989848E-17	7.989610E-18
4.040000E+03	4.060036E-17	8.125455E-18
4.050000E+03	4.131057E-17	8.262785E-18
4.060000E+03	4.202804E-17	8.401386E-18
4.070000E+03	4.275276E-17	8.541249E-18
4.080000E+03	4.348568E-17	8.682564E-18
4.090000E+03	4.422371E-17	8.824708E-18
4.100000E+03	4.496886E-17	8.968082E-18
4.110000E+03	4.572008E-17	9.112469E-18
4.120000E+03	4.647629E-17	9.257655E-18
4.130000E+03	4.723848E-17	9.403833E-18
4.140000E+03	4.800458E-17	9.550587E-18
4.150000E+03	4.877454E-17	9.697907E-18
4.160000E+03	4.954831E-17	9.845781E-18
4.170000E+03	5.032486E-17	9.993999E-18
4.180000E+03	5.110414E-17	1.014255E-17
4.190000E+03	5.188510E-17	1.029123E-17
4.200000E+03	5.266668E-17	1.043982E-17
4.210000E+03	5.344985E-17	1.058851E-17
4.220000E+03	5.423358E-17	1.073710E-17
4.230000E+03	5.501680E-17	1.088538E-17
4.240000E+03	5.579846E-17	1.103314E-17
4.250000E+03	5.657853E-17	1.118037E-17
4.260000E+03	5.735700E-17	1.132706E-17
4.270000E+03	5.813279E-17	1.147302E-17
4.280000E+03	5.890487E-17	1.161802E-17
4.290000E+03	5.967424E-17	1.176228E-17
4.300000E+03	6.043882E-17	1.190538E-17
4.310000E+03	6.119860E-17	1.204731E-17
4.320000E+03	6.195455E-17	1.218829E-17
4.330000E+03	6.270566E-17	1.232809E-17
4.340000E+03	6.345087E-17	1.246653E-17
4.350000E+03	6.419018E-17	1.260359E-17
4.360000E+03	6.492355E-17	1.273928E-17
4.370000E+03	6.565198E-17	1.287378E-17
4.380000E+03	6.637343E-17	1.300671E-17
4.390000E+03	6.708889E-17	1.313826E-17
4.400000E+03	6.779836E-17	1.326843E-17
4.410000E+03	6.850079E-17	1.339701E-17
4.420000E+03	6.919717E-17	1.352421E-17
4.430000E+03	6.988751E-17	1.365003E-17
4.440000E+03	7.057078E-17	1.377426E-17
4.450000E+03	7.124796E-17	1.389710E-17
4.460000E+03	7.191905E-17	1.401855E-17
4.470000E+03	7.258203E-17	1.413822E-17
4.480000E+03	7.323789E-17	1.425632E-17
4.490000E+03	7.388564E-17	1.437263E-17
4.500000E+03	7.452426E-17	1.448698E-17
4.510000E+03	7.515574E-17	1.459975E-17
4.520000E+03	7.577710E-17	1.471036E-17
4.530000E+03	7.638835E-17	1.481882E-17
4.540000E+03	7.699047E-17	1.492533E-17
4.550000E+03	7.758150E-17	1.502951E-17
4.560000E+03	7.816144E-17	1.513136E-17
4.570000E+03	7.873130E-17	1.523107E-17
4.580000E+03	7.928912E-17	1.532829E-17
4.590000E+03	7.983491E-17	1.542301E-17
4.600000E+03	8.036868E-17	1.551524E-17
4.610000E+03	8.089048E-17	1.560499E-17
4.620000E+03	8.140032E-17	1.569227E-17
4.630000E+03	8.189823E-17	1.577709E-17
4.640000E+03	8.238326E-17	1.585928E-17
4.650000E+03	8.285544E-17	1.593884E-17
4.660000E+03	8.331677E-17	1.601616E-17
4.670000E+03	8.376435E-17	1.609070E-17
4.680000E+03	8.420017E-17	1.616283E-17
4.690000E+03	8.462329E-17	1.623239E-17
4.700000E+03	8.503279E-17	1.629920E-17
4.710000E+03	8.542871E-17	1.636328E-17
4.720000E+03	8.581111E-17	1.642463E-17
4.730000E+03	8.617809E-17	1.648292E-17
4.740000E+03	8.652874E-17	1.653796E-17
4.750000E+03	8.686215E-17	1.658959E-17
4.760000E+03	8.717647E-17	1.663747E-17
4.770000E+03	8.746884E-17	1.668105E-17
4.780000E+03	8.773842E-17	1.672019E-17
4.790000E+03	8.798337E-17	1.675455E-17
4.800000E+03	8.820669E-17	1.678471E-17
4.810000E+03	8.840849E-17	1.681070E-17
4.820000E+03	8.859272E-17	1.683327E-17
4.830000E+03	8.876142E-17	1.685283E-17
4.840000E+03	8.891465E-17	1.686939E-17
4.850000E+03	8.905637E-17	1.688371E-17
4.860000E+03	8.918664E-17	1.689580E-17
4.870000E+03	8.930555E-17	1.690570E-17
4.880000E+03	8.941603E-17	1.691395E-17
4.890000E+03	8.951722E-17	1.692040E-17
4.900000E+03	8.961108E-17	1.692543E-17
4.910000E+03	8.969770E-17	1.692905E-17
4.920000E+03	8.977713E-17	1.693128E-17
4.930000E+03	8.985041E-17	1.693232E-17
4.940000E+03	8.991760E-17	1.693217E-17
4.950000E+03	8.997879E-17	1.693087E-17
4.960000E+03	9.003497E-17	1.692860E-17
4.970000E+03	9.008623E-17	1.692538E-17
4.980000E+03	9.013169E-17	1.692105E-17
4.990000E+03	9.017332E-17	1.691597E-17
5.000000E+03	9.021024E-17	1.690999E-17
5.010000E+03	9.024347E-17	1.690330E-17
5.020000E+03	9.027213E-17	1.689574E-17
5.030000E+03	9.029819E-17	1.688768E-17
5.040000E+03	9.031983E-17	1.687878E-17
5.050000E+03	9.033714E-17	1.686905E-17
5.060000E+03	9.035299E-17	1.685905E-17
5.070000E+03	9.036466E-17	1.684825E-17
5.080000E+03	9.037315E-17	1.683685E-17
5.090000E+03	9.037947E-17	1.682504E-17
5.100000E+03	9.038371E-17	1.681283E-17
5.110000E+03	9.038499E-17	1.680007E-17
5.120000E+03	9.038432E-17	1.678695E-17
5.130000E+03	9.038086E-17	1.677330E-17
5.140000E+03	9.037561E-17	1.675933E-17
5.150000E+03	9.036863E-17	1.674503E-17
5.160000E+03	9.036001E-17	1.673042E-17
5.170000E+03	9.035075E-17	1.671571E-17
5.180000E+03	9.033907E-17	1.670054E-17
5.190000E+03	9.032598E-17	1.668512E-17
5.200000E+03	9.031246E-17	1.666963E-17
5.210000E+03	9.029767E-17	1.665390E-17
5.220000E+03	9.028261E-17	1.663814E-17
5.230000E+03	9.026643E-17	1.662217E-17
5.240000E+03	9.025012E-17	1.660619E-17
5.250000E+03	9.023284E-17	1.659004E-17
5.260000E+03	9.021649E-17	1.657407E-17
5.270000E+03	9.019931E-17	1.655796E-17
5.280000E+03	9.018321E-17	1.654205E-17
5.290000E+03	9.016642E-17	1.652603E-17
5.300000E+03	9.015085E-17	1.651025E-17
5.310000E+03	9.013656E-17	1.649472E-17
5.320000E+03	9.012271E-17	1.647928E-17
5.330000E+03	9.011028E-17	1.646411E-17
5.340000E+03	9.009842E-17	1.644906E-17
5.350000E+03	9.008903E-17	1.643447E-17
5.360000E+03	9.008216E-17	1.642036E-17
5.370000E+03	9.007606E-17	1.640641E-17
5.380000E+03	9.007353E-17	1.639312E-17
5.390000E+03	9.007282E-17	1.638018E-17
5.400000E+03	9.007488E-17	1.636775E-17
5.410000E+03	9.007978E-17	1.635586E-17
5.420000E+03	9.008849E-17	1.634467E-17
5.430000E+03	9.010014E-17	1.633404E-17
5.440000E+03	9.011570E-17	1.632412E-17
5.450000E+03	9.013431E-17	1.631477E-17
5.460000E+03	9.015693E-17	1.630616E-17
5.470000E+03	9.018451E-17	1.629847E-17
5.480000E+03	9.021529E-17	1.629136E-17
5.490000E+03	9.025023E-17	1.628502E-17
5.500000E+03	9.028938E-17	1.627945E-17
5.510000E+03	9.033187E-17	1.627449E-17
5.520000E+03	9.037958E-17	1.627049E-17
5.530000E+03	9.043074E-17	1.626712E-17
5.540000E+03	9.048720E-17	1.626472E-17
5.550000E+03	9.054720E-17	1.626296E-17
5.560000E+03	9.061080E-17	1.626186E-17
5.570000E+03	9.067894E-17	1.626158E-17
5.580000E+03	9.075166E-17	1.626214E-17
5.590000E+03	9.082722E-17	1.626321E-17
5.600000E+03	9.090745E-17	1.626513E-17
5.610000E+03	9.099059E-17	1.626759E-17
5.620000E+03	9.107760E-17	1.627074E-17
5.630000E+03	9.116761E-17	1.627444E-17
5.640000E+03	9.126065E-17	1.627870E-17
5.650000E+03	9.135767E-17	1.628367E-17
5.660000E+03	9.145691E-17	1.628905E-17
5.670000E+03	9.155930E-17	1.629501E-17
5.680000E+03	9.166398E-17	1.630138E-17
5.690000E+03	9.177098E-17	1.630818E-17
5.700000E+03	9.188121E-17	1.631557E-17
5.710000E+03	9.199294E-17	1.632323E-17
5.720000E+03	9.210706E-17	1.633134E-17
5.730000E+03	9.222271E-17	1.633973E-17
5.740000E+03	9.234081E-17	1.634858E-17
5.750000E+03	9.246048E-17	1.635771E-17
5.760000E+03	9.258083E-17	1.636699E-17
5.770000E+03	9.270369E-17	1.637673E-17
5.780000E+03	9.282725E-17	1.638662E-17
5.790000E+03	9.295244E-17	1.639681E-17
5.800000E+03	9.307836E-17	1.640716E-17
5.810000E+03	9.320499E-17	1.641766E-17
5.820000E+03	9.333236E-17	1.642831E-17
5.830000E+03	9.346046E-17	1.643912E-17
5.840000E+03	9.358927E-17	1.645008E-17
5.850000E+03	9.371787E-17	1.646103E-17
5.860000E+03	9.384718E-17	1.647214E-17
5.870000E+03	9.397625E-17	1.648324E-17
5.880000E+03	9.410599E-17	1.649450E-17
5.890000E+03	9.423452E-17	1.650558E-17
5.900000E+03	9.436366E-17	1.651680E-17
5.910000E+03	9.449154E-17	1.652785E-17
5.920000E+03	9.461904E-17	1.653887E-17
5.930000E+03	9.474611E-17	1.654986E-17
5.940000E+03	9.487178E-17	1.656065E-17
5.950000E+03	9.499695E-17	1.657141E-17
5.960000E+03	9.512060E-17	1.658195E-17
5.970000E+03	9.524270E-17	1.659227E-17
5.980000E+03	9.536409E-17	1.660253E-17
5.990000E+03	9.548284E-17	1.661238E-17
6.000000E+03	9.560169E-17	1.662231E-17
6.010000E+03	9.571774E-17	1.663182E-17
6.020000E+03	9.583279E-17	1.664122E-17
6.030000E+03	9.594581E-17	1.665033E-17
6.040000E+03	9.605669E-17	1.665914E-17
6.050000E+03	9.616629E-17	1.666781E-17
6.060000E+03	9.627451E-17	1.667631E-17
6.070000E+03	9.638029E-17	1.668446E-17
6.080000E+03	9.648541E-17	1.669258E-17
6.090000E+03	9.658977E-17	1.670065E-17
6.100000E+03	9.669327E-17	1.670866E-17
6.110000E+03	9.679576E-17	1.671658E-17
6.120000E+03	9.689810E-17	1.672457E-17
6.130000E+03	9.700211E-17	1.673293E-17
6.140000E+03	9.710766E-17	1.674166E-17
6.150000E+03	9.721560E-17	1.675089E-17
6.160000E+03	9.732778E-17	1.676095E-17
6.170000E+03	9.744799E-17	1.677250E-17
6.180000E+03	9.757615E-17	1.678551E-17
6.190000E+03	9.771027E-17	1.679965E-17
6.200000E+03	9.784716E-17	1.681437E-17
6.210000E+03	9.798672E-17	1.682965E-17
6.220000E+03	9.812581E-17	1.684496E-17
6.230000E+03	9.826432E-17	1.686028E-17
6.240000E+03	9.839988E-17	1.687521E-17
6.250000E+03	9.853238E-17	1.688973E-17
6.260000E+03	9.866061E-17	1.690364E-17
6.270000E+03	9.878418E-17	1.691686E-17
6.280000E+03	9.890295E-17	1.692939E-17
6.290000E+03	9.901554E-17	1.694100E-17
6.300000E+03	9.912181E-17	1.695165E-17
6.310000E+03	9.922254E-17	1.696149E-17
6.320000E+03	9.931525E-17	1.697009E-17
6.330000E+03	9.940069E-17	1.697759E-17
6.340000E+03	9.947972E-17	1.698415E-17
6.350000E+03	9.955095E-17	1.698952E-17
6.360000E+03	9.961415E-17	1.699367E-17
6.370000E+03	9.966891E-17	1.699654E-17
6.380000E+03	9.971707E-17	1.699843E-17
6.390000E+03	9.975625E-17	1.699896E-17
6.400000E+03	9.978828E-17	1.699844E-17
6.410000E+03	9.981276E-17	1.699679E-17
6.420000E+03	9.982956E-17	1.699401E-17
6.430000E+03	9.983925E-17	1.699019E-17
6.440000E+03	9.984063E-17	1.698513E-17
6.450000E+03	9.983544E-17	1.697914E-17
6.460000E+03	9.982456E-17	1.697236E-17
6.470000E+03	9.980549E-17	1.696437E-17
6.480000E+03	9.978118E-17	1.695567E-17
6.490000E+03	9.975032E-17	1.694606E-17
6.500000E+03	9.971378E-17	1.693567E-17
6.510000E+03	9.967213E-17	1.692461E-17
6.520000E+03	9.962329E-17	1.691252E-17
6.530000E+03	9.956781E-17	1.689951E-17
6.540000E+03	9.950461E-17	1.688539E-17
6.550000E+03	9.943435E-17	1.687028E-17
6.560000E+03	9.935573E-17	1.685395E-17
6.570000E+03	9.926755E-17	1.683621E-17
6.580000E+03	9.917166E-17	1.681738E-17
6.590000E+03	9.906567E-17	1.679704E-17
6.600000E+03	9.894927E-17	1.677516E-17
6.610000E+03	9.882350E-17	1.675190E-17
6.620000E+03	9.868804E-17	1.672722E-17
6.630000E+03	9.854055E-17	1.670073E-17
6.640000E+03	9.838410E-17	1.667293E-17
6.650000E+03	9.821523E-17	1.664326E-17
6.660000E+03	9.803595E-17	1.661204E-17
6.670000E+03	9.784609E-17	1.657927E-17
6.680000E+03	9.764551E-17	1.654490E-17
6.690000E+03	9.743296E-17	1.650873E-17
6.700000E+03	9.720942E-17	1.647093E-17
6.710000E+03	9.697584E-17	1.643166E-17
6.720000E+03	9.673104E-17	1.639072E-17
6.730000E+03	9.647496E-17	1.634808E-17
6.740000E+03	9.620863E-17	1.630393E-17
6.750000E+03	9.593201E-17	1.625825E-17
6.760000E+03	9.564398E-17	1.621084E-17
6.770000E+03	9.534668E-17	1.616207E-17
6.780000E+03	9.503901E-17	1.611175E-17
6.790000E+03	9.472098E-17	1.605986E-17
6.800000E+03	9.439368E-17	1.600659E-17
6.810000E+03	9.405712E-17	1.595194E-17
6.820000E+03	9.371024E-17	1.589572E-17
6.830000E+03	9.335526E-17	1.583830E-17
6.840000E+03	9.299113E-17	1.577950E-17
6.850000E+03	9.261790E-17	1.571933E-17
6.860000E+03	9.223564E-17	1.565778E-17
6.870000E+03	9.184552E-17	1.559506E-17
6.880000E+03	9.144654E-17	1.553098E-17
6.890000E+03	9.103994E-17	1.546576E-17
6.900000E+03	9.062585E-17	1.539940E-17
6.910000E+03	9.020447E-17	1.533195E-17
6.920000E+03	8.977592E-17	1.526341E-17
6.930000E+03	8.933934E-17	1.519363E-17
6.940000E+03	8.889703E-17	1.512299E-17
6.950000E+03	8.844811E-17	1.505135E-17
6.960000E+03	8.799278E-17	1.497873E-17
6.970000E+03	8.753122E-17	1.490515E-17
6.980000E+03	8.706469E-17	1.483083E-17
6.990000E+03	8.659236E-17	1.475562E-17
7.000000E+03	8.611441E-17	1.467954E-17
7.010000E+03	8.563106E-17	1.460263E-17
7.020000E+03	8.514360E-17	1.452510E-17
7.030000E+03	8.465119E-17	1.444680E-17
7.040000E+03	8.415508E-17	1.436794E-17
7.050000E+03	8.365447E-17	1.428838E-17
7.060000E+03	8.314960E-17	1.420816E-17
7.070000E+03	8.264172E-17	1.412748E-17
7.080000E+03	8.213003E-17	1.404620E-17
7.090000E+03	8.161480E-17	1.396437E-17
7.100000E+03	8.109725E-17	1.388218E-17
7.110000E+03	8.057762E-17	1.379968E-17
7.120000E+03	8.005413E-17	1.371656E-17
7.130000E+03	7.952904E-17	1.363319E-17
7.140000E+03	7.900159E-17	1.354945E-17
7.150000E+03	7.847300E-17	1.346553E-17
7.160000E+03	7.794253E-17	1.338131E-17
7.170000E+03	7.741040E-17	1.329682E-17
7.180000E+03	7.687783E-17	1.321227E-17
7.190000E+03	7.634311E-17	1.312736E-17
7.200000E+03	7.580938E-17	1.304262E-17
7.210000E+03	7.527397E-17	1.295760E-17
7.220000E+03	7.473902E-17	1.287265E-17
7.230000E+03	7.420380E-17	1.278765E-17
7.240000E+03	7.366949E-17	1.270280E-17
7.250000E+03	7.313533E-17	1.261796E-17
7.260000E+03	7.260156E-17	1.253317E-17
7.270000E+03	7.207025E-17	1.244879E-17
7.280000E+03	7.153880E-17	1.236437E-17
7.290000E+03	7.101019E-17	1.228041E-17
7.300000E+03	7.048275E-17	1.219663E-17
7.310000E+03	6.995852E-17	1.211337E-17
7.320000E+03	6.943583E-17	1.203035E-17
7.330000E+03	6.891666E-17	1.194791E-17
7.340000E+03	6.840030E-17	1.186592E-17
7.350000E+03	6.788777E-17	1.178455E-17
7.360000E+03	6.737923E-17	1.170384E-17
7.370000E+03	6.687391E-17	1.162365E-17
7.380000E+03	6.637286E-17	1.154416E-17
7.390000E+03	6.587617E-17	1.146538E-17
7.400000E+03	6.538399E-17	1.138734E-17
7.410000E+03	6.489729E-17	1.131020E-17
7.420000E+03	6.441358E-17	1.123355E-17
7.430000E+03	6.393556E-17	1.115783E-17
7.440000E+03	6.346161E-17	1.108277E-17
7.450000E+03	6.299186E-17	1.100839E-17
7.460000E+03	6.252640E-17	1.093471E-17
7.470000E+03	6.206616E-17	1.086189E-17
7.480000E+03	6.161040E-17	1.078980E-17
7.490000E+03	6.115839E-17	1.071831E-17
7.500000E+03	6.071022E-17	1.064743E-17
7.510000E+03	6.026601E-17	1.057719E-17
7.520000E+03	5.982663E-17	1.050774E-17
7.530000E+03	5.938976E-17	1.043868E-17
7.540000E+03	5.895791E-17	1.037043E-17
7.550000E+03	5.852876E-17	1.030260E-17
7.560000E+03	5.810397E-17	1.023547E-17
7.570000E+03	5.768208E-17	1.016878E-17
7.580000E+03	5.726392E-17	1.010269E-17
7.590000E+03	5.684958E-17	1.003721E-17
7.600000E+03	5.643837E-17	9.972213E-18
7.610000E+03	5.603111E-17	9.907845E-18
7.620000E+03	5.562711E-17	9.843983E-18
7.630000E+03	5.522719E-17	9.780773E-18
7.640000E+03	5.482992E-17	9.717963E-18
7.650000E+03	5.443684E-17	9.655821E-18
7.660000E+03	5.404798E-17	9.594357E-18
7.670000E+03	5.366193E-17	9.533316E-18
7.680000E+03	5.328016E-17	9.472963E-18
7.690000E+03	5.290198E-17	9.413175E-18
7.700000E+03	5.252743E-17	9.353956E-18
7.710000E+03	5.215654E-17	9.295313E-18
7.720000E+03	5.179002E-17	9.237373E-18
7.730000E+03	5.142720E-17	9.180018E-18
7.740000E+03	5.106808E-17	9.123246E-18
7.750000E+03	5.071338E-17	9.067188E-18
7.760000E+03	5.036311E-17	9.011844E-18
