#wls	flux	fluxerr
1.590182E+03	3.112840E-02	1.045713E-03
1.629937E+03	2.650546E-02	8.791813E-04
1.669691E+03	2.229890E-02	7.301279E-04
1.709446E+03	1.853569E-02	5.989384E-04
1.749200E+03	1.522630E-02	4.854149E-04
1.788955E+03	1.236214E-02	3.887287E-04
1.828710E+03	9.918903E-03	3.075686E-04
1.868464E+03	7.869472E-03	2.405713E-04
1.908219E+03	6.178247E-03	1.861578E-04
1.947973E+03	4.807791E-03	1.427517E-04
1.987728E+03	3.720452E-03	1.088324E-04
2.027482E+03	2.881325E-03	8.302231E-05
2.067237E+03	2.257964E-03	6.407356E-05
2.106991E+03	1.820590E-03	5.086983E-05
2.146746E+03	1.542542E-03	4.243331E-05
2.186501E+03	1.397983E-03	3.785630E-05
2.226255E+03	1.369373E-03	3.649887E-05
2.266010E+03	1.454394E-03	3.815283E-05
2.305764E+03	1.668002E-03	4.306265E-05
2.345519E+03	2.046634E-03	5.199617E-05
2.385273E+03	2.655201E-03	6.637684E-05
2.425028E+03	3.593304E-03	8.838020E-05
2.464782E+03	4.998717E-03	1.209507E-04
2.504537E+03	7.038034E-03	1.675058E-04
2.544292E+03	9.875588E-03	2.311550E-04
2.584046E+03	1.360910E-02	3.132261E-04
2.623801E+03	1.819608E-02	4.117323E-04
2.663555E+03	2.344542E-02	5.214568E-04
2.703310E+03	2.905658E-02	6.350933E-04
2.743064E+03	3.465695E-02	7.442547E-04
2.782819E+03	3.986717E-02	8.409825E-04
2.822573E+03	4.437198E-02	9.192225E-04
2.862328E+03	4.797623E-02	9.758363E-04
2.902083E+03	5.062402E-02	1.010754E-03
2.941837E+03	5.240042E-02	1.026745E-03
2.981592E+03	5.349268E-02	1.028406E-03
2.991530E+03	5.368977E-02	1.027266E-03
3.001469E+03	5.386386E-02	1.025663E-03
3.011408E+03	5.401953E-02	1.023689E-03
3.021346E+03	5.416433E-02	1.021492E-03
3.031285E+03	5.430380E-02	1.019181E-03
3.041223E+03	5.444468E-02	1.016881E-03
3.051162E+03	5.459223E-02	1.014690E-03
3.061101E+03	5.474943E-02	1.012661E-03
3.071039E+03	5.492050E-02	1.010868E-03
3.080978E+03	5.511207E-02	1.009428E-03
3.090917E+03	5.532620E-02	1.008374E-03
3.100855E+03	5.556857E-02	1.007800E-03
3.110794E+03	5.584257E-02	1.007761E-03
3.120733E+03	5.615616E-02	1.008390E-03
3.130671E+03	5.651079E-02	1.009702E-03
3.140610E+03	5.691227E-02	1.011790E-03
3.150549E+03	5.736667E-02	1.014747E-03
3.160487E+03	5.787890E-02	1.018645E-03
3.170426E+03	5.845187E-02	1.023520E-03
3.180364E+03	5.909396E-02	1.029501E-03
3.190303E+03	5.980823E-02	1.036622E-03
3.200242E+03	6.060102E-02	1.044972E-03
3.210180E+03	6.147644E-02	1.054602E-03
3.220119E+03	6.244093E-02	1.065598E-03
3.230058E+03	6.349957E-02	1.078023E-03
3.239996E+03	6.465737E-02	1.091936E-03
3.249935E+03	6.591804E-02	1.107373E-03
3.259874E+03	6.728711E-02	1.124398E-03
3.269812E+03	6.876839E-02	1.143046E-03
3.279751E+03	7.036409E-02	1.163322E-03
3.289689E+03	7.207755E-02	1.185252E-03
3.299628E+03	7.390898E-02	1.208807E-03
3.309567E+03	7.585932E-02	1.233970E-03
3.319505E+03	7.792553E-02	1.260660E-03
3.329444E+03	8.010379E-02	1.288785E-03
3.339383E+03	8.238779E-02	1.318214E-03
3.349321E+03	8.476857E-02	1.348775E-03
3.359260E+03	8.723396E-02	1.380250E-03
3.369199E+03	8.976709E-02	1.412352E-03
3.379137E+03	9.234984E-02	1.444777E-03
3.389076E+03	9.495603E-02	1.477106E-03
3.399014E+03	9.756059E-02	1.508944E-03
3.408953E+03	1.001286E-01	1.539755E-03
3.418892E+03	1.026233E-01	1.568986E-03
3.428830E+03	1.050032E-01	1.596027E-03
3.438769E+03	1.072197E-01	1.620175E-03
3.448708E+03	1.092196E-01	1.640671E-03
3.458646E+03	1.109358E-01	1.656575E-03
3.468585E+03	1.122905E-01	1.666807E-03
3.478524E+03	1.132022E-01	1.670261E-03
3.488462E+03	1.135929E-01	1.665912E-03
3.498401E+03	1.134040E-01	1.653046E-03
3.508340E+03	1.125963E-01	1.631247E-03
3.518278E+03	1.111661E-01	1.600627E-03
3.528217E+03	1.091385E-01	1.561708E-03
3.538155E+03	1.065709E-01	1.515466E-03
3.548094E+03	1.035451E-01	1.463199E-03
3.558033E+03	1.001657E-01	1.406498E-03
3.567971E+03	9.655394E-02	1.347149E-03
3.577910E+03	9.283289E-02	1.286921E-03
3.587849E+03	8.912904E-02	1.227584E-03
3.597787E+03	8.555963E-02	1.170738E-03
3.607726E+03	8.222909E-02	1.117769E-03
3.617665E+03	7.922802E-02	1.069834E-03
3.627603E+03	7.663207E-02	1.027861E-03
3.637542E+03	7.450005E-02	9.925236E-04
3.647480E+03	7.287938E-02	9.643240E-04
3.657419E+03	7.180309E-02	9.435578E-04
3.667358E+03	7.129896E-02	9.304389E-04
3.677296E+03	7.138983E-02	9.251069E-04
3.687235E+03	7.209754E-02	9.276795E-04
3.697174E+03	7.344226E-02	9.382441E-04
3.707112E+03	7.544629E-02	9.569071E-04
3.717051E+03	7.813132E-02	9.837581E-04
3.726990E+03	8.151888E-02	1.018876E-03
3.736928E+03	8.562730E-02	1.062290E-03
3.746867E+03	9.047044E-02	1.113969E-03
3.756805E+03	9.605264E-02	1.173758E-03
3.766744E+03	1.023656E-01	1.241346E-03
3.776683E+03	1.093875E-01	1.316260E-03
3.786621E+03	1.170700E-01	1.397723E-03
3.796560E+03	1.253448E-01	1.484734E-03
3.806499E+03	1.341171E-01	1.576009E-03
3.816437E+03	1.432613E-01	1.669938E-03
3.826376E+03	1.526293E-01	1.764701E-03
3.836315E+03	1.620546E-01	1.858322E-03
3.846253E+03	1.713578E-01	1.948741E-03
3.856192E+03	1.803569E-01	2.033940E-03
3.866131E+03	1.888778E-01	2.112058E-03
3.876069E+03	1.967691E-01	2.181554E-03
3.886008E+03	2.039058E-01	2.241235E-03
3.895946E+03	2.101975E-01	2.290335E-03
3.905885E+03	2.155931E-01	2.328549E-03
3.915824E+03	2.200820E-01	2.356025E-03
3.925762E+03	2.236956E-01	2.373361E-03
3.935701E+03	2.264991E-01	2.381500E-03
3.945640E+03	2.285855E-01	2.381653E-03
3.955578E+03	2.300759E-01	2.375280E-03
3.965517E+03	2.310964E-01	2.363853E-03
3.975456E+03	2.317760E-01	2.348821E-03
3.985394E+03	2.322279E-01	2.331428E-03
3.995333E+03	2.325370E-01	2.312592E-03
4.005271E+03	2.327553E-01	2.292878E-03
4.015210E+03	2.328815E-01	2.272310E-03
4.025149E+03	2.328727E-01	2.250511E-03
4.035087E+03	2.326442E-01	2.226719E-03
4.045026E+03	2.320808E-01	2.199918E-03
4.054965E+03	2.310530E-01	2.168997E-03
4.064903E+03	2.294389E-01	2.132961E-03
4.074842E+03	2.271338E-01	2.091020E-03
4.084781E+03	2.240676E-01	2.042729E-03
4.094719E+03	2.202125E-01	1.988051E-03
4.104658E+03	2.155742E-01	1.927254E-03
4.114596E+03	2.102022E-01	1.860983E-03
4.124535E+03	2.041753E-01	1.790120E-03
4.134474E+03	1.975968E-01	1.715728E-03
4.144412E+03	1.905880E-01	1.638982E-03
4.154351E+03	1.832819E-01	1.561113E-03
4.164290E+03	1.758180E-01	1.483357E-03
4.174228E+03	1.683384E-01	1.406924E-03
4.184167E+03	1.609842E-01	1.332967E-03
4.194106E+03	1.538932E-01	1.262568E-03
4.204044E+03	1.471950E-01	1.196697E-03
4.213983E+03	1.410105E-01	1.136220E-03
4.223922E+03	1.354488E-01	1.081877E-03
4.233860E+03	1.306000E-01	1.034229E-03
4.243799E+03	1.265289E-01	9.936208E-04
4.253737E+03	1.232793E-01	9.602265E-04
4.263676E+03	1.208686E-01	9.340122E-04
4.273615E+03	1.192877E-01	9.147482E-04
4.283553E+03	1.185005E-01	9.020102E-04
4.293492E+03	1.184434E-01	8.951859E-04
4.303431E+03	1.190297E-01	8.935154E-04
4.313369E+03	1.201434E-01	8.960490E-04
4.323308E+03	1.216564E-01	9.017782E-04
4.333247E+03	1.234366E-01	9.096960E-04
4.343185E+03	1.253682E-01	9.189427E-04
4.353124E+03	1.273617E-01	9.288736E-04
4.363062E+03	1.293613E-01	9.391009E-04
4.373001E+03	1.313413E-01	9.494605E-04
4.382940E+03	1.333045E-01	9.599797E-04
4.392878E+03	1.352706E-01	9.708004E-04
4.402817E+03	1.372711E-01	9.821475E-04
4.412756E+03	1.393451E-01	9.942950E-04
4.422694E+03	1.415254E-01	1.007469E-03
4.432633E+03	1.438328E-01	1.021807E-03
4.442572E+03	1.462634E-01	1.037271E-03
4.452510E+03	1.487641E-01	1.053475E-03
4.462449E+03	1.512283E-01	1.069656E-03
4.472387E+03	1.535015E-01	1.084714E-03
4.482326E+03	1.554136E-01	1.097442E-03
4.492265E+03	1.568109E-01	1.106746E-03
4.502203E+03	1.575753E-01	1.111782E-03
4.512142E+03	1.576365E-01	1.112039E-03
4.522081E+03	1.569780E-01	1.107382E-03
4.532019E+03	1.556297E-01	1.097998E-03
4.541958E+03	1.536560E-01	1.084314E-03
4.551897E+03	1.511482E-01	1.066950E-03
4.561835E+03	1.482034E-01	1.046563E-03
4.571774E+03	1.449233E-01	1.023845E-03
4.581713E+03	1.414097E-01	9.994925E-04
4.591651E+03	1.377579E-01	9.741581E-04
4.601590E+03	1.340539E-01	9.484329E-04
4.611528E+03	1.303857E-01	9.229233E-04
4.621467E+03	1.268235E-01	8.981165E-04
4.631406E+03	1.234349E-01	8.744805E-04
4.641344E+03	1.202701E-01	8.523645E-04
4.651283E+03	1.173636E-01	8.320083E-04
4.661222E+03	1.147311E-01	8.135187E-04
4.671160E+03	1.123694E-01	7.968683E-04
4.681099E+03	1.102607E-01	7.819297E-04
4.691038E+03	1.083726E-01	7.684675E-04
4.700976E+03	1.066647E-01	7.561932E-04
4.710915E+03	1.050924E-01	7.447880E-04
4.720853E+03	1.036059E-01	7.338948E-04
4.730792E+03	1.021609E-01	7.231986E-04
4.740731E+03	1.007115E-01	7.123727E-04
4.750669E+03	9.922523E-02	7.011884E-04
4.760608E+03	9.767981E-02	6.894896E-04
4.770547E+03	9.606477E-02	6.772056E-04
4.780485E+03	9.438838E-02	6.643989E-04
4.790424E+03	9.267433E-02	6.512414E-04
4.800363E+03	9.095745E-02	6.379828E-04
4.810301E+03	8.928626E-02	6.249675E-04
4.820240E+03	8.771529E-02	6.125791E-04
4.830178E+03	8.629872E-02	6.011954E-04
4.840117E+03	8.508568E-02	5.911545E-04
4.850056E+03	8.411533E-02	5.827206E-04
4.859994E+03	8.341313E-02	5.760583E-04
4.869933E+03	8.299366E-02	5.712537E-04
4.879872E+03	8.285691E-02	5.682889E-04
4.889810E+03	8.299547E-02	5.670938E-04
4.899749E+03	8.339379E-02	5.675412E-04
4.909688E+03	8.403042E-02	5.694639E-04
4.919626E+03	8.488399E-02	5.726958E-04
4.929565E+03	8.593348E-02	5.770746E-04
4.939504E+03	8.716420E-02	5.824813E-04
4.949442E+03	8.856503E-02	5.888219E-04
4.959381E+03	9.013004E-02	5.960370E-04
4.969319E+03	9.185572E-02	6.040835E-04
4.979258E+03	9.374225E-02	6.129424E-04
4.989197E+03	9.578365E-02	6.225542E-04
4.999135E+03	9.796998E-02	6.328342E-04
5.009074E+03	1.002836E-01	6.436503E-04
5.019013E+03	1.026930E-01	6.547840E-04
5.028951E+03	1.051536E-01	6.659414E-04
5.038890E+03	1.076085E-01	6.767581E-04
5.048829E+03	1.099916E-01	6.868235E-04
5.058767E+03	1.122310E-01	6.957062E-04
5.068706E+03	1.142566E-01	7.029987E-04
5.078644E+03	1.160063E-01	7.083582E-04
5.088583E+03	1.174256E-01	7.115024E-04
5.098522E+03	1.184787E-01	7.122719E-04
5.108460E+03	1.191364E-01	7.105567E-04
5.118399E+03	1.193873E-01	7.063595E-04
5.128338E+03	1.192248E-01	6.997144E-04
5.138276E+03	1.186483E-01	6.906912E-04
5.148215E+03	1.176604E-01	6.793801E-04
5.158154E+03	1.162683E-01	6.658951E-04
5.168092E+03	1.144912E-01	6.504178E-04
5.178031E+03	1.123626E-01	6.332045E-04
5.187969E+03	1.099390E-01	6.146315E-04
5.197908E+03	1.072933E-01	5.951540E-04
5.207847E+03	1.045228E-01	5.753463E-04
5.217785E+03	1.017349E-01	5.558182E-04
5.227724E+03	9.903701E-02	5.371607E-04
5.237663E+03	9.652594E-02	5.198896E-04
5.247601E+03	9.428582E-02	5.044378E-04
5.257540E+03	9.237755E-02	4.911043E-04
5.267479E+03	9.083892E-02	4.800602E-04
5.277417E+03	8.968226E-02	4.713415E-04
5.287356E+03	8.889683E-02	4.648667E-04
5.297295E+03	8.844540E-02	4.604226E-04
5.307233E+03	8.827319E-02	4.577136E-04
5.317172E+03	8.831112E-02	4.563794E-04
5.327110E+03	8.848411E-02	4.560373E-04
5.337049E+03	8.871199E-02	4.562853E-04
5.346988E+03	8.892399E-02	4.567734E-04
5.356926E+03	8.905990E-02	4.571982E-04
5.366865E+03	8.907607E-02	4.573265E-04
5.376804E+03	8.894880E-02	4.570234E-04
5.386742E+03	8.868309E-02	4.562973E-04
5.396681E+03	8.831292E-02	4.553024E-04
5.406620E+03	8.789134E-02	4.542903E-04
5.416558E+03	8.748478E-02	4.535835E-04
5.426497E+03	8.715429E-02	4.534806E-04
5.436435E+03	8.694971E-02	4.542270E-04
5.446374E+03	8.690623E-02	4.559973E-04
5.456313E+03	8.703491E-02	4.588441E-04
5.466251E+03	8.732989E-02	4.627334E-04
5.476190E+03	8.776487E-02	4.675237E-04
5.486129E+03	8.830263E-02	4.730136E-04
5.496067E+03	8.889524E-02	4.789403E-04
5.506006E+03	8.949755E-02	4.850510E-04
5.515945E+03	9.006816E-02	4.911077E-04
5.525883E+03	9.057884E-02	4.969392E-04
5.535822E+03	9.101030E-02	5.024199E-04
5.545760E+03	9.135605E-02	5.074926E-04
5.555699E+03	9.161537E-02	5.121320E-04
5.565638E+03	9.179235E-02	5.163396E-04
5.575576E+03	9.188851E-02	5.201035E-04
5.585515E+03	9.190597E-02	5.234162E-04
5.595454E+03	9.184412E-02	5.262552E-04
5.605392E+03	9.169883E-02	5.285785E-04
5.615331E+03	9.146458E-02	5.303363E-04
5.625270E+03	9.113267E-02	5.314604E-04
5.635208E+03	9.069653E-02	5.318948E-04
5.645147E+03	9.015193E-02	5.315978E-04
5.655086E+03	8.949811E-02	5.305486E-04
5.665024E+03	8.874020E-02	5.287629E-04
5.674963E+03	8.789127E-02	5.263056E-04
5.684901E+03	8.697444E-02	5.233051E-04
5.694840E+03	8.601668E-02	5.199167E-04
5.704779E+03	8.505430E-02	5.163562E-04
5.714717E+03	8.412531E-02	5.128549E-04
5.724656E+03	8.326714E-02	5.096442E-04
5.734595E+03	8.251508E-02	5.069466E-04
5.744533E+03	8.189772E-02	5.049465E-04
5.754472E+03	8.143277E-02	5.037627E-04
5.764411E+03	8.112766E-02	5.034513E-04
5.774349E+03	8.097938E-02	5.040032E-04
5.784288E+03	8.096992E-02	5.053146E-04
5.794226E+03	8.107401E-02	5.072347E-04
5.804165E+03	8.125728E-02	5.095532E-04
5.814104E+03	8.147993E-02	5.120235E-04
5.824042E+03	8.170097E-02	5.143895E-04
5.833981E+03	8.187716E-02	5.163793E-04
5.843920E+03	8.197151E-02	5.177590E-04
5.853858E+03	8.194816E-02	5.183016E-04
5.863797E+03	8.177707E-02	5.178169E-04
5.873736E+03	8.143360E-02	5.161492E-04
5.883674E+03	8.089900E-02	5.131810E-04
5.893613E+03	8.016105E-02	5.088372E-04
5.903551E+03	7.921095E-02	5.030661E-04
5.913490E+03	7.804792E-02	4.958676E-04
5.923429E+03	7.667822E-02	4.872881E-04
5.933367E+03	7.511274E-02	4.774042E-04
5.943306E+03	7.336556E-02	4.663139E-04
5.953245E+03	7.145849E-02	4.541647E-04
5.963183E+03	6.941210E-02	4.410968E-04
5.973122E+03	6.725401E-02	4.272951E-04
5.983061E+03	6.500826E-02	4.129214E-04
5.992999E+03	6.270346E-02	3.981663E-04
6.002938E+03	6.037107E-02	3.832376E-04
6.012877E+03	5.804465E-02	3.683556E-04
6.022815E+03	5.576264E-02	3.537703E-04
6.032754E+03	5.356744E-02	3.397561E-04
6.042692E+03	5.150892E-02	3.266338E-04
6.052631E+03	4.963608E-02	3.147173E-04
6.062570E+03	4.800067E-02	3.043382E-04
6.072508E+03	4.665025E-02	2.958011E-04
6.082447E+03	4.562793E-02	2.893831E-04
6.092386E+03	4.497086E-02	2.853251E-04
6.102324E+03	4.470943E-02	2.838269E-04
6.112263E+03	4.486548E-02	2.850372E-04
6.122202E+03	4.545283E-02	2.890574E-04
6.132140E+03	4.647635E-02	2.959361E-04
6.142079E+03	4.792793E-02	3.056442E-04
6.152017E+03	4.978923E-02	3.180918E-04
6.161956E+03	5.202781E-02	3.331041E-04
6.171895E+03	5.459591E-02	3.504116E-04
6.181833E+03	5.742926E-02	3.696417E-04
6.191772E+03	6.044977E-02	3.903331E-04
6.201711E+03	6.356789E-02	4.119485E-04
6.211649E+03	6.668364E-02	4.338775E-04
6.221588E+03	6.969530E-02	4.554902E-04
6.231527E+03	7.250263E-02	4.761541E-04
6.241465E+03	7.501438E-02	4.952785E-04
6.251404E+03	7.715200E-02	5.123292E-04
6.261342E+03	7.885500E-02	5.268702E-04
6.271281E+03	8.008445E-02	5.385927E-04
6.281220E+03	8.082401E-02	5.473248E-04
6.291158E+03	8.107893E-02	5.530306E-04
6.301097E+03	8.088153E-02	5.558527E-04
6.311036E+03	8.028867E-02	5.561040E-04
6.320974E+03	7.937805E-02	5.542489E-04
6.330913E+03	7.825137E-02	5.509340E-04
6.340852E+03	7.702324E-02	5.469186E-04
6.350790E+03	7.581029E-02	5.430031E-04
6.360729E+03	7.470956E-02	5.398753E-04
6.370667E+03	7.377333E-02	5.379231E-04
6.380606E+03	7.299518E-02	5.371180E-04
6.390545E+03	7.233972E-02	5.372164E-04
6.400483E+03	7.176576E-02	5.379235E-04
6.410422E+03	7.124132E-02	5.390036E-04
6.420361E+03	7.074596E-02	5.403012E-04
6.430299E+03	7.026719E-02	5.417169E-04
6.440238E+03	6.979979E-02	5.432046E-04
6.450177E+03	6.933884E-02	5.447197E-04
6.460115E+03	6.888541E-02	5.462638E-04
6.470054E+03	6.843929E-02	5.478293E-04
6.479993E+03	6.799922E-02	5.494004E-04
6.489931E+03	6.756576E-02	5.509759E-04
6.499870E+03	6.713777E-02	5.525415E-04
6.509808E+03	6.671338E-02	5.540766E-04
6.519747E+03	6.628984E-02	5.555533E-04
6.529686E+03	6.586492E-02	5.569472E-04
6.539624E+03	6.543364E-02	5.582105E-04
6.549563E+03	6.499181E-02	5.593006E-04
6.559502E+03	6.453654E-02	5.601857E-04
6.569440E+03	6.406473E-02	5.608315E-04
6.579379E+03	6.357339E-02	5.612039E-04
6.589318E+03	6.306279E-02	5.612976E-04
6.599256E+03	6.253231E-02	5.610993E-04
6.609195E+03	6.198538E-02	5.606331E-04
6.619133E+03	6.142190E-02	5.598918E-04
6.629072E+03	6.084399E-02	5.588890E-04
6.639011E+03	6.025471E-02	5.576481E-04
6.648949E+03	5.965620E-02	5.561850E-04
6.658888E+03	5.904961E-02	5.545071E-04
6.668827E+03	5.843773E-02	5.526379E-04
6.678765E+03	5.782494E-02	5.506173E-04
6.688704E+03	5.721442E-02	5.484749E-04
6.698643E+03	5.661239E-02	5.462706E-04
6.708581E+03	5.602259E-02	5.440422E-04
6.718520E+03	5.545299E-02	5.418695E-04
6.728458E+03	5.490723E-02	5.397919E-04
6.738397E+03	5.439208E-02	5.378808E-04
6.748336E+03	5.390904E-02	5.361563E-04
6.758274E+03	5.346090E-02	5.346522E-04
6.768213E+03	5.304788E-02	5.333763E-04
6.778152E+03	5.266775E-02	5.323119E-04
6.788090E+03	5.231908E-02	5.314498E-04
6.798029E+03	5.199761E-02	5.307512E-04
6.807968E+03	5.170056E-02	5.301917E-04
6.817906E+03	5.142210E-02	5.297149E-04
6.827845E+03	5.116056E-02	5.293058E-04
6.837784E+03	5.091192E-02	5.289253E-04
6.847722E+03	5.067393E-02	5.285512E-04
6.857661E+03	5.044416E-02	5.281599E-04
6.867599E+03	5.022368E-02	5.277636E-04
6.877538E+03	5.000924E-02	5.273290E-04
6.887477E+03	4.980350E-02	5.268854E-04
6.897415E+03	4.960425E-02	5.264102E-04
6.907354E+03	4.941092E-02	5.258983E-04
6.917293E+03	4.922357E-02	5.253512E-04
6.927231E+03	4.904008E-02	5.247470E-04
6.937170E+03	4.885912E-02	5.240721E-04
6.947109E+03	4.867933E-02	5.233124E-04
6.957047E+03	4.849955E-02	5.224560E-04
6.966986E+03	4.831896E-02	5.214944E-04
6.976924E+03	4.813617E-02	5.204133E-04
6.986863E+03	4.795302E-02	5.192329E-04
6.996802E+03	4.776696E-02	5.179263E-04
7.006740E+03	4.758129E-02	5.165299E-04
7.016679E+03	4.739364E-02	5.150188E-04
7.026618E+03	4.720618E-02	5.134173E-04
7.036556E+03	4.701796E-02	5.117160E-04
7.046495E+03	4.682856E-02	5.099113E-04
7.056434E+03	4.663807E-02	5.080051E-04
7.066372E+03	4.644339E-02	5.059646E-04
7.076311E+03	4.624386E-02	5.037840E-04
7.086249E+03	4.603681E-02	5.014352E-04
7.096188E+03	4.582128E-02	4.989090E-04
7.106127E+03	4.559541E-02	4.961870E-04
7.116065E+03	4.535660E-02	4.932423E-04
7.126004E+03	4.510432E-02	4.900711E-04
7.135943E+03	4.483563E-02	4.866436E-04
7.145881E+03	4.455174E-02	4.829756E-04
7.155820E+03	4.425164E-02	4.790585E-04
7.165759E+03	4.393496E-02	4.748911E-04
7.175697E+03	4.360375E-02	4.704989E-04
7.185636E+03	4.325969E-02	4.659030E-04
7.195575E+03	4.290394E-02	4.611193E-04
7.205513E+03	4.253878E-02	4.561753E-04
7.215452E+03	4.216645E-02	4.510987E-04
7.225390E+03	4.178903E-02	4.459149E-04
7.235329E+03	4.140820E-02	4.406449E-04
7.245268E+03	4.102351E-02	4.352872E-04
7.255206E+03	4.063745E-02	4.298715E-04
7.265145E+03	4.024948E-02	4.243950E-04
7.275084E+03	3.985868E-02	4.188514E-04
7.285022E+03	3.946554E-02	4.132490E-04
7.294961E+03	3.906786E-02	4.075685E-04
7.304900E+03	3.866509E-02	4.018077E-04
7.314838E+03	3.825670E-02	3.959649E-04
7.324777E+03	3.784148E-02	3.900316E-04
7.334715E+03	3.741995E-02	3.840173E-04
7.344654E+03	3.698964E-02	3.779011E-04
7.354593E+03	3.655232E-02	3.717053E-04
7.364531E+03	3.610704E-02	3.654251E-04
7.374470E+03	3.565598E-02	3.590870E-04
7.384409E+03	3.520077E-02	3.527116E-04
7.394347E+03	3.474494E-02	3.463382E-04
7.404286E+03	3.429403E-02	3.400257E-04
7.414225E+03	3.385336E-02	3.338291E-04
7.424163E+03	3.343217E-02	3.278408E-04
7.434102E+03	3.303668E-02	3.221218E-04
7.444040E+03	3.267623E-02	3.167618E-04
7.453979E+03	3.235760E-02	3.118235E-04
7.463918E+03	3.208928E-02	3.073843E-04
7.473856E+03	3.187525E-02	3.034766E-04
7.483795E+03	3.171806E-02	3.001183E-04
7.493734E+03	3.161848E-02	2.973099E-04
7.503672E+03	3.157395E-02	2.950203E-04
7.513611E+03	3.158105E-02	2.932115E-04
7.523550E+03	3.163190E-02	2.918051E-04
7.533488E+03	3.171961E-02	2.907336E-04
7.543427E+03	3.183662E-02	2.899257E-04
7.553366E+03	3.197377E-02	2.892971E-04
7.563304E+03	3.212345E-02	2.887806E-04
7.573243E+03	3.227701E-02	2.883010E-04
7.583181E+03	3.242845E-02	2.878095E-04
7.593120E+03	3.256953E-02	2.872390E-04
7.603059E+03	3.269570E-02	2.865566E-04
7.612997E+03	3.280027E-02	2.857123E-04
7.622936E+03	3.288029E-02	2.846898E-04
7.632875E+03	3.293046E-02	2.834533E-04
7.642813E+03	3.294870E-02	2.819956E-04
7.652752E+03	3.293050E-02	2.802891E-04
7.662691E+03	3.287143E-02	2.783074E-04
7.672629E+03	3.276594E-02	2.760154E-04
7.682568E+03	3.260711E-02	2.733664E-04
7.692506E+03	3.238706E-02	2.703066E-04
7.702445E+03	3.209683E-02	2.667729E-04
7.712384E+03	3.173032E-02	2.627262E-04
