#wls	flux	fluxerr
1.590182E+03	6.454193E-02	2.644203E-03
1.629937E+03	5.028157E-02	2.023726E-03
1.669691E+03	3.840857E-02	1.518020E-03
1.709446E+03	2.875277E-02	1.115458E-03
1.749200E+03	2.108693E-02	8.026582E-04
1.788955E+03	1.514192E-02	5.652815E-04
1.828710E+03	1.064354E-02	3.895508E-04
1.868464E+03	7.324037E-03	2.626972E-04
1.908219E+03	4.939275E-03	1.735546E-04
1.947973E+03	3.277792E-03	1.127906E-04
1.987728E+03	2.155210E-03	7.260416E-05
2.027482E+03	1.419744E-03	4.680997E-05
2.067237E+03	9.528996E-04	3.074144E-05
2.106991E+03	6.675977E-04	2.106943E-05
2.146746E+03	5.025716E-04	1.551426E-05
2.186501E+03	4.172530E-04	1.259760E-05
2.226255E+03	3.888648E-04	1.148235E-05
2.266010E+03	4.091518E-04	1.181631E-05
2.305764E+03	4.834974E-04	1.365881E-05
2.345519E+03	6.333360E-04	1.750496E-05
2.385273E+03	9.040232E-04	2.445159E-05
2.425028E+03	1.379163E-03	3.651224E-05
2.464782E+03	2.202026E-03	5.707379E-05
2.504537E+03	3.601909E-03	9.141712E-05
2.544292E+03	5.911794E-03	1.469499E-04
2.584046E+03	9.552983E-03	2.325970E-04
2.623801E+03	1.496573E-02	3.569625E-04
2.663555E+03	2.248938E-02	5.255231E-04
2.703310E+03	3.223070E-02	7.378880E-04
2.743064E+03	4.395801E-02	9.859858E-04
2.782819E+03	5.707638E-02	1.254288E-03
2.822573E+03	7.071393E-02	1.522457E-03
2.862328E+03	8.390553E-02	1.769776E-03
2.902083E+03	9.577736E-02	1.979107E-03
2.941837E+03	1.057077E-01	2.139883E-03
2.981592E+03	1.134219E-01	2.249405E-03
2.991530E+03	1.150046E-01	2.269142E-03
3.001469E+03	1.164536E-01	2.286005E-03
3.011408E+03	1.177731E-01	2.300120E-03
3.021346E+03	1.189720E-01	2.311705E-03
3.031285E+03	1.200607E-01	2.321000E-03
3.041223E+03	1.210503E-01	2.328254E-03
3.051162E+03	1.219462E-01	2.333605E-03
3.061101E+03	1.227543E-01	2.337195E-03
3.071039E+03	1.234809E-01	2.339174E-03
3.080978E+03	1.241351E-01	2.339738E-03
3.090917E+03	1.247234E-01	2.339037E-03
3.100855E+03	1.252505E-01	2.337169E-03
3.110794E+03	1.257279E-01	2.334371E-03
3.120733E+03	1.261577E-01	2.330688E-03
3.130671E+03	1.265488E-01	2.326302E-03
3.140610E+03	1.269104E-01	2.321386E-03
3.150549E+03	1.272460E-01	2.316015E-03
3.160487E+03	1.275641E-01	2.310345E-03
3.170426E+03	1.278677E-01	2.304437E-03
3.180364E+03	1.281643E-01	2.298426E-03
3.190303E+03	1.284584E-01	2.292395E-03
3.200242E+03	1.287519E-01	2.286377E-03
3.210180E+03	1.290505E-01	2.280474E-03
3.220119E+03	1.293572E-01	2.274734E-03
3.230058E+03	1.296742E-01	2.269195E-03
3.239996E+03	1.300030E-01	2.263880E-03
3.249935E+03	1.303445E-01	2.258800E-03
3.259874E+03	1.306986E-01	2.253953E-03
3.269812E+03	1.310625E-01	2.249286E-03
3.279751E+03	1.314388E-01	2.244840E-03
3.289689E+03	1.318207E-01	2.240500E-03
3.299628E+03	1.322069E-01	2.236241E-03
3.309567E+03	1.325910E-01	2.231954E-03
3.319505E+03	1.329696E-01	2.227587E-03
3.329444E+03	1.333364E-01	2.223033E-03
3.339383E+03	1.336802E-01	2.218111E-03
3.349321E+03	1.339965E-01	2.212754E-03
3.359260E+03	1.342723E-01	2.206756E-03
3.369199E+03	1.344994E-01	2.199994E-03
3.379137E+03	1.346670E-01	2.192302E-03
3.389076E+03	1.347598E-01	2.183449E-03
3.399014E+03	1.347693E-01	2.173317E-03
3.408953E+03	1.346796E-01	2.161670E-03
3.418892E+03	1.344782E-01	2.148332E-03
3.428830E+03	1.341535E-01	2.133143E-03
3.438769E+03	1.336933E-01	2.115940E-03
3.448708E+03	1.330912E-01	2.096651E-03
3.458646E+03	1.323394E-01	2.075183E-03
3.468585E+03	1.314379E-01	2.051558E-03
3.478524E+03	1.303894E-01	2.025840E-03
3.488462E+03	1.292030E-01	1.998195E-03
3.498401E+03	1.278861E-01	1.968754E-03
3.508340E+03	1.264504E-01	1.937715E-03
3.518278E+03	1.249131E-01	1.905358E-03
3.528217E+03	1.232879E-01	1.871905E-03
3.538155E+03	1.215958E-01	1.837682E-03
3.548094E+03	1.198598E-01	1.803043E-03
3.558033E+03	1.181027E-01	1.768330E-03
3.567971E+03	1.163516E-01	1.733947E-03
3.577910E+03	1.146331E-01	1.700279E-03
3.587849E+03	1.129764E-01	1.667746E-03
3.597787E+03	1.114129E-01	1.636792E-03
3.607726E+03	1.099713E-01	1.607813E-03
3.617665E+03	1.086859E-01	1.581274E-03
3.627603E+03	1.075874E-01	1.557588E-03
3.637542E+03	1.067089E-01	1.537183E-03
3.647480E+03	1.060830E-01	1.520478E-03
3.657419E+03	1.057455E-01	1.507923E-03
3.667358E+03	1.057317E-01	1.499954E-03
3.677296E+03	1.060759E-01	1.496978E-03
3.687235E+03	1.068145E-01	1.499424E-03
3.697174E+03	1.079822E-01	1.507680E-03
3.707112E+03	1.096112E-01	1.522094E-03
3.717051E+03	1.117369E-01	1.543041E-03
3.726990E+03	1.143871E-01	1.570781E-03
3.736928E+03	1.175910E-01	1.605582E-03
3.746867E+03	1.213759E-01	1.647675E-03
3.756805E+03	1.257612E-01	1.697173E-03
3.766744E+03	1.307678E-01	1.754199E-03
3.776683E+03	1.364063E-01	1.818731E-03
3.786621E+03	1.426839E-01	1.890694E-03
3.796560E+03	1.495978E-01	1.969874E-03
3.806499E+03	1.571326E-01	2.055894E-03
3.816437E+03	1.652614E-01	2.148226E-03
3.826376E+03	1.739440E-01	2.246179E-03
3.836315E+03	1.831211E-01	2.348827E-03
3.846253E+03	1.927197E-01	2.455090E-03
3.856192E+03	2.026477E-01	2.563666E-03
3.866131E+03	2.128015E-01	2.673146E-03
3.876069E+03	2.230647E-01	2.781993E-03
3.886008E+03	2.333132E-01	2.888620E-03
3.895946E+03	2.434231E-01	2.991487E-03
3.905885E+03	2.532691E-01	3.089088E-03
3.915824E+03	2.627383E-01	3.180112E-03
3.925762E+03	2.717311E-01	3.263457E-03
3.935701E+03	2.801568E-01	3.338164E-03
3.945640E+03	2.879547E-01	3.403673E-03
3.955578E+03	2.950732E-01	3.459556E-03
3.965517E+03	3.014808E-01	3.505641E-03
3.975456E+03	3.071635E-01	3.541979E-03
3.985394E+03	3.121137E-01	3.568703E-03
3.995333E+03	3.163387E-01	3.586120E-03
4.005271E+03	3.198423E-01	3.594503E-03
4.015210E+03	3.226256E-01	3.594094E-03
4.025149E+03	3.246817E-01	3.585051E-03
4.035087E+03	3.260056E-01	3.567560E-03
4.045026E+03	3.265804E-01	3.541682E-03
4.054965E+03	3.263858E-01	3.507449E-03
4.064903E+03	3.254023E-01	3.464910E-03
4.074842E+03	3.236151E-01	3.414175E-03
4.084781E+03	3.210207E-01	3.355477E-03
4.094719E+03	3.176233E-01	3.289127E-03
4.104658E+03	3.134471E-01	3.215639E-03
4.114596E+03	3.085291E-01	3.135647E-03
4.124535E+03	3.029215E-01	3.049915E-03
4.134474E+03	2.966903E-01	2.959326E-03
4.144412E+03	2.899138E-01	2.864850E-03
4.154351E+03	2.826831E-01	2.767551E-03
4.164290E+03	2.750909E-01	2.668463E-03
4.174228E+03	2.672437E-01	2.568720E-03
4.184167E+03	2.592529E-01	2.469453E-03
4.194106E+03	2.512262E-01	2.371716E-03
4.204044E+03	2.432780E-01	2.276587E-03
4.213983E+03	2.355162E-01	2.185036E-03
4.223922E+03	2.280475E-01	2.097989E-03
4.233860E+03	2.209661E-01	2.016223E-03
4.243799E+03	2.143551E-01	1.940385E-03
4.253737E+03	2.082889E-01	1.871025E-03
4.263676E+03	2.028166E-01	1.808451E-03
4.273615E+03	1.979782E-01	1.752884E-03
4.283553E+03	1.937898E-01	1.704330E-03
4.293492E+03	1.902535E-01	1.662677E-03
4.303431E+03	1.873576E-01	1.627696E-03
4.313369E+03	1.850832E-01	1.599118E-03
4.323308E+03	1.834025E-01	1.576610E-03
4.333247E+03	1.822815E-01	1.559803E-03
4.343185E+03	1.816898E-01	1.548380E-03
4.353124E+03	1.815911E-01	1.541984E-03
4.363062E+03	1.819567E-01	1.540348E-03
4.373001E+03	1.827598E-01	1.543225E-03
4.382940E+03	1.839812E-01	1.550439E-03
4.392878E+03	1.856001E-01	1.561775E-03
4.402817E+03	1.876030E-01	1.577086E-03
4.412756E+03	1.899689E-01	1.596166E-03
4.422694E+03	1.926699E-01	1.618762E-03
4.432633E+03	1.956721E-01	1.644571E-03
4.442572E+03	1.989212E-01	1.673121E-03
4.452510E+03	2.023456E-01	1.703796E-03
4.462449E+03	2.058534E-01	1.735809E-03
4.472387E+03	2.093355E-01	1.768215E-03
4.482326E+03	2.126695E-01	1.799952E-03
4.492265E+03	2.157334E-01	1.829950E-03
4.502203E+03	2.184085E-01	1.857147E-03
4.512142E+03	2.205883E-01	1.880576E-03
4.522081E+03	2.221874E-01	1.899432E-03
4.532019E+03	2.231481E-01	1.913133E-03
4.541958E+03	2.234331E-01	1.921268E-03
4.551897E+03	2.230223E-01	1.923563E-03
4.561835E+03	2.219228E-01	1.919978E-03
4.571774E+03	2.201482E-01	1.910532E-03
4.581713E+03	2.177356E-01	1.895449E-03
4.591651E+03	2.147334E-01	1.875059E-03
4.601590E+03	2.112004E-01	1.849795E-03
4.611528E+03	2.072078E-01	1.820207E-03
4.621467E+03	2.028307E-01	1.786894E-03
4.631406E+03	1.981566E-01	1.750577E-03
4.641344E+03	1.932652E-01	1.711923E-03
4.651283E+03	1.882416E-01	1.671659E-03
4.661222E+03	1.831613E-01	1.630441E-03
4.671160E+03	1.780939E-01	1.588882E-03
4.681099E+03	1.730959E-01	1.547488E-03
4.691038E+03	1.682181E-01	1.506721E-03
4.700976E+03	1.634981E-01	1.466929E-03
4.710915E+03	1.589692E-01	1.428429E-03
4.720853E+03	1.546498E-01	1.391403E-03
4.730792E+03	1.505557E-01	1.356010E-03
4.740731E+03	1.466940E-01	1.322337E-03
4.750669E+03	1.430660E-01	1.290411E-03
4.760608E+03	1.396716E-01	1.260249E-03
4.770547E+03	1.365055E-01	1.231820E-03
4.780485E+03	1.335632E-01	1.205099E-03
4.790424E+03	1.308404E-01	1.180057E-03
4.800363E+03	1.283344E-01	1.156684E-03
4.810301E+03	1.260441E-01	1.134978E-03
4.820240E+03	1.239754E-01	1.114999E-03
4.830178E+03	1.221307E-01	1.096774E-03
4.840117E+03	1.205202E-01	1.080395E-03
4.850056E+03	1.191510E-01	1.065926E-03
4.859994E+03	1.180322E-01	1.053443E-03
4.869933E+03	1.171675E-01	1.042972E-03
4.879872E+03	1.165621E-01	1.034547E-03
4.889810E+03	1.162176E-01	1.028167E-03
4.899749E+03	1.161328E-01	1.023803E-03
4.909688E+03	1.163079E-01	1.021435E-03
4.919626E+03	1.167400E-01	1.021014E-03
4.929565E+03	1.174295E-01	1.022512E-03
4.939504E+03	1.183736E-01	1.025877E-03
4.949442E+03	1.195750E-01	1.031097E-03
4.959381E+03	1.210317E-01	1.038119E-03
4.969319E+03	1.227447E-01	1.046911E-03
4.979258E+03	1.247104E-01	1.057403E-03
4.989197E+03	1.269245E-01	1.069513E-03
4.999135E+03	1.293761E-01	1.083107E-03
5.009074E+03	1.320453E-01	1.097974E-03
5.019013E+03	1.349078E-01	1.113872E-03
5.028951E+03	1.379291E-01	1.130481E-03
5.038890E+03	1.410649E-01	1.147408E-03
5.048829E+03	1.442578E-01	1.164167E-03
5.058767E+03	1.474470E-01	1.180263E-03
5.068706E+03	1.505608E-01	1.195131E-03
5.078644E+03	1.535178E-01	1.208153E-03
5.088583E+03	1.562438E-01	1.218794E-03
5.098522E+03	1.586585E-01	1.226495E-03
5.108460E+03	1.606910E-01	1.230798E-03
5.118399E+03	1.622804E-01	1.231347E-03
5.128338E+03	1.633773E-01	1.227893E-03
5.138276E+03	1.639513E-01	1.220346E-03
5.148215E+03	1.639855E-01	1.208729E-03
5.158154E+03	1.634824E-01	1.193214E-03
5.168092E+03	1.624614E-01	1.174096E-03
5.178031E+03	1.609550E-01	1.151757E-03
5.187969E+03	1.590170E-01	1.126718E-03
5.197908E+03	1.567085E-01	1.099539E-03
5.207847E+03	1.541011E-01	1.070827E-03
5.217785E+03	1.512754E-01	1.041233E-03
5.227724E+03	1.483175E-01	1.011416E-03
5.237663E+03	1.453133E-01	9.820100E-04
5.247601E+03	1.423488E-01	9.536253E-04
5.257540E+03	1.394977E-01	9.267667E-04
5.267479E+03	1.368264E-01	9.018732E-04
5.277417E+03	1.343826E-01	8.792489E-04
5.287356E+03	1.322020E-01	8.591112E-04
5.297295E+03	1.303001E-01	8.415441E-04
5.307233E+03	1.286765E-01	8.265302E-04
5.317172E+03	1.273130E-01	8.139447E-04
5.327110E+03	1.261727E-01	8.035492E-04
5.337049E+03	1.252092E-01	7.950544E-04
5.346988E+03	1.243655E-01	7.881085E-04
5.356926E+03	1.235823E-01	7.823524E-04
5.366865E+03	1.228032E-01	7.774308E-04
5.376804E+03	1.219907E-01	7.730736E-04
5.386742E+03	1.211228E-01	7.690991E-04
5.396681E+03	1.202071E-01	7.655076E-04
5.406620E+03	1.192774E-01	7.624609E-04
5.416558E+03	1.183843E-01	7.602337E-04
5.426497E+03	1.175932E-01	7.591992E-04
5.436435E+03	1.169717E-01	7.597593E-04
5.446374E+03	1.165909E-01	7.623515E-04
5.456313E+03	1.165060E-01	7.673290E-04
5.466251E+03	1.167503E-01	7.749160E-04
5.476190E+03	1.173339E-01	7.851960E-04
5.486129E+03	1.182452E-01	7.981147E-04
5.496067E+03	1.194510E-01	8.134749E-04
5.506006E+03	1.209066E-01	8.309969E-04
5.515945E+03	1.225500E-01	8.502735E-04
5.525883E+03	1.243125E-01	8.708361E-04
5.535822E+03	1.261242E-01	8.921915E-04
5.545760E+03	1.279124E-01	9.138073E-04
5.555699E+03	1.296126E-01	9.351888E-04
5.565638E+03	1.311697E-01	9.558927E-04
5.575576E+03	1.325390E-01	9.755347E-04
5.585515E+03	1.336895E-01	9.938199E-04
5.595454E+03	1.346016E-01	1.010529E-03
5.605392E+03	1.352670E-01	1.025523E-03
5.615331E+03	1.356888E-01	1.038750E-03
5.625270E+03	1.358753E-01	1.050199E-03
5.635208E+03	1.358466E-01	1.059956E-03
5.645147E+03	1.356211E-01	1.068101E-03
5.655086E+03	1.352264E-01	1.074796E-03
5.665024E+03	1.346901E-01	1.080210E-03
5.674963E+03	1.340407E-01	1.084532E-03
5.684901E+03	1.333127E-01	1.088009E-03
5.694840E+03	1.325372E-01	1.090872E-03
5.704779E+03	1.317490E-01	1.093395E-03
5.714717E+03	1.309816E-01	1.095848E-03
5.724656E+03	1.302684E-01	1.098514E-03
5.734595E+03	1.296376E-01	1.101639E-03
5.744533E+03	1.291173E-01	1.105480E-03
5.754472E+03	1.287249E-01	1.110205E-03
5.764411E+03	1.284755E-01	1.115969E-03
5.774349E+03	1.283764E-01	1.122862E-03
5.784288E+03	1.284265E-01	1.130901E-03
5.794226E+03	1.286155E-01	1.140021E-03
5.804165E+03	1.289287E-01	1.150118E-03
5.814104E+03	1.293447E-01	1.161021E-03
5.824042E+03	1.298318E-01	1.172462E-03
5.833981E+03	1.303569E-01	1.184155E-03
5.843920E+03	1.308821E-01	1.195762E-03
5.853858E+03	1.313605E-01	1.206857E-03
5.863797E+03	1.317470E-01	1.217022E-03
5.873736E+03	1.319907E-01	1.225774E-03
5.883674E+03	1.320351E-01	1.232575E-03
5.893613E+03	1.318272E-01	1.236905E-03
5.903551E+03	1.313146E-01	1.238243E-03
5.913490E+03	1.304432E-01	1.236048E-03
5.923429E+03	1.291688E-01	1.229860E-03
5.933367E+03	1.274544E-01	1.219283E-03
5.943306E+03	1.252731E-01	1.204013E-03
5.953245E+03	1.226137E-01	1.183894E-03
5.963183E+03	1.194822E-01	1.158936E-03
5.973122E+03	1.159012E-01	1.129310E-03
5.983061E+03	1.119151E-01	1.095404E-03
5.992999E+03	1.075835E-01	1.057762E-03
6.002938E+03	1.029835E-01	1.017112E-03
6.012877E+03	9.820343E-02	9.743018E-04
6.022815E+03	9.334453E-02	9.303226E-04
6.032754E+03	8.850639E-02	8.861650E-04
6.042692E+03	8.379305E-02	8.428803E-04
6.052631E+03	7.929739E-02	8.014246E-04
6.062570E+03	7.510796E-02	7.627264E-04
6.072508E+03	7.129701E-02	7.275644E-04
6.082447E+03	6.792785E-02	6.966404E-04
6.092386E+03	6.505033E-02	6.705317E-04
6.102324E+03	6.270218E-02	6.497027E-04
6.112263E+03	6.091173E-02	6.345316E-04
6.122202E+03	5.970031E-02	6.253334E-04
6.132140E+03	5.908108E-02	6.223477E-04
6.142079E+03	5.905987E-02	6.257455E-04
6.152017E+03	5.963318E-02	6.356072E-04
6.161956E+03	6.078740E-02	6.519115E-04
6.171895E+03	6.249569E-02	6.744991E-04
6.181833E+03	6.471560E-02	7.030416E-04
6.191772E+03	6.739261E-02	7.370670E-04
6.201711E+03	7.045427E-02	7.758911E-04
6.211649E+03	7.381474E-02	8.186638E-04
6.221588E+03	7.737862E-02	8.644042E-04
6.231527E+03	8.104002E-02	9.119847E-04
6.241465E+03	8.468981E-02	9.602053E-04
6.251404E+03	8.821922E-02	1.007832E-03
6.261342E+03	9.152699E-02	1.053678E-03
6.271281E+03	9.452897E-02	1.096715E-03
6.281220E+03	9.715390E-02	1.136030E-03
6.291158E+03	9.935738E-02	1.170999E-03
6.301097E+03	1.011139E-01	1.201196E-03
6.311036E+03	1.024235E-01	1.226496E-03
6.320974E+03	1.033017E-01	1.246946E-03
6.330913E+03	1.037813E-01	1.262816E-03
6.340852E+03	1.039064E-01	1.274518E-03
6.350790E+03	1.037223E-01	1.282499E-03
6.360729E+03	1.032824E-01	1.287320E-03
6.370667E+03	1.026355E-01	1.289506E-03
6.380606E+03	1.018265E-01	1.289553E-03
6.390545E+03	1.008962E-01	1.287921E-03
6.400483E+03	9.987942E-02	1.285011E-03
6.410422E+03	9.880489E-02	1.281159E-03
6.420361E+03	9.769402E-02	1.276616E-03
6.430299E+03	9.656335E-02	1.271581E-03
6.440238E+03	9.542653E-02	1.266220E-03
6.450177E+03	9.428915E-02	1.260599E-03
6.460115E+03	9.315988E-02	1.254826E-03
6.470054E+03	9.204218E-02	1.248945E-03
6.479993E+03	9.093756E-02	1.242972E-03
6.489931E+03	8.984642E-02	1.236913E-03
6.499870E+03	8.876815E-02	1.230757E-03
6.509808E+03	8.770289E-02	1.224506E-03
6.519747E+03	8.664761E-02	1.218117E-03
6.529686E+03	8.560202E-02	1.211585E-03
6.539624E+03	8.456445E-02	1.204885E-03
6.549563E+03	8.353211E-02	1.197978E-03
6.559502E+03	8.250531E-02	1.190867E-03
6.569440E+03	8.148327E-02	1.183540E-03
6.579379E+03	8.046578E-02	1.175994E-03
6.589318E+03	7.945297E-02	1.168231E-03
6.599256E+03	7.844528E-02	1.160259E-03
6.609195E+03	7.744357E-02	1.152090E-03
6.619133E+03	7.644753E-02	1.143723E-03
6.629072E+03	7.545965E-02	1.135195E-03
6.639011E+03	7.447996E-02	1.126510E-03
6.648949E+03	7.351101E-02	1.117710E-03
6.658888E+03	7.255415E-02	1.108820E-03
6.668827E+03	7.160951E-02	1.099845E-03
6.678765E+03	7.067851E-02	1.090811E-03
6.688704E+03	6.976377E-02	1.081765E-03
6.698643E+03	6.886427E-02	1.072695E-03
6.708581E+03	6.798386E-02	1.063669E-03
6.718520E+03	6.712278E-02	1.054694E-03
6.728458E+03	6.628125E-02	1.045782E-03
6.738397E+03	6.546160E-02	1.036976E-03
6.748336E+03	6.466507E-02	1.028301E-03
6.758274E+03	6.389141E-02	1.019762E-03
6.768213E+03	6.314250E-02	1.011394E-03
6.778152E+03	6.241772E-02	1.003195E-03
6.788090E+03	6.171857E-02	9.951959E-04
6.798029E+03	6.104280E-02	9.873667E-04
6.807968E+03	6.039271E-02	9.797511E-04
6.817906E+03	5.976572E-02	9.723134E-04
6.827845E+03	5.916383E-02	9.650922E-04
6.837784E+03	5.858446E-02	9.580512E-04
6.847722E+03	5.802822E-02	9.512057E-04
6.857661E+03	5.749349E-02	9.445346E-04
6.867599E+03	5.698091E-02	9.380529E-04
6.877538E+03	5.648878E-02	9.317377E-04
6.887477E+03	5.601759E-02	9.256011E-04
6.897415E+03	5.556451E-02	9.196009E-04
6.907354E+03	5.513098E-02	9.137642E-04
6.917293E+03	5.471514E-02	9.080642E-04
6.927231E+03	5.431512E-02	9.024731E-04
6.937170E+03	5.393218E-02	8.970149E-04
6.947109E+03	5.356330E-02	8.916423E-04
6.957047E+03	5.320858E-02	8.863597E-04
6.966986E+03	5.286599E-02	8.811358E-04
6.976924E+03	5.253554E-02	8.759732E-04
6.986863E+03	5.221511E-02	8.708387E-04
6.996802E+03	5.190460E-02	8.657328E-04
7.006740E+03	5.160074E-02	8.606029E-04
7.016679E+03	5.130431E-02	8.554640E-04
7.026618E+03	5.101191E-02	8.502613E-04
7.036556E+03	5.072412E-02	8.450067E-04
7.046495E+03	5.043742E-02	8.396430E-04
7.056434E+03	5.015119E-02	8.341624E-04
7.066372E+03	4.986280E-02	8.285229E-04
7.076311E+03	4.957154E-02	8.227154E-04
7.086249E+03	4.927567E-02	8.167134E-04
7.096188E+03	4.897147E-02	8.104578E-04
7.106127E+03	4.865918E-02	8.039560E-04
7.116065E+03	4.833709E-02	7.971830E-04
7.126004E+03	4.800158E-02	7.900827E-04
7.135943E+03	4.765206E-02	7.826498E-04
7.145881E+03	4.728706E-02	7.748646E-04
7.155820E+03	4.690426E-02	7.666944E-04
7.165759E+03	4.650444E-02	7.581571E-04
7.175697E+03	4.608466E-02	7.492113E-04
7.185636E+03	4.564420E-02	7.398512E-04
7.195575E+03	4.518350E-02	7.300914E-04
7.205513E+03	4.470051E-02	7.199059E-04
7.215452E+03	4.419721E-02	7.093346E-04
7.225390E+03	4.367316E-02	6.983783E-04
7.235329E+03	4.312919E-02	6.870590E-04
7.245268E+03	4.256563E-02	6.753901E-04
7.255206E+03	4.198409E-02	6.634060E-04
7.265145E+03	4.138742E-02	6.511604E-04
7.275084E+03	4.077703E-02	6.386842E-04
7.285022E+03	4.015473E-02	6.260136E-04
7.294961E+03	3.952345E-02	6.132026E-04
7.304900E+03	3.888637E-02	6.003080E-04
7.314838E+03	3.824686E-02	5.873884E-04
7.324777E+03	3.760757E-02	5.744908E-04
7.334715E+03	3.697129E-02	5.616635E-04
7.344654E+03	3.634165E-02	5.489659E-04
7.354593E+03	3.572070E-02	5.364330E-04
7.364531E+03	3.511352E-02	5.241439E-04
7.374470E+03	3.452129E-02	5.121180E-04
7.384409E+03	3.394739E-02	5.004062E-04
7.394347E+03	3.339577E-02	4.890664E-04
7.404286E+03	3.287016E-02	4.781520E-04
7.414225E+03	3.237268E-02	4.676906E-04
7.424163E+03	3.190733E-02	4.577361E-04
7.434102E+03	3.147641E-02	4.483161E-04
7.444040E+03	3.108325E-02	4.394719E-04
7.453979E+03	3.072880E-02	4.312091E-04
7.463918E+03	3.041561E-02	4.235552E-04
7.473856E+03	3.014448E-02	4.165119E-04
7.483795E+03	2.991573E-02	4.100743E-04
7.493734E+03	2.972999E-02	4.042407E-04
7.503672E+03	2.958612E-02	3.989854E-04
7.513611E+03	2.948467E-02	3.943056E-04
7.523550E+03	2.942388E-02	3.901674E-04
7.533488E+03	2.940243E-02	3.865440E-04
7.543427E+03	2.941950E-02	3.834151E-04
7.553366E+03	2.947344E-02	3.807507E-04
7.563304E+03	2.956250E-02	3.785201E-04
7.573243E+03	2.968414E-02	3.766841E-04
7.583181E+03	2.983777E-02	3.752291E-04
7.593120E+03	3.002003E-02	3.741077E-04
7.603059E+03	3.023021E-02	3.733075E-04
7.612997E+03	3.046476E-02	3.727819E-04
7.622936E+03	3.072287E-02	3.725201E-04
7.632875E+03	3.100080E-02	3.724768E-04
7.642813E+03	3.129755E-02	3.726417E-04
7.652752E+03	3.160978E-02	3.729784E-04
7.662691E+03	3.193460E-02	3.734577E-04
7.672629E+03	3.226798E-02	3.740393E-04
7.682568E+03	3.260766E-02	3.747058E-04
7.692506E+03	3.294853E-02	3.754091E-04
7.702445E+03	3.328551E-02	3.761041E-04
7.712384E+03	3.361192E-02	3.767305E-04
