#wls	flux	fluxerr
1.590182E+03	5.135701E-02	2.476433E-03
1.629937E+03	4.001410E-02	1.898242E-03
1.669691E+03	3.067852E-02	1.431343E-03
1.709446E+03	2.315392E-02	1.062105E-03
1.749200E+03	1.720905E-02	7.758911E-04
1.788955E+03	1.260103E-02	5.582451E-04
1.828710E+03	9.094566E-03	3.957834E-04
1.868464E+03	6.475932E-03	2.767738E-04
1.908219E+03	4.555784E-03	1.911764E-04
1.947973E+03	3.174894E-03	1.307864E-04
1.987728E+03	2.204370E-03	8.912680E-05
2.027482E+03	1.538798E-03	6.105771E-05
2.067237E+03	1.095324E-03	4.264812E-05
2.106991E+03	8.109830E-04	3.098501E-05
2.146746E+03	6.395513E-04	2.397758E-05
2.186501E+03	5.482316E-04	2.017053E-05
2.226255E+03	5.172869E-04	1.867964E-05
2.266010E+03	5.393605E-04	1.911993E-05
2.305764E+03	6.183676E-04	2.152369E-05
2.345519E+03	7.709586E-04	2.635463E-05
2.385273E+03	1.031148E-03	3.462546E-05
2.425028E+03	1.457162E-03	4.807519E-05
2.464782E+03	2.140909E-03	6.941086E-05
2.504537E+03	3.216932E-03	1.025065E-04
2.544292E+03	4.864021E-03	1.523475E-04
2.584046E+03	7.289962E-03	2.244567E-04
2.623801E+03	1.069072E-02	3.235974E-04
2.663555E+03	1.520771E-02	4.525478E-04
2.703310E+03	2.088281E-02	6.109312E-04
2.743064E+03	2.761147E-02	7.941215E-04
2.782819E+03	3.511872E-02	9.929192E-04
2.822573E+03	4.297973E-02	1.194527E-03
2.862328E+03	5.069142E-02	1.384844E-03
2.902083E+03	5.775937E-02	1.550963E-03
2.941837E+03	6.377937E-02	1.683273E-03
2.981592E+03	6.849082E-02	1.776613E-03
2.991530E+03	6.944851E-02	1.793679E-03
3.001469E+03	7.031719E-02	1.808278E-03
3.011408E+03	7.109855E-02	1.820484E-03
3.021346E+03	7.179395E-02	1.830363E-03
3.031285E+03	7.240721E-02	1.838044E-03
3.041223E+03	7.294441E-02	1.843707E-03
3.051162E+03	7.340506E-02	1.847369E-03
3.061101E+03	7.379388E-02	1.849174E-03
3.071039E+03	7.411124E-02	1.849157E-03
3.080978E+03	7.436107E-02	1.847440E-03
3.090917E+03	7.454593E-02	1.844109E-03
3.100855E+03	7.467030E-02	1.839296E-03
3.110794E+03	7.473735E-02	1.833095E-03
3.120733E+03	7.475043E-02	1.825606E-03
3.130671E+03	7.471456E-02	1.816965E-03
3.140610E+03	7.463198E-02	1.807242E-03
3.150549E+03	7.450931E-02	1.796609E-03
3.160487E+03	7.434898E-02	1.785135E-03
3.170426E+03	7.415631E-02	1.772958E-03
3.180364E+03	7.393515E-02	1.760177E-03
3.190303E+03	7.368944E-02	1.746893E-03
3.200242E+03	7.342442E-02	1.733237E-03
3.210180E+03	7.314391E-02	1.719303E-03
3.220119E+03	7.285052E-02	1.705154E-03
3.230058E+03	7.255169E-02	1.690968E-03
3.239996E+03	7.224746E-02	1.676745E-03
3.249935E+03	7.194502E-02	1.662653E-03
3.259874E+03	7.164557E-02	1.648717E-03
3.269812E+03	7.135373E-02	1.635042E-03
3.279751E+03	7.107395E-02	1.621725E-03
3.289689E+03	7.080727E-02	1.608787E-03
3.299628E+03	7.055907E-02	1.596345E-03
3.309567E+03	7.033235E-02	1.584460E-03
3.319505E+03	7.012898E-02	1.573168E-03
3.329444E+03	6.995180E-02	1.562524E-03
3.339383E+03	6.980354E-02	1.552582E-03
3.349321E+03	6.968765E-02	1.543411E-03
3.359260E+03	6.960459E-02	1.535009E-03
3.369199E+03	6.955841E-02	1.527458E-03
3.379137E+03	6.954916E-02	1.520748E-03
3.389076E+03	6.957850E-02	1.514905E-03
3.399014E+03	6.964875E-02	1.509968E-03
3.408953E+03	6.975822E-02	1.505890E-03
3.418892E+03	6.990940E-02	1.502714E-03
3.428830E+03	7.010175E-02	1.500417E-03
3.438769E+03	7.033263E-02	1.498934E-03
3.448708E+03	7.060337E-02	1.498280E-03
3.458646E+03	7.090967E-02	1.498356E-03
3.468585E+03	7.124405E-02	1.498996E-03
3.478524E+03	7.159632E-02	1.499977E-03
3.488462E+03	7.195421E-02	1.501034E-03
3.498401E+03	7.230898E-02	1.501982E-03
3.508340E+03	7.265031E-02	1.502604E-03
3.518278E+03	7.296904E-02	1.502713E-03
3.528217E+03	7.325835E-02	1.502169E-03
3.538155E+03	7.351181E-02	1.500848E-03
3.548094E+03	7.372609E-02	1.498688E-03
3.558033E+03	7.389967E-02	1.495663E-03
3.567971E+03	7.403532E-02	1.491839E-03
3.577910E+03	7.413797E-02	1.487320E-03
3.587849E+03	7.421464E-02	1.482252E-03
3.597787E+03	7.427658E-02	1.476863E-03
3.607726E+03	7.433762E-02	1.471427E-03
3.617665E+03	7.441218E-02	1.466225E-03
3.627603E+03	7.452016E-02	1.461642E-03
3.637542E+03	7.467932E-02	1.458013E-03
3.647480E+03	7.491110E-02	1.455737E-03
3.657419E+03	7.523684E-02	1.455204E-03
3.667358E+03	7.567820E-02	1.456802E-03
3.677296E+03	7.625714E-02	1.460918E-03
3.687235E+03	7.699600E-02	1.467937E-03
3.697174E+03	7.791378E-02	1.478171E-03
3.707112E+03	7.903256E-02	1.491983E-03
3.717051E+03	8.036988E-02	1.509643E-03
3.726990E+03	8.194413E-02	1.531427E-03
3.736928E+03	8.377188E-02	1.557572E-03
3.746867E+03	8.586580E-02	1.588235E-03
3.756805E+03	8.823987E-02	1.623589E-03
3.766744E+03	9.090232E-02	1.663699E-03
3.776683E+03	9.385969E-02	1.708592E-03
3.786621E+03	9.711387E-02	1.758207E-03
3.796560E+03	1.006632E-01	1.812420E-03
3.806499E+03	1.045000E-01	1.870996E-03
3.816437E+03	1.086121E-01	1.933620E-03
3.826376E+03	1.129803E-01	1.999864E-03
3.836315E+03	1.175810E-01	2.069222E-03
3.846253E+03	1.223830E-01	2.141067E-03
3.856192E+03	1.273490E-01	2.214680E-03
3.866131E+03	1.324379E-01	2.289286E-03
3.876069E+03	1.376034E-01	2.364044E-03
3.886008E+03	1.427990E-01	2.438127E-03
3.895946E+03	1.479752E-01	2.510675E-03
3.905885E+03	1.530844E-01	2.580885E-03
3.915824E+03	1.580803E-01	2.647998E-03
3.925762E+03	1.629210E-01	2.711345E-03
3.935701E+03	1.675734E-01	2.770428E-03
3.945640E+03	1.720047E-01	2.824764E-03
3.955578E+03	1.761939E-01	2.874083E-03
3.965517E+03	1.801237E-01	2.918185E-03
3.975456E+03	1.837844E-01	2.957003E-03
3.985394E+03	1.871718E-01	2.990561E-03
3.995333E+03	1.902826E-01	3.018902E-03
4.005271E+03	1.931207E-01	3.042189E-03
4.015210E+03	1.956888E-01	3.060564E-03
4.025149E+03	1.979916E-01	3.074198E-03
4.035087E+03	2.000321E-01	3.083238E-03
4.045026E+03	2.018120E-01	3.087812E-03
4.054965E+03	2.033350E-01	3.088077E-03
4.064903E+03	2.045989E-01	3.084100E-03
4.074842E+03	2.056031E-01	3.075977E-03
4.084781E+03	2.063464E-01	3.063794E-03
4.094719E+03	2.068242E-01	3.047589E-03
4.104658E+03	2.070369E-01	3.027474E-03
4.114596E+03	2.069810E-01	3.003508E-03
4.124535E+03	2.066579E-01	2.975819E-03
4.134474E+03	2.060713E-01	2.944567E-03
4.144412E+03	2.052243E-01	2.909904E-03
4.154351E+03	2.041280E-01	2.872092E-03
4.164290E+03	2.027908E-01	2.831347E-03
4.174228E+03	2.012326E-01	2.788042E-03
4.184167E+03	1.994693E-01	2.742484E-03
4.194106E+03	1.975251E-01	2.695086E-03
4.204044E+03	1.954261E-01	2.646273E-03
4.213983E+03	1.932027E-01	2.596516E-03
4.223922E+03	1.908831E-01	2.546246E-03
4.233860E+03	1.885030E-01	2.495973E-03
4.243799E+03	1.860943E-01	2.446149E-03
4.253737E+03	1.836886E-01	2.397204E-03
4.263676E+03	1.813192E-01	2.349579E-03
4.273615E+03	1.790160E-01	2.303658E-03
4.283553E+03	1.768033E-01	2.259740E-03
4.293492E+03	1.747047E-01	2.218110E-03
4.303431E+03	1.727396E-01	2.178991E-03
4.313369E+03	1.709229E-01	2.142545E-03
4.323308E+03	1.692653E-01	2.108874E-03
4.333247E+03	1.677741E-01	2.078029E-03
4.343185E+03	1.664575E-01	2.050077E-03
4.353124E+03	1.653427E-01	2.025314E-03
4.363062E+03	1.644587E-01	2.004056E-03
4.373001E+03	1.638238E-01	1.986485E-03
4.382940E+03	1.634510E-01	1.972718E-03
4.392878E+03	1.633484E-01	1.962815E-03
4.402817E+03	1.635165E-01	1.956750E-03
4.412756E+03	1.639491E-01	1.954417E-03
4.422694E+03	1.646365E-01	1.955665E-03
4.432633E+03	1.655609E-01	1.960231E-03
4.442572E+03	1.667016E-01	1.967819E-03
4.452510E+03	1.680318E-01	1.978073E-03
4.462449E+03	1.695005E-01	1.990354E-03
4.472387E+03	1.710500E-01	2.003954E-03
4.482326E+03	1.726177E-01	2.018113E-03
4.492265E+03	1.741410E-01	2.032075E-03
4.502203E+03	1.755598E-01	2.045120E-03
4.512142E+03	1.768136E-01	2.056525E-03
4.522081E+03	1.778501E-01	2.065661E-03
4.532019E+03	1.786225E-01	2.071969E-03
4.541958E+03	1.790908E-01	2.074964E-03
4.551897E+03	1.792218E-01	2.074244E-03
4.561835E+03	1.789950E-01	2.069549E-03
4.571774E+03	1.783984E-01	2.060719E-03
4.581713E+03	1.774298E-01	2.047708E-03
4.591651E+03	1.760980E-01	2.030597E-03
4.601590E+03	1.744178E-01	2.009533E-03
4.611528E+03	1.724148E-01	1.984793E-03
4.621467E+03	1.701194E-01	1.956708E-03
4.631406E+03	1.675676E-01	1.925673E-03
4.641344E+03	1.647988E-01	1.892127E-03
4.651283E+03	1.618550E-01	1.856536E-03
4.661222E+03	1.587788E-01	1.819378E-03
4.671160E+03	1.556152E-01	1.781158E-03
4.681099E+03	1.524046E-01	1.742331E-03
4.691038E+03	1.491853E-01	1.703323E-03
4.700976E+03	1.459943E-01	1.664553E-03
4.710915E+03	1.428614E-01	1.626354E-03
4.720853E+03	1.398135E-01	1.589027E-03
4.730792E+03	1.368747E-01	1.552839E-03
4.740731E+03	1.340637E-01	1.517995E-03
4.750669E+03	1.313941E-01	1.484644E-03
4.760608E+03	1.288786E-01	1.452922E-03
4.770547E+03	1.265253E-01	1.422912E-03
4.780485E+03	1.243386E-01	1.394656E-03
4.790424E+03	1.223229E-01	1.368190E-03
4.800363E+03	1.204793E-01	1.343518E-03
4.810301E+03	1.188077E-01	1.320627E-03
4.820240E+03	1.173067E-01	1.299486E-03
4.830178E+03	1.159727E-01	1.280042E-03
4.840117E+03	1.148050E-01	1.262272E-03
4.850056E+03	1.137981E-01	1.246097E-03
4.859994E+03	1.129482E-01	1.231462E-03
4.869933E+03	1.122528E-01	1.218319E-03
4.879872E+03	1.117086E-01	1.206614E-03
4.889810E+03	1.113128E-01	1.196295E-03
4.899749E+03	1.110610E-01	1.187295E-03
4.909688E+03	1.109540E-01	1.179599E-03
4.919626E+03	1.109902E-01	1.173168E-03
4.929565E+03	1.111702E-01	1.167982E-03
4.939504E+03	1.114951E-01	1.164029E-03
4.949442E+03	1.119670E-01	1.161301E-03
4.959381E+03	1.125871E-01	1.159782E-03
4.969319E+03	1.133572E-01	1.159461E-03
4.979258E+03	1.142799E-01	1.160332E-03
4.989197E+03	1.153542E-01	1.162351E-03
4.999135E+03	1.165771E-01	1.165456E-03
5.009074E+03	1.179466E-01	1.169591E-03
5.019013E+03	1.194520E-01	1.174618E-03
5.028951E+03	1.210846E-01	1.180423E-03
5.038890E+03	1.228298E-01	1.186836E-03
5.048829E+03	1.246654E-01	1.193619E-03
5.058767E+03	1.265723E-01	1.200574E-03
5.068706E+03	1.285213E-01	1.207420E-03
5.078644E+03	1.304828E-01	1.213876E-03
5.088583E+03	1.324253E-01	1.219666E-03
5.098522E+03	1.343119E-01	1.224474E-03
5.108460E+03	1.361077E-01	1.228019E-03
5.118399E+03	1.377795E-01	1.230054E-03
5.128338E+03	1.392934E-01	1.230341E-03
5.138276E+03	1.406203E-01	1.228698E-03
5.148215E+03	1.417342E-01	1.224988E-03
5.158154E+03	1.426178E-01	1.219157E-03
5.168092E+03	1.432561E-01	1.211183E-03
5.178031E+03	1.436472E-01	1.201160E-03
5.187969E+03	1.437925E-01	1.189209E-03
5.197908E+03	1.437009E-01	1.175514E-03
5.207847E+03	1.433892E-01	1.160321E-03
5.217785E+03	1.428820E-01	1.143931E-03
5.227724E+03	1.422040E-01	1.126635E-03
5.237663E+03	1.413878E-01	1.108776E-03
5.247601E+03	1.404674E-01	1.090696E-03
5.257540E+03	1.394715E-01	1.072685E-03
5.267479E+03	1.384359E-01	1.055075E-03
5.277417E+03	1.373857E-01	1.038105E-03
5.287356E+03	1.363504E-01	1.022039E-03
5.297295E+03	1.353473E-01	1.007041E-03
5.307233E+03	1.343957E-01	9.932879E-04
5.317172E+03	1.335074E-01	9.808937E-04
5.327110E+03	1.326885E-01	9.699291E-04
5.337049E+03	1.319452E-01	9.604629E-04
5.346988E+03	1.312736E-01	9.524908E-04
5.356926E+03	1.306753E-01	9.460475E-04
5.366865E+03	1.301452E-01	9.411116E-04
5.376804E+03	1.296782E-01	9.376209E-04
5.386742E+03	1.292692E-01	9.354921E-04
5.396681E+03	1.289067E-01	9.345961E-04
5.406620E+03	1.285767E-01	9.347821E-04
5.416558E+03	1.282819E-01	9.360171E-04
5.426497E+03	1.280289E-01	9.382989E-04
5.436435E+03	1.278240E-01	9.416235E-04
5.446374E+03	1.276712E-01	9.459739E-04
5.456313E+03	1.275736E-01	9.513252E-04
5.466251E+03	1.275344E-01	9.576582E-04
5.476190E+03	1.275519E-01	9.649193E-04
5.486129E+03	1.276218E-01	9.730357E-04
5.496067E+03	1.277367E-01	9.819136E-04
5.506006E+03	1.278893E-01	9.914584E-04
5.515945E+03	1.280656E-01	1.001524E-03
5.525883E+03	1.282534E-01	1.011979E-03
5.535822E+03	1.284350E-01	1.022642E-03
5.545760E+03	1.285946E-01	1.033347E-03
5.555699E+03	1.287172E-01	1.043931E-03
5.565638E+03	1.287848E-01	1.054203E-03
5.575576E+03	1.287844E-01	1.064011E-03
5.585515E+03	1.287042E-01	1.073207E-03
5.595454E+03	1.285336E-01	1.081655E-03
5.605392E+03	1.282666E-01	1.089257E-03
5.615331E+03	1.279017E-01	1.095951E-03
5.625270E+03	1.274402E-01	1.101705E-03
5.635208E+03	1.268853E-01	1.106501E-03
5.645147E+03	1.262461E-01	1.110382E-03
5.655086E+03	1.255346E-01	1.113418E-03
5.665024E+03	1.247615E-01	1.115674E-03
5.674963E+03	1.239426E-01	1.117269E-03
5.684901E+03	1.230953E-01	1.118339E-03
5.694840E+03	1.222356E-01	1.119018E-03
5.704779E+03	1.213793E-01	1.119443E-03
5.714717E+03	1.205412E-01	1.119746E-03
5.724656E+03	1.197342E-01	1.120051E-03
5.734595E+03	1.189707E-01	1.120476E-03
5.744533E+03	1.182578E-01	1.121098E-03
5.754472E+03	1.176035E-01	1.122002E-03
5.764411E+03	1.170092E-01	1.123214E-03
5.774349E+03	1.164743E-01	1.124741E-03
5.784288E+03	1.159976E-01	1.126583E-03
5.794226E+03	1.155700E-01	1.128668E-03
5.804165E+03	1.151836E-01	1.130927E-03
5.814104E+03	1.148275E-01	1.133266E-03
5.824042E+03	1.144863E-01	1.135543E-03
5.833981E+03	1.141452E-01	1.137618E-03
5.843920E+03	1.137852E-01	1.139311E-03
5.853858E+03	1.133903E-01	1.140465E-03
5.863797E+03	1.129394E-01	1.140873E-03
5.873736E+03	1.124130E-01	1.140339E-03
5.883674E+03	1.117931E-01	1.138682E-03
5.893613E+03	1.110597E-01	1.135700E-03
5.903551E+03	1.101975E-01	1.131233E-03
5.913490E+03	1.091901E-01	1.125113E-03
5.923429E+03	1.080272E-01	1.117230E-03
5.933367E+03	1.067002E-01	1.107495E-03
5.943306E+03	1.052051E-01	1.095860E-03
5.953245E+03	1.035410E-01	1.082315E-03
5.963183E+03	1.017146E-01	1.066929E-03
5.973122E+03	9.973669E-02	1.049812E-03
5.983061E+03	9.762212E-02	1.031120E-03
5.992999E+03	9.539305E-02	1.011087E-03
6.002938E+03	9.307371E-02	9.899705E-04
6.012877E+03	9.069227E-02	9.680747E-04
6.022815E+03	8.828259E-02	9.457657E-04
6.032754E+03	8.587614E-02	9.233877E-04
6.042692E+03	8.350791E-02	9.013273E-04
6.052631E+03	8.120917E-02	8.799343E-04
6.062570E+03	7.901278E-02	8.595807E-04
6.072508E+03	7.694695E-02	8.405923E-04
6.082447E+03	7.503767E-02	8.232756E-04
6.092386E+03	7.330724E-02	8.079016E-04
6.102324E+03	7.177319E-02	7.946934E-04
6.112263E+03	7.044951E-02	7.838398E-04
6.122202E+03	6.934619E-02	7.754898E-04
6.132140E+03	6.846904E-02	7.697498E-04
6.142079E+03	6.781970E-02	7.666836E-04
6.152017E+03	6.739507E-02	7.663044E-04
6.161956E+03	6.719002E-02	7.686052E-04
6.171895E+03	6.719468E-02	7.735270E-04
6.181833E+03	6.739576E-02	7.809684E-04
6.191772E+03	6.777748E-02	7.907862E-04
6.201711E+03	6.832092E-02	8.027960E-04
6.211649E+03	6.900440E-02	8.167770E-04
6.221588E+03	6.980390E-02	8.324752E-04
6.231527E+03	7.069372E-02	8.496099E-04
6.241465E+03	7.164812E-02	8.678909E-04
6.251404E+03	7.263831E-02	8.869819E-04
6.261342E+03	7.364109E-02	9.066039E-04
6.271281E+03	7.463002E-02	9.264282E-04
6.281220E+03	7.558415E-02	9.461833E-04
6.291158E+03	7.648519E-02	9.656213E-04
6.301097E+03	7.731879E-02	9.845357E-04
6.311036E+03	7.807409E-02	1.002758E-03
6.320974E+03	7.874607E-02	1.020188E-03
6.330913E+03	7.933470E-02	1.036788E-03
6.340852E+03	7.984314E-02	1.052564E-03
6.350790E+03	8.027890E-02	1.067576E-03
6.360729E+03	8.065424E-02	1.081953E-03
6.370667E+03	8.097502E-02	1.095745E-03
6.380606E+03	8.123735E-02	1.108866E-03
6.390545E+03	8.143607E-02	1.121216E-03
6.400483E+03	8.156612E-02	1.132690E-03
6.410422E+03	8.162774E-02	1.143256E-03
6.420361E+03	8.161839E-02	1.152845E-03
6.430299E+03	8.154040E-02	1.161453E-03
6.440238E+03	8.139569E-02	1.169074E-03
6.450177E+03	8.118559E-02	1.175694E-03
6.460115E+03	8.091339E-02	1.181327E-03
6.470054E+03	8.058259E-02	1.185996E-03
6.479993E+03	8.019726E-02	1.189730E-03
6.489931E+03	7.976143E-02	1.192564E-03
6.499870E+03	7.928059E-02	1.194556E-03
6.509808E+03	7.875762E-02	1.195726E-03
6.519747E+03	7.819550E-02	1.196099E-03
6.529686E+03	7.760065E-02	1.195756E-03
6.539624E+03	7.697455E-02	1.194702E-03
6.549563E+03	7.632209E-02	1.193000E-03
6.559502E+03	7.564676E-02	1.190692E-03
6.569440E+03	7.495194E-02	1.187820E-03
6.579379E+03	7.424072E-02	1.184424E-03
6.589318E+03	7.351482E-02	1.180525E-03
6.599256E+03	7.277830E-02	1.176180E-03
6.609195E+03	7.203251E-02	1.171408E-03
6.619133E+03	7.128110E-02	1.166263E-03
6.629072E+03	7.052515E-02	1.160762E-03
6.639011E+03	6.976680E-02	1.154937E-03
6.648949E+03	6.900922E-02	1.148842E-03
6.658888E+03	6.825412E-02	1.142504E-03
6.668827E+03	6.750090E-02	1.135916E-03
6.678765E+03	6.675336E-02	1.129143E-03
6.688704E+03	6.601058E-02	1.122172E-03
6.698643E+03	6.527595E-02	1.115063E-03
6.708581E+03	6.454937E-02	1.107819E-03
6.718520E+03	6.383074E-02	1.100441E-03
6.728458E+03	6.312295E-02	1.092984E-03
6.738397E+03	6.242436E-02	1.085424E-03
6.748336E+03	6.173671E-02	1.077795E-03
6.758274E+03	6.106034E-02	1.070108E-03
6.768213E+03	6.039545E-02	1.062372E-03
6.778152E+03	5.974128E-02	1.054578E-03
6.788090E+03	5.909896E-02	1.046751E-03
6.798029E+03	5.846755E-02	1.038880E-03
6.807968E+03	5.784820E-02	1.030989E-03
6.817906E+03	5.723981E-02	1.023065E-03
6.827845E+03	5.664242E-02	1.015113E-03
6.837784E+03	5.605712E-02	1.007157E-03
6.847722E+03	5.548187E-02	9.991654E-04
6.857661E+03	5.491881E-02	9.911816E-04
6.867599E+03	5.436705E-02	9.831944E-04
6.877538E+03	5.382668E-02	9.752098E-04
6.887477E+03	5.329785E-02	9.672354E-04
6.897415E+03	5.278073E-02	9.592783E-04
6.907354E+03	5.227448E-02	9.513281E-04
6.917293E+03	5.178028E-02	9.434101E-04
6.927231E+03	5.129826E-02	9.355312E-04
6.937170E+03	5.082854E-02	9.276976E-04
6.947109E+03	5.036923E-02	9.198787E-04
6.957047E+03	4.992330E-02	9.121323E-04
6.966986E+03	4.948777E-02	9.044078E-04
6.976924E+03	4.906445E-02	8.967419E-04
6.986863E+03	4.865216E-02	8.891162E-04
6.996802E+03	4.825059E-02	8.815281E-04
7.006740E+03	4.785929E-02	8.739729E-04
7.016679E+03	4.747775E-02	8.664438E-04
7.026618E+03	4.710434E-02	8.589142E-04
7.036556E+03	4.673921E-02	8.513895E-04
7.046495E+03	4.638145E-02	8.438559E-04
7.056434E+03	4.602909E-02	8.362802E-04
7.066372E+03	4.568189E-02	8.286608E-04
7.076311E+03	4.533767E-02	8.209609E-04
7.086249E+03	4.499506E-02	8.131587E-04
7.096188E+03	4.465263E-02	8.052317E-04
7.106127E+03	4.430981E-02	7.971723E-04
7.116065E+03	4.396324E-02	7.889241E-04
7.126004E+03	4.361139E-02	7.804635E-04
7.135943E+03	4.325457E-02	7.718003E-04
7.145881E+03	4.288949E-02	7.628805E-04
7.155820E+03	4.251476E-02	7.536847E-04
7.165759E+03	4.213001E-02	7.442118E-04
7.175697E+03	4.173319E-02	7.344318E-04
7.185636E+03	4.132330E-02	7.243340E-04
7.195575E+03	4.089957E-02	7.139118E-04
7.205513E+03	4.046138E-02	7.031625E-04
7.215452E+03	4.000926E-02	6.921029E-04
7.225390E+03	3.954134E-02	6.807097E-04
7.235329E+03	3.905950E-02	6.690239E-04
7.245268E+03	3.856327E-02	6.570468E-04
7.255206E+03	3.805334E-02	6.447992E-04
7.265145E+03	3.753147E-02	6.323207E-04
7.275084E+03	3.699802E-02	6.196265E-04
7.285022E+03	3.645524E-02	6.067637E-04
7.294961E+03	3.590477E-02	5.937683E-04
7.304900E+03	3.534923E-02	5.806924E-04
7.314838E+03	3.479060E-02	5.675761E-04
7.324777E+03	3.423175E-02	5.544733E-04
7.334715E+03	3.367409E-02	5.414134E-04
7.344654E+03	3.312215E-02	5.284745E-04
7.354593E+03	3.257813E-02	5.156959E-04
7.364531E+03	3.204347E-02	5.031034E-04
7.374470E+03	3.152252E-02	4.907674E-04
7.384409E+03	3.101657E-02	4.787086E-04
7.394347E+03	3.052823E-02	4.669668E-04
7.404286E+03	3.005856E-02	4.555568E-04
7.414225E+03	2.960987E-02	4.445112E-04
7.424163E+03	2.918150E-02	4.338168E-04
7.434102E+03	2.877611E-02	4.235090E-04
7.444040E+03	2.839270E-02	4.135687E-04
7.453979E+03	2.803280E-02	4.040131E-04
7.463918E+03	2.769639E-02	3.948358E-04
7.473856E+03	2.738321E-02	3.860275E-04
7.483795E+03	2.709412E-02	3.775938E-04
7.493734E+03	2.682714E-02	3.695006E-04
7.503672E+03	2.658338E-02	3.617569E-04
7.513611E+03	2.636177E-02	3.543415E-04
7.523550E+03	2.616174E-02	3.472405E-04
7.533488E+03	2.598192E-02	3.404298E-04
7.543427E+03	2.582206E-02	3.339007E-04
7.553366E+03	2.568055E-02	3.276271E-04
7.563304E+03	2.555630E-02	3.215912E-04
7.573243E+03	2.544878E-02	3.157824E-04
7.583181E+03	2.535611E-02	3.101746E-04
7.593120E+03	2.527766E-02	3.047581E-04
7.603059E+03	2.521084E-02	2.995008E-04
7.612997E+03	2.515557E-02	2.944023E-04
7.622936E+03	2.510989E-02	2.894406E-04
7.632875E+03	2.507304E-02	2.846097E-04
7.642813E+03	2.504303E-02	2.798907E-04
7.652752E+03	2.501851E-02	2.752736E-04
7.662691E+03	2.499810E-02	2.707500E-04
7.672629E+03	2.498175E-02	2.663272E-04
7.682568E+03	2.496620E-02	2.619794E-04
7.692506E+03	2.495205E-02	2.577239E-04
7.702445E+03	2.493671E-02	2.535459E-04
7.712384E+03	2.491955E-02	2.494526E-04
