#wls	flux	fluxerr
1.600000E+03	8.610329E-16	6.869563E-16
1.640000E+03	8.931245E-16	7.069065E-16
1.680000E+03	9.272684E-16	7.278822E-16
1.720000E+03	9.635736E-16	7.499042E-16
1.760000E+03	1.002244E-15	7.730605E-16
1.800000E+03	1.043385E-15	7.973538E-16
1.840000E+03	1.087195E-15	8.228520E-16
1.880000E+03	1.133870E-15	8.496107E-16
1.920000E+03	1.183500E-15	8.775957E-16
1.960000E+03	1.236266E-15	9.068337E-16
2.000000E+03	1.292341E-15	9.373342E-16
2.040000E+03	1.351887E-15	9.690877E-16
2.080000E+03	1.414948E-15	1.001990E-15
2.120000E+03	1.481654E-15	1.035991E-15
2.160000E+03	1.551907E-15	1.070870E-15
2.200000E+03	1.625582E-15	1.106389E-15
2.240000E+03	1.702102E-15	1.142002E-15
2.280000E+03	1.780858E-15	1.177163E-15
2.320000E+03	1.862385E-15	1.212086E-15
2.360000E+03	1.947624E-15	1.247221E-15
2.400000E+03	2.037270E-15	1.282819E-15
2.440000E+03	2.131765E-15	1.318937E-15
2.480000E+03	2.231393E-15	1.355508E-15
2.520000E+03	2.336489E-15	1.392476E-15
2.560000E+03	2.447106E-15	1.429597E-15
2.600000E+03	2.563439E-15	1.466696E-15
2.640000E+03	2.685390E-15	1.503419E-15
2.680000E+03	2.812564E-15	1.539244E-15
2.720000E+03	2.944688E-15	1.573730E-15
2.760000E+03	3.081088E-15	1.606232E-15
2.800000E+03	3.220897E-15	1.636044E-15
2.840000E+03	3.362967E-15	1.662361E-15
2.880000E+03	3.506083E-15	1.684411E-15
2.920000E+03	3.649554E-15	1.701737E-15
2.960000E+03	3.793655E-15	1.714366E-15
3.000000E+03	3.938873E-15	1.722408E-15
3.010000E+03	3.975364E-15	1.723693E-15
3.020000E+03	4.012093E-15	1.724754E-15
3.030000E+03	4.048842E-15	1.725496E-15
3.040000E+03	4.085679E-15	1.725945E-15
3.050000E+03	4.122758E-15	1.726165E-15
3.060000E+03	4.159864E-15	1.726062E-15
3.070000E+03	4.197149E-15	1.725699E-15
3.080000E+03	4.234580E-15	1.725059E-15
3.090000E+03	4.272126E-15	1.724127E-15
3.100000E+03	4.309751E-15	1.722888E-15
3.110000E+03	4.347602E-15	1.721396E-15
3.120000E+03	4.385551E-15	1.719601E-15
3.130000E+03	4.423652E-15	1.717520E-15
3.140000E+03	4.461867E-15	1.715138E-15
3.150000E+03	4.500157E-15	1.712438E-15
3.160000E+03	4.538572E-15	1.709438E-15
3.170000E+03	4.577156E-15	1.706152E-15
3.180000E+03	4.615698E-15	1.702501E-15
3.190000E+03	4.654412E-15	1.698564E-15
3.200000E+03	4.693170E-15	1.694292E-15
3.210000E+03	4.732013E-15	1.689700E-15
3.220000E+03	4.770897E-15	1.684772E-15
3.230000E+03	4.809696E-15	1.679462E-15
3.240000E+03	4.848610E-15	1.673843E-15
3.250000E+03	4.887348E-15	1.667814E-15
3.260000E+03	4.926109E-15	1.661445E-15
3.270000E+03	4.964844E-15	1.654719E-15
3.280000E+03	5.003347E-15	1.647572E-15
3.290000E+03	5.041807E-15	1.640068E-15
3.300000E+03	5.080020E-15	1.632142E-15
3.310000E+03	5.118017E-15	1.623810E-15
3.320000E+03	5.155748E-15	1.615059E-15
3.330000E+03	5.193242E-15	1.605904E-15
3.340000E+03	5.230375E-15	1.596311E-15
3.350000E+03	5.267099E-15	1.586273E-15
3.360000E+03	5.303368E-15	1.575781E-15
3.370000E+03	5.339208E-15	1.564853E-15
3.380000E+03	5.374499E-15	1.553459E-15
3.390000E+03	5.409196E-15	1.541598E-15
3.400000E+03	5.443254E-15	1.529266E-15
3.410000E+03	5.476560E-15	1.516442E-15
3.420000E+03	5.509072E-15	1.503128E-15
3.430000E+03	5.540749E-15	1.489325E-15
3.440000E+03	5.571484E-15	1.475018E-15
3.450000E+03	5.601242E-15	1.460213E-15
3.460000E+03	5.629919E-15	1.444899E-15
3.470000E+03	5.657419E-15	1.429069E-15
3.480000E+03	5.683646E-15	1.412718E-15
3.490000E+03	5.708449E-15	1.395828E-15
3.500000E+03	5.731805E-15	1.378416E-15
3.510000E+03	5.753572E-15	1.360470E-15
3.520000E+03	5.773551E-15	1.341967E-15
3.530000E+03	5.791493E-15	1.322879E-15
3.540000E+03	5.807343E-15	1.303222E-15
3.550000E+03	5.820872E-15	1.282976E-15
3.560000E+03	5.831747E-15	1.262102E-15
3.570000E+03	5.839829E-15	1.240609E-15
3.580000E+03	5.844932E-15	1.218497E-15
3.590000E+03	5.846825E-15	1.195759E-15
3.600000E+03	5.845242E-15	1.172387E-15
3.610000E+03	5.840154E-15	1.148422E-15
3.620000E+03	5.831430E-15	1.123886E-15
3.630000E+03	5.818954E-15	1.098805E-15
3.640000E+03	5.802887E-15	1.073260E-15
3.650000E+03	5.783232E-15	1.047299E-15
3.660000E+03	5.760051E-15	1.020979E-15
3.670000E+03	5.733458E-15	9.943675E-16
3.680000E+03	5.703571E-15	9.675289E-16
3.690000E+03	5.670458E-15	9.405174E-16
3.700000E+03	5.634337E-15	9.134101E-16
3.710000E+03	5.595230E-15	8.862494E-16
3.720000E+03	5.553305E-15	8.590997E-16
3.730000E+03	5.508774E-15	8.320289E-16
3.740000E+03	5.461618E-15	8.050671E-16
3.750000E+03	5.412138E-15	7.782905E-16
3.760000E+03	5.360318E-15	7.517257E-16
3.770000E+03	5.306409E-15	7.254356E-16
3.780000E+03	5.250526E-15	6.994609E-16
3.790000E+03	5.192783E-15	6.738399E-16
3.800000E+03	5.133338E-15	6.486143E-16
3.810000E+03	5.072303E-15	6.238173E-16
3.820000E+03	5.009831E-15	5.994850E-16
3.830000E+03	4.946071E-15	5.756503E-16
3.840000E+03	4.881133E-15	5.523389E-16
3.850000E+03	4.815162E-15	5.295785E-16
3.860000E+03	4.748301E-15	5.073938E-16
3.870000E+03	4.680654E-15	4.858032E-16
3.880000E+03	4.612360E-15	4.648265E-16
3.890000E+03	4.543555E-15	4.444807E-16
3.900000E+03	4.474338E-15	4.247772E-16
3.910000E+03	4.404842E-15	4.057283E-16
3.920000E+03	4.335164E-15	3.873407E-16
3.930000E+03	4.265465E-15	3.696250E-16
3.940000E+03	4.195839E-15	3.525832E-16
3.950000E+03	4.126411E-15	3.362181E-16
3.960000E+03	4.057240E-15	3.205248E-16
3.970000E+03	3.988513E-15	3.055066E-16
3.980000E+03	3.920288E-15	2.911543E-16
3.990000E+03	3.852687E-15	2.774612E-16
4.000000E+03	3.785800E-15	2.644164E-16
4.010000E+03	3.719775E-15	2.520106E-16
4.020000E+03	4.662881E-15	2.090985E-15
4.029200E+03	4.615234E-15	2.087786E-15
4.038400E+03	4.307806E-15	2.082643E-15
4.056800E+03	4.027489E-15	2.154661E-15
4.066000E+03	3.759776E-15	1.628760E-15
4.075200E+03	3.692197E-15	2.428520E-15
4.093600E+03	3.519338E-15	2.614508E-15
4.102800E+03	3.429226E-15	2.354688E-15
4.112000E+03	3.025413E-15	2.387048E-15
4.121200E+03	2.791937E-15	1.934965E-15
4.130400E+03	2.518032E-15	2.072032E-15
4.139600E+03	2.307249E-15	1.502934E-15
4.148800E+03	2.000966E-15	1.387201E-15
4.158000E+03	2.225450E-15	1.858342E-15
4.167200E+03	2.252939E-15	1.623050E-15
4.176400E+03	2.090893E-15	8.258251E-16
4.185600E+03	1.883661E-15	1.579963E-15
4.204000E+03	1.935147E-15	1.596841E-15
4.213200E+03	1.482299E-15	1.247555E-15
4.222400E+03	1.511750E-15	1.312497E-15
4.231600E+03	1.725407E-15	1.278437E-15
4.240800E+03	2.054916E-15	5.420412E-16
4.250000E+03	2.396340E-15	8.203402E-16
4.259200E+03	2.577432E-15	9.162093E-16
4.268400E+03	2.607961E-15	8.311232E-16
4.277600E+03	2.684835E-15	8.386200E-16
4.286800E+03	2.740185E-15	5.684229E-16
4.296000E+03	2.878403E-15	7.132678E-16
4.305200E+03	2.863450E-15	5.228164E-16
4.314400E+03	3.011918E-15	5.561628E-16
4.323600E+03	2.779906E-15	6.626246E-16
4.332800E+03	2.611970E-15	6.839976E-16
4.342000E+03	2.453143E-15	3.350547E-16
4.351200E+03	2.365999E-15	4.042166E-16
4.360400E+03	2.243924E-15	4.109323E-16
4.369600E+03	2.316514E-15	3.186651E-16
4.378800E+03	2.263216E-15	2.506232E-16
4.388000E+03	2.168387E-15	4.548777E-16
4.397200E+03	2.084266E-15	6.532619E-16
4.406400E+03	1.926693E-15	7.872230E-16
4.415600E+03	1.775837E-15	8.152874E-16
4.424800E+03	1.662297E-15	8.021855E-16
4.434000E+03	1.548766E-15	5.628371E-16
4.443200E+03	1.501879E-15	5.951138E-16
4.452400E+03	1.528777E-15	3.034984E-16
4.461600E+03	1.595776E-15	3.064118E-16
4.470800E+03	1.740311E-15	2.433125E-16
4.480000E+03	1.896097E-15	4.296084E-16
4.489200E+03	2.024216E-15	3.942282E-16
4.498400E+03	2.097877E-15	5.379567E-16
4.507600E+03	2.185884E-15	4.112766E-16
4.516800E+03	2.363964E-15	5.013465E-16
4.526000E+03	2.503706E-15	7.160344E-16
4.535200E+03	2.583100E-15	7.455827E-16
4.544400E+03	2.686705E-15	3.950720E-16
4.553600E+03	2.752395E-15	3.988215E-16
4.562800E+03	2.786554E-15	5.403025E-16
4.572000E+03	2.872523E-15	4.107670E-16
4.581200E+03	2.936593E-15	2.638360E-16
4.590400E+03	3.069138E-15	1.284591E-16
4.599600E+03	3.178635E-15	4.776954E-16
4.608800E+03	3.279198E-15	4.701933E-16
4.618000E+03	3.320714E-15	4.405601E-16
4.627200E+03	3.210015E-15	3.860913E-16
4.636400E+03	3.021199E-15	4.002190E-16
4.645600E+03	2.740372E-15	2.468031E-16
4.654800E+03	2.536815E-15	1.428179E-16
4.664000E+03	2.355925E-15	2.496288E-16
4.673200E+03	2.193532E-15	2.526384E-16
4.682400E+03	2.048749E-15	3.095461E-16
4.691600E+03	1.900124E-15	3.146974E-16
4.700800E+03	1.769672E-15	2.385508E-16
4.710000E+03	1.670300E-15	2.675390E-16
4.719200E+03	1.571135E-15	3.099113E-16
4.728400E+03	1.636639E-15	2.829067E-16
4.737600E+03	1.762861E-15	3.013633E-16
4.746800E+03	1.860919E-15	3.020259E-16
4.756000E+03	2.061722E-15	2.656960E-16
4.765200E+03	2.221061E-15	2.228012E-16
4.774400E+03	2.321263E-15	2.023210E-16
4.783600E+03	2.355162E-15	1.502290E-16
4.792800E+03	2.430324E-15	1.190791E-16
4.802000E+03	2.406711E-15	2.195611E-16
4.811200E+03	2.386453E-15	2.133344E-16
4.820400E+03	2.343080E-15	1.891917E-16
4.829600E+03	2.302000E-15	2.751378E-16
4.838800E+03	2.295326E-15	2.489900E-16
4.848000E+03	2.252959E-15	2.783301E-16
4.857200E+03	2.295263E-15	2.804841E-16
4.866400E+03	2.331498E-15	2.884473E-16
4.875600E+03	2.396772E-15	2.848614E-16
4.884800E+03	2.473387E-15	2.943676E-16
4.894000E+03	2.509391E-15	2.918712E-16
4.903200E+03	2.508225E-15	2.762635E-16
4.912400E+03	2.515929E-15	3.120916E-16
4.921600E+03	2.445664E-15	2.395561E-16
4.930800E+03	2.446856E-15	1.996237E-16
4.940000E+03	2.466744E-15	2.065050E-16
4.949200E+03	2.482153E-15	1.702505E-16
4.958400E+03	2.630091E-15	1.296857E-16
4.967600E+03	2.758375E-15	1.744871E-16
4.976800E+03	2.855181E-15	1.728446E-16
4.986000E+03	2.987515E-15	1.716219E-16
4.995200E+03	3.142684E-15	1.941328E-16
5.004400E+03	3.166256E-15	2.180696E-16
5.013600E+03	3.157211E-15	2.227169E-16
5.022800E+03	3.069152E-15	2.238744E-16
5.032000E+03	2.924187E-15	2.880360E-16
5.041200E+03	2.796360E-15	1.677453E-16
5.050400E+03	2.613323E-15	1.788562E-16
5.059600E+03	2.464368E-15	1.881468E-16
5.068800E+03	2.339489E-15	1.827848E-16
5.078000E+03	2.271607E-15	1.532497E-16
5.087200E+03	2.245393E-15	1.698833E-16
5.096400E+03	2.284083E-15	1.901806E-16
5.105600E+03	2.354248E-15	1.914378E-16
5.114800E+03	2.471367E-15	1.904175E-16
5.124000E+03	2.563362E-15	1.772143E-16
5.133200E+03	2.664921E-15	1.620039E-16
5.142400E+03	2.749877E-15	1.296801E-16
5.151600E+03	2.797893E-15	1.415657E-16
5.160800E+03	2.846282E-15	1.364735E-16
5.170000E+03	2.834206E-15	1.560370E-16
5.179200E+03	2.813181E-15	1.501448E-16
5.188400E+03	2.804334E-15	1.568117E-16
5.197600E+03	2.768518E-15	1.275654E-16
5.206800E+03	2.732027E-15	1.176036E-16
5.216000E+03	2.695172E-15	1.025330E-16
5.225200E+03	2.687307E-15	9.733855E-17
5.234400E+03	2.715197E-15	1.032992E-16
5.243600E+03	2.762890E-15	7.223147E-17
5.252800E+03	2.841869E-15	1.293910E-16
5.262000E+03	2.925173E-15	1.290106E-16
5.271200E+03	3.043860E-15	1.563150E-16
5.280400E+03	3.125827E-15	1.541323E-16
5.289600E+03	3.218873E-15	2.043079E-16
5.298800E+03	3.329089E-15	2.239118E-16
5.308000E+03	3.408138E-15	2.251233E-16
5.317200E+03	3.495845E-15	2.111889E-16
5.326400E+03	3.586405E-15	2.266572E-16
5.335600E+03	3.643017E-15	2.071606E-16
5.344800E+03	3.698966E-15	1.635746E-16
5.354000E+03	3.727536E-15	1.745526E-16
5.363200E+03	3.755245E-15	1.853299E-16
5.372400E+03	3.755501E-15	1.543298E-16
5.381600E+03	3.768422E-15	1.211738E-16
5.390800E+03	3.756444E-15	1.220770E-16
5.400000E+03	3.692439E-15	9.329077E-17
5.409200E+03	3.633601E-15	8.798414E-17
5.418400E+03	3.535606E-15	8.304359E-17
5.427600E+03	3.485041E-15	8.292108E-17
5.436800E+03	3.418693E-15	1.512239E-16
5.446000E+03	3.357496E-15	1.479922E-16
5.455200E+03	3.350226E-15	1.317366E-16
5.464400E+03	3.313682E-15	1.463760E-16
5.473600E+03	3.289381E-15	1.781768E-16
5.482800E+03	3.254904E-15	1.203597E-16
5.492000E+03	3.277126E-15	1.206895E-16
5.501200E+03	3.315789E-15	1.262481E-16
5.510400E+03	3.316988E-15	1.316510E-16
5.519600E+03	3.364459E-15	8.451874E-17
5.528800E+03	3.391200E-15	7.915671E-17
5.538000E+03	3.391691E-15	1.430824E-16
5.547200E+03	3.350537E-15	1.706639E-16
5.556400E+03	3.313437E-15	1.563569E-16
5.565600E+03	3.294762E-15	2.010504E-16
5.574800E+03	3.259720E-15	1.962572E-16
5.584000E+03	3.229795E-15	1.930366E-16
5.593200E+03	3.185642E-15	2.000255E-16
5.602400E+03	3.113742E-15	2.074607E-16
5.611600E+03	3.054669E-15	1.950211E-16
5.620800E+03	3.012181E-15	2.009682E-16
5.630000E+03	3.012901E-15	2.128283E-16
5.639200E+03	3.000270E-15	1.671410E-16
5.648400E+03	2.984021E-15	1.616431E-16
5.657600E+03	2.967199E-15	1.544782E-16
5.666800E+03	2.956076E-15	1.454436E-16
5.676000E+03	2.897409E-15	1.248705E-16
5.685200E+03	2.811985E-15	1.167273E-16
5.694400E+03	2.728656E-15	1.262572E-16
5.703600E+03	2.616190E-15	1.620742E-16
5.712800E+03	2.465584E-15	1.719880E-16
5.722000E+03	2.317857E-15	1.581302E-16
5.731200E+03	2.175865E-15	1.634751E-16
5.740400E+03	2.032740E-15	1.958808E-16
5.749600E+03	1.888803E-15	1.665775E-16
5.758800E+03	1.820449E-15	1.493109E-16
5.768000E+03	1.812315E-15	1.413453E-16
5.777200E+03	1.851942E-15	1.145453E-16
5.786400E+03	1.901277E-15	7.710447E-17
5.795600E+03	2.019238E-15	1.302068E-16
5.804800E+03	2.141904E-15	1.357973E-16
5.814000E+03	2.302184E-15	1.331856E-16
5.823200E+03	2.461221E-15	1.308725E-16
5.832400E+03	2.645213E-15	1.484913E-16
5.841600E+03	2.772101E-15	1.205182E-16
5.850800E+03	2.870595E-15	1.255809E-16
5.860000E+03	2.928712E-15	1.659310E-16
5.869200E+03	3.005252E-15	2.131693E-16
5.878400E+03	3.033685E-15	2.079722E-16
5.887600E+03	3.052327E-15	2.128985E-16
5.896800E+03	3.063276E-15	2.080952E-16
5.906000E+03	3.046199E-15	1.498681E-16
5.915200E+03	3.038214E-15	1.292810E-16
5.924400E+03	2.998453E-15	1.284224E-16
5.933600E+03	2.975680E-15	1.061576E-16
5.942800E+03	2.935083E-15	1.191971E-16
5.952000E+03	2.871115E-15	1.142352E-16
5.961200E+03	2.810948E-15	9.898869E-17
5.970400E+03	2.770543E-15	9.748622E-17
5.979600E+03	2.718737E-15	1.131623E-16
5.988800E+03	2.627513E-15	1.102443E-16
5.998000E+03	2.576592E-15	1.082334E-16
6.007200E+03	2.524385E-15	1.038538E-16
6.016400E+03	2.486569E-15	1.005632E-16
6.025600E+03	2.451561E-15	1.010881E-16
6.034800E+03	2.411688E-15	9.017248E-17
6.044000E+03	2.366099E-15	9.797058E-17
6.053200E+03	2.324512E-15	9.208289E-17
6.062400E+03	2.290077E-15	9.125992E-17
6.071600E+03	2.272549E-15	8.392262E-17
6.080800E+03	2.261517E-15	9.072095E-17
6.090000E+03	2.257842E-15	8.803025E-17
6.099200E+03	2.252317E-15	8.554255E-17
6.108400E+03	2.229138E-15	1.179615E-16
6.117600E+03	2.227226E-15	1.124136E-16
6.126800E+03	2.205334E-15	8.961798E-17
6.136000E+03	2.196074E-15	9.031138E-17
6.145200E+03	2.168140E-15	8.755405E-17
6.154400E+03	2.131284E-15	5.929263E-17
6.163600E+03	2.089326E-15	5.776011E-17
6.172800E+03	2.065331E-15	5.184798E-17
6.182000E+03	2.026569E-15	5.192114E-17
6.191200E+03	1.979912E-15	5.333967E-17
6.200400E+03	1.930143E-15	6.603261E-17
6.209600E+03	1.880261E-15	6.677593E-17
6.218800E+03	1.806618E-15	9.744083E-17
6.228000E+03	1.723661E-15	9.742087E-17
6.237200E+03	1.600753E-15	8.250755E-17
6.246400E+03	1.474660E-15	9.003888E-17
6.255600E+03	1.327581E-15	8.521654E-17
6.264800E+03	1.190823E-15	5.927879E-17
6.274000E+03	1.060591E-15	5.764421E-17
6.283200E+03	9.445218E-16	4.625396E-17
6.292400E+03	8.381699E-16	5.928530E-17
6.301600E+03	7.623085E-16	6.144057E-17
6.310800E+03	7.034604E-16	5.694008E-17
6.320000E+03	6.704477E-16	4.820420E-17
6.329200E+03	6.553174E-16	3.210011E-17
6.338400E+03	6.750271E-16	7.540998E-17
6.347600E+03	7.089327E-16	7.847021E-17
6.356800E+03	7.582049E-16	6.542643E-17
6.366000E+03	8.197457E-16	6.738180E-17
6.375200E+03	8.856766E-16	5.944878E-17
6.384400E+03	9.633601E-16	5.837846E-17
6.393600E+03	1.077175E-15	5.694374E-17
6.402800E+03	1.213444E-15	7.102230E-17
6.412000E+03	1.370422E-15	8.854594E-17
6.421200E+03	1.528132E-15	1.071070E-16
6.430400E+03	1.682385E-15	1.065162E-16
6.439600E+03	1.827719E-15	1.116652E-16
6.448800E+03	1.954030E-15	1.483845E-16
6.458000E+03	2.072318E-15	1.420093E-16
6.467200E+03	2.181302E-15	1.382060E-16
6.476400E+03	2.279235E-15	1.539677E-16
6.485600E+03	2.347704E-15	1.591466E-16
6.494800E+03	2.398179E-15	1.269531E-16
6.504000E+03	2.424639E-15	1.394432E-16
6.513200E+03	2.418976E-15	1.427342E-16
6.522400E+03	2.388719E-15	1.424205E-16
6.531600E+03	2.346718E-15	1.445378E-16
6.540800E+03	2.307767E-15	1.450137E-16
6.550000E+03	2.277047E-15	1.531450E-16
6.559200E+03	2.231338E-15	1.497783E-16
6.568400E+03	2.202058E-15	1.341752E-16
6.577600E+03	2.187929E-15	1.399911E-16
6.586800E+03	2.162404E-15	1.417732E-16
6.596000E+03	2.165077E-15	1.380878E-16
6.605200E+03	2.182612E-15	1.409829E-16
6.614400E+03	2.231580E-15	1.459407E-16
6.623600E+03	2.287758E-15	1.504636E-16
6.632800E+03	2.335128E-15	1.597843E-16
6.642000E+03	2.385005E-15	1.724060E-16
6.651200E+03	2.410580E-15	1.819830E-16
6.660400E+03	2.438654E-15	2.135459E-16
6.669600E+03	2.438048E-15	2.150542E-16
6.678800E+03	2.432852E-15	2.139395E-16
6.688000E+03	2.402199E-15	2.133415E-16
6.697200E+03	2.364054E-15	2.026528E-16
6.706400E+03	2.322196E-15	1.764192E-16
6.715600E+03	2.283837E-15	1.773073E-16
6.724800E+03	2.236655E-15	1.730038E-16
6.734000E+03	2.196792E-15	1.690561E-16
6.743200E+03	2.168602E-15	1.711108E-16
6.752400E+03	2.138665E-15	1.693459E-16
6.761600E+03	2.102598E-15	1.698338E-16
6.770800E+03	2.078357E-15	1.686255E-16
6.780000E+03	2.061104E-15	1.700031E-16
6.789200E+03	2.029471E-15	1.694157E-16
6.798400E+03	1.998087E-15	1.689323E-16
6.807600E+03	1.965510E-15	1.636515E-16
6.816800E+03	1.937171E-15	1.603561E-16
6.826000E+03	1.886368E-15	1.561010E-16
6.835200E+03	1.832176E-15	1.524206E-16
6.844400E+03	1.779671E-15	1.490035E-16
6.853600E+03	1.741374E-15	1.432438E-16
6.862800E+03	1.710558E-15	1.543345E-16
6.872000E+03	1.671587E-15	1.513483E-16
6.881200E+03	1.628120E-15	1.487633E-16
6.890400E+03	1.568023E-15	1.456149E-16
6.899600E+03	1.504907E-15	1.560836E-16
6.908800E+03	1.465244E-15	1.390781E-16
6.918000E+03	1.420232E-15	1.349851E-16
6.927200E+03	1.367960E-15	1.512396E-16
6.936400E+03	1.337591E-15	1.489076E-16
6.945600E+03	1.318985E-15	1.277222E-16
6.954800E+03	1.316693E-15	1.296557E-16
6.964000E+03	1.331410E-15	1.346809E-16
6.973200E+03	1.344200E-15	1.159470E-16
6.982400E+03	1.358335E-15	1.212585E-16
6.991600E+03	1.397134E-15	1.291810E-16
7.000800E+03	1.430151E-15	1.309279E-16
7.010000E+03	1.482314E-15	1.337728E-16
7.019200E+03	1.519208E-15	1.355250E-16
7.028400E+03	1.540539E-15	1.320138E-16
7.037600E+03	1.561719E-15	1.261938E-16
7.046800E+03	1.564819E-15	1.293881E-16
7.056000E+03	1.575108E-15	1.292314E-16
7.065200E+03	1.569108E-15	1.285596E-16
7.074400E+03	1.563589E-15	1.256743E-16
7.083600E+03	1.562681E-15	1.260104E-16
7.092800E+03	1.543184E-15	1.196126E-16
7.102000E+03	1.533176E-15	1.184356E-16
7.111200E+03	1.522403E-15	1.168082E-16
7.120400E+03	1.498368E-15	1.169629E-16
7.129600E+03	1.457289E-15	1.146384E-16
7.138800E+03	1.409252E-15	1.168049E-16
7.148000E+03	1.367886E-15	1.126064E-16
7.157200E+03	1.334300E-15	1.181403E-16
7.166400E+03	1.303304E-15	1.133723E-16
7.175600E+03	1.266336E-15	1.161721E-16
7.184800E+03	1.246162E-15	9.913952E-17
7.194000E+03	1.232494E-15	9.729395E-17
7.203200E+03	1.215918E-15	1.031366E-16
7.212400E+03	1.211147E-15	1.044645E-16
7.221600E+03	1.217522E-15	9.342197E-17
7.230800E+03	1.222009E-15	9.301306E-17
7.240000E+03	1.233960E-15	9.077728E-17
7.249200E+03	1.247205E-15	7.977767E-17
7.258400E+03	1.250894E-15	7.823545E-17
7.267600E+03	1.239856E-15	7.429473E-17
7.276800E+03	1.248959E-15	7.532956E-17
7.286000E+03	1.255773E-15	7.255341E-17
7.295200E+03	1.244905E-15	7.617714E-17
7.304400E+03	1.251150E-15	7.633571E-17
7.313600E+03	1.248430E-15	7.496577E-17
7.322800E+03	1.258709E-15	7.160189E-17
7.332000E+03	1.258398E-15	7.556752E-17
7.341200E+03	1.232110E-15	6.059743E-17
7.350400E+03	1.219636E-15	7.054296E-17
7.359600E+03	1.205318E-15	7.962037E-17
7.368800E+03	1.181026E-15	8.053573E-17
7.378000E+03	1.164582E-15	7.840264E-17
7.387200E+03	1.157057E-15	7.794805E-17
7.396400E+03	1.146506E-15	7.542755E-17
7.405600E+03	1.139324E-15	6.260903E-17
7.414800E+03	1.144102E-15	8.949950E-17
7.424000E+03	1.151439E-15	8.910216E-17
7.433200E+03	1.152010E-15	8.959177E-17
7.442400E+03	1.140539E-15	7.208340E-17
7.451600E+03	1.137477E-15	7.687474E-17
7.460800E+03	1.135848E-15	5.290463E-17
7.470000E+03	1.134752E-15	5.562827E-17
7.479200E+03	1.145467E-15	6.464737E-17
7.488400E+03	1.150292E-15	5.853949E-17
