#wls	flux	fluxerr
1.600000E+03	9.549161E-16	7.624896E-16
1.640000E+03	9.916385E-16	7.855473E-16
1.680000E+03	1.030753E-15	8.098210E-16
1.720000E+03	1.072583E-15	8.354880E-16
1.760000E+03	1.117034E-15	8.623918E-16
1.800000E+03	1.164636E-15	8.908501E-16
1.840000E+03	1.215283E-15	9.206819E-16
1.880000E+03	1.269395E-15	9.520960E-16
1.920000E+03	1.327173E-15	9.851226E-16
1.960000E+03	1.388589E-15	1.019613E-15
2.000000E+03	1.454040E-15	1.055719E-15
2.040000E+03	1.523582E-15	1.093332E-15
2.080000E+03	1.597253E-15	1.132317E-15
2.120000E+03	1.675068E-15	1.172521E-15
2.160000E+03	1.756797E-15	1.213609E-15
2.200000E+03	1.841730E-15	1.254924E-15
2.240000E+03	1.928785E-15	1.295577E-15
2.280000E+03	2.017184E-15	1.334919E-15
2.320000E+03	2.107023E-15	1.372899E-15
2.360000E+03	2.199621E-15	1.410241E-15
2.400000E+03	2.295930E-15	1.447380E-15
2.440000E+03	2.396866E-15	1.484682E-15
2.480000E+03	2.502728E-15	1.522091E-15
2.520000E+03	2.613989E-15	1.559631E-15
2.560000E+03	2.730715E-15	1.597060E-15
2.600000E+03	2.853130E-15	1.634216E-15
2.640000E+03	2.981041E-15	1.670682E-15
2.680000E+03	3.114179E-15	1.706002E-15
2.720000E+03	3.252190E-15	1.739682E-15
2.760000E+03	3.394309E-15	1.771025E-15
2.800000E+03	3.539697E-15	1.799333E-15
2.840000E+03	3.687334E-15	1.823863E-15
2.880000E+03	3.836346E-15	1.843998E-15
2.920000E+03	3.986200E-15	1.859332E-15
2.960000E+03	4.136677E-15	1.869637E-15
3.000000E+03	4.288036E-15	1.874914E-15
3.010000E+03	4.326063E-15	1.875455E-15
3.020000E+03	4.364095E-15	1.875651E-15
3.030000E+03	4.402305E-15	1.875575E-15
3.040000E+03	4.440469E-15	1.875129E-15
3.050000E+03	4.478757E-15	1.874383E-15
3.060000E+03	4.517141E-15	1.873324E-15
3.070000E+03	4.555689E-15	1.871978E-15
3.080000E+03	4.594178E-15	1.870251E-15
3.090000E+03	4.632868E-15	1.868248E-15
3.100000E+03	4.671537E-15	1.865877E-15
3.110000E+03	4.710344E-15	1.863201E-15
3.120000E+03	4.749257E-15	1.860206E-15
3.130000E+03	4.788150E-15	1.856840E-15
3.140000E+03	4.827176E-15	1.853162E-15
3.150000E+03	4.866209E-15	1.849123E-15
3.160000E+03	4.905308E-15	1.844743E-15
3.170000E+03	4.944437E-15	1.840010E-15
3.180000E+03	4.983562E-15	1.834909E-15
3.190000E+03	5.022736E-15	1.829460E-15
3.200000E+03	5.061923E-15	1.823650E-15
3.210000E+03	5.100997E-15	1.817434E-15
3.220000E+03	5.140099E-15	1.810863E-15
3.230000E+03	5.179102E-15	1.803892E-15
3.240000E+03	5.218056E-15	1.796541E-15
3.250000E+03	5.256922E-15	1.788797E-15
3.260000E+03	5.295575E-15	1.780620E-15
3.270000E+03	5.334149E-15	1.772058E-15
3.280000E+03	5.372434E-15	1.763045E-15
3.290000E+03	5.410560E-15	1.753625E-15
3.300000E+03	5.448488E-15	1.743791E-15
3.310000E+03	5.486012E-15	1.733480E-15
3.320000E+03	5.523260E-15	1.722740E-15
3.330000E+03	5.560192E-15	1.711562E-15
3.340000E+03	5.596688E-15	1.699915E-15
3.350000E+03	5.632712E-15	1.687797E-15
3.360000E+03	5.668226E-15	1.675204E-15
3.370000E+03	5.703195E-15	1.662134E-15
3.380000E+03	5.737583E-15	1.648585E-15
3.390000E+03	5.771354E-15	1.634558E-15
3.400000E+03	5.804398E-15	1.620031E-15
3.410000E+03	5.836609E-15	1.604988E-15
3.420000E+03	5.868104E-15	1.589474E-15
3.430000E+03	5.898631E-15	1.573433E-15
3.440000E+03	5.928236E-15	1.556893E-15
3.450000E+03	5.956821E-15	1.539844E-15
3.460000E+03	5.984361E-15	1.522295E-15
3.470000E+03	6.010691E-15	1.504224E-15
3.480000E+03	6.035723E-15	1.485626E-15
3.490000E+03	6.059442E-15	1.466520E-15
3.500000E+03	6.081697E-15	1.446889E-15
3.510000E+03	6.102479E-15	1.426755E-15
3.520000E+03	6.121513E-15	1.406079E-15
3.530000E+03	6.138800E-15	1.384886E-15
3.540000E+03	6.154148E-15	1.363162E-15
3.550000E+03	6.167437E-15	1.340909E-15
3.560000E+03	6.178557E-15	1.318137E-15
3.570000E+03	6.187276E-15	1.294828E-15
3.580000E+03	6.193627E-15	1.271025E-15
3.590000E+03	6.197457E-15	1.246732E-15
3.600000E+03	6.198625E-15	1.221960E-15
3.610000E+03	6.197180E-15	1.196756E-15
3.620000E+03	6.192933E-15	1.171123E-15
3.630000E+03	6.185828E-15	1.145091E-15
3.640000E+03	6.175814E-15	1.118693E-15
3.650000E+03	6.162848E-15	1.091963E-15
3.660000E+03	6.146893E-15	1.064936E-15
3.670000E+03	6.127919E-15	1.037651E-15
3.680000E+03	6.105959E-15	1.010154E-15
3.690000E+03	6.081049E-15	9.824952E-16
3.700000E+03	6.053174E-15	9.547126E-16
3.710000E+03	6.022539E-15	9.268793E-16
3.720000E+03	5.989083E-15	8.990248E-16
3.730000E+03	5.952957E-15	8.712105E-16
3.740000E+03	5.914212E-15	8.434807E-16
3.750000E+03	5.872950E-15	8.158855E-16
3.760000E+03	5.829374E-15	7.884867E-16
3.770000E+03	5.783435E-15	7.613100E-16
3.780000E+03	5.735337E-15	7.344129E-16
3.790000E+03	5.685227E-15	7.078433E-16
3.800000E+03	5.633113E-15	6.816288E-16
3.810000E+03	5.579191E-15	6.558189E-16
3.820000E+03	5.523606E-15	6.304539E-16
3.830000E+03	5.466412E-15	6.055613E-16
3.840000E+03	5.407709E-15	5.811723E-16
3.850000E+03	5.347728E-15	5.573295E-16
3.860000E+03	5.286479E-15	5.340498E-16
3.870000E+03	5.224144E-15	5.113658E-16
3.880000E+03	5.160818E-15	4.892989E-16
3.890000E+03	5.096637E-15	4.678723E-16
3.900000E+03	5.031736E-15	4.471063E-16
3.910000E+03	4.966166E-15	4.270120E-16
3.920000E+03	4.900061E-15	4.076054E-16
3.930000E+03	4.833590E-15	3.889030E-16
3.940000E+03	4.766844E-15	3.709122E-16
3.950000E+03	4.699913E-15	3.536383E-16
3.960000E+03	4.632926E-15	3.370869E-16
3.970000E+03	4.565974E-15	3.212587E-16
3.980000E+03	4.499186E-15	3.061540E-16
3.990000E+03	4.432691E-15	2.917706E-16
4.000000E+03	4.366619E-15	2.781027E-16
4.010000E+03	4.301035E-15	2.651375E-16
4.020000E+03	4.236079E-15	2.528630E-16
4.030000E+03	4.171895E-15	2.412638E-16
4.040000E+03	4.108635E-15	2.303203E-16
4.050000E+03	4.046420E-15	2.200077E-16
4.060000E+03	3.985382E-15	2.102982E-16
4.070000E+03	3.925681E-15	2.011629E-16
4.080000E+03	3.867450E-15	1.925691E-16
4.090000E+03	3.810846E-15	1.844845E-16
4.100000E+03	3.755993E-15	1.768744E-16
4.110000E+03	3.703036E-15	1.697055E-16
4.120000E+03	3.652084E-15	1.629433E-16
4.130000E+03	3.603237E-15	1.565545E-16
4.140000E+03	3.556614E-15	1.505079E-16
4.150000E+03	3.512295E-15	1.447723E-16
4.160000E+03	3.470378E-15	1.393193E-16
4.170000E+03	3.430898E-15	1.341198E-16
4.180000E+03	3.393932E-15	1.291488E-16
4.190000E+03	3.359494E-15	1.243806E-16
4.200000E+03	3.327668E-15	1.197945E-16
4.210000E+03	3.298449E-15	1.153683E-16
4.220000E+03	3.271873E-15	1.110838E-16
4.230000E+03	3.247892E-15	1.069218E-16
4.240000E+03	3.226551E-15	1.028684E-16
4.250000E+03	3.207784E-15	9.890874E-17
4.260000E+03	3.191619E-15	9.503290E-17
4.270000E+03	3.177977E-15	9.123024E-17
4.280000E+03	3.166795E-15	8.749341E-17
4.290000E+03	3.158078E-15	8.381992E-17
4.300000E+03	3.151703E-15	8.020733E-17
4.310000E+03	3.147661E-15	7.666062E-17
4.320000E+03	3.145817E-15	7.318686E-17
4.330000E+03	3.146155E-15	6.980242E-17
4.340000E+03	3.148577E-15	6.652951E-17
4.350000E+03	3.152981E-15	6.339929E-17
4.360000E+03	3.159306E-15	6.045384E-17
4.370000E+03	3.167457E-15	5.774496E-17
4.380000E+03	3.177375E-15	5.533464E-17
4.390000E+03	3.188912E-15	5.328961E-17
4.400000E+03	3.202000E-15	5.167855E-17
4.410000E+03	3.216498E-15	5.056043E-17
4.420000E+03	3.232239E-15	4.997427E-17
4.430000E+03	3.249029E-15	4.991631E-17
4.440000E+03	3.266670E-15	5.032699E-17
4.450000E+03	3.284883E-15	5.111836E-17
4.460000E+03	3.303412E-15	5.219224E-17
4.470000E+03	3.321940E-15	5.345030E-17
4.480000E+03	3.340123E-15	5.480270E-17
4.490000E+03	3.357562E-15	5.617230E-17
4.500000E+03	3.373863E-15	5.749748E-17
4.510000E+03	3.388592E-15	5.873129E-17
4.520000E+03	3.401373E-15	5.984181E-17
4.530000E+03	3.411757E-15	6.080821E-17
4.540000E+03	3.419383E-15	6.162117E-17
4.550000E+03	3.423940E-15	6.227971E-17
4.560000E+03	3.425128E-15	6.278769E-17
4.570000E+03	3.422821E-15	6.315387E-17
4.580000E+03	3.416910E-15	6.338665E-17
4.590000E+03	3.407456E-15	6.349507E-17
4.600000E+03	3.394573E-15	6.348572E-17
4.610000E+03	3.378579E-15	6.336509E-17
4.620000E+03	3.359830E-15	6.313688E-17
4.630000E+03	3.338741E-15	6.280284E-17
4.640000E+03	3.315854E-15	6.236483E-17
4.650000E+03	3.291756E-15	6.182395E-17
4.660000E+03	3.267029E-15	6.118013E-17
4.670000E+03	3.242228E-15	6.043201E-17
4.680000E+03	3.218002E-15	5.957942E-17
4.690000E+03	3.194901E-15	5.861997E-17
4.700000E+03	3.173365E-15	5.754925E-17
4.710000E+03	3.153819E-15	5.636348E-17
4.720000E+03	3.136616E-15	5.505934E-17
4.730000E+03	3.121944E-15	5.363355E-17
4.740000E+03	3.109996E-15	5.208708E-17
4.750000E+03	3.100827E-15	5.042394E-17
4.760000E+03	3.094466E-15	4.865440E-17
4.770000E+03	3.090836E-15	4.679510E-17
4.780000E+03	3.089745E-15	4.487088E-17
4.790000E+03	3.090981E-15	4.291823E-17
4.800000E+03	3.094193E-15	4.098590E-17
4.810000E+03	3.099022E-15	3.913861E-17
4.820000E+03	3.104991E-15	3.745609E-17
4.830000E+03	3.111617E-15	3.603155E-17
4.840000E+03	3.118402E-15	3.496310E-17
4.850000E+03	3.124893E-15	3.433899E-17
4.860000E+03	3.130632E-15	3.421221E-17
4.870000E+03	3.135356E-15	3.455239E-17
4.880000E+03	3.138921E-15	3.526022E-17
4.890000E+03	3.141340E-15	3.621698E-17
4.900000E+03	3.142589E-15	3.730523E-17
4.910000E+03	3.142715E-15	3.842399E-17
4.920000E+03	3.141757E-15	3.949425E-17
4.930000E+03	3.139830E-15	4.046092E-17
4.940000E+03	3.136996E-15	4.128936E-17
4.950000E+03	3.133356E-15	4.196348E-17
4.960000E+03	3.129059E-15	4.248250E-17
4.970000E+03	3.124218E-15	4.285649E-17
4.980000E+03	3.119010E-15	4.310427E-17
4.990000E+03	3.113624E-15	4.324921E-17
5.000000E+03	3.108354E-15	4.331698E-17
5.010000E+03	3.103508E-15	4.333087E-17
5.020000E+03	3.099400E-15	4.330890E-17
5.030000E+03	3.096396E-15	4.326268E-17
5.040000E+03	3.094864E-15	4.319657E-17
5.050000E+03	3.095120E-15	4.310807E-17
5.060000E+03	3.097499E-15	4.299111E-17
5.070000E+03	3.102259E-15	4.283745E-17
5.080000E+03	3.109538E-15	4.263920E-17
5.090000E+03	3.119509E-15	4.239331E-17
5.100000E+03	3.132257E-15	4.210154E-17
5.110000E+03	3.147782E-15	4.177103E-17
5.120000E+03	3.166060E-15	4.141449E-17
5.130000E+03	3.187014E-15	4.104823E-17
5.140000E+03	3.210519E-15	4.068983E-17
5.150000E+03	3.236376E-15	4.035545E-17
5.160000E+03	3.264407E-15	4.005917E-17
5.170000E+03	3.294307E-15	3.981002E-17
5.180000E+03	3.325831E-15	3.961414E-17
5.190000E+03	3.358640E-15	3.947362E-17
5.200000E+03	3.392384E-15	3.938863E-17
5.210000E+03	3.426668E-15	3.935777E-17
5.220000E+03	3.461047E-15	3.937799E-17
5.230000E+03	3.494952E-15	3.944305E-17
5.240000E+03	3.527905E-15	3.954484E-17
5.250000E+03	3.559291E-15	3.966976E-17
5.260000E+03	3.588521E-15	3.979980E-17
5.270000E+03	3.614993E-15	3.991177E-17
5.280000E+03	3.638197E-15	3.997874E-17
5.290000E+03	3.657717E-15	3.997127E-17
5.300000E+03	3.673258E-15	3.986026E-17
5.310000E+03	3.684672E-15	3.962096E-17
5.320000E+03	3.691929E-15	3.923746E-17
5.330000E+03	3.695266E-15	3.870898E-17
5.340000E+03	3.694930E-15	3.805118E-17
5.350000E+03	3.691377E-15	3.730125E-17
5.360000E+03	3.685260E-15	3.651858E-17
5.370000E+03	3.677173E-15	3.578071E-17
5.380000E+03	3.667919E-15	3.518069E-17
5.390000E+03	3.658204E-15	3.481464E-17
5.400000E+03	3.648776E-15	3.476832E-17
5.410000E+03	3.639990E-15	3.507160E-17
5.420000E+03	3.631771E-15	3.567258E-17
5.430000E+03	3.623780E-15	3.649279E-17
5.440000E+03	3.615696E-15	3.745299E-17
5.450000E+03	3.607050E-15	3.848130E-17
5.460000E+03	3.597463E-15	3.952002E-17
5.470000E+03	3.586483E-15	4.052430E-17
5.480000E+03	3.573674E-15	4.146143E-17
5.490000E+03	3.558705E-15	4.230932E-17
5.500000E+03	3.541183E-15	4.305214E-17
5.510000E+03	3.520808E-15	4.367976E-17
5.520000E+03	3.497387E-15	4.418605E-17
5.530000E+03	3.470732E-15	4.456631E-17
5.540000E+03	3.440846E-15	4.481890E-17
5.550000E+03	3.407675E-15	4.494212E-17
5.560000E+03	3.371423E-15	4.493876E-17
5.570000E+03	3.332267E-15	4.481292E-17
5.580000E+03	3.290455E-15	4.457166E-17
5.590000E+03	3.246333E-15	4.422540E-17
5.600000E+03	3.200299E-15	4.378726E-17
5.610000E+03	3.152767E-15	4.327221E-17
5.620000E+03	3.104286E-15	4.269836E-17
5.630000E+03	3.055311E-15	4.208325E-17
5.640000E+03	3.006453E-15	4.144656E-17
5.650000E+03	2.958219E-15	4.080585E-17
5.660000E+03	2.911254E-15	4.017910E-17
5.670000E+03	2.866150E-15	3.958149E-17
5.680000E+03	2.823469E-15	3.902540E-17
5.690000E+03	2.783819E-15	3.852141E-17
5.700000E+03	2.747751E-15	3.807721E-17
5.710000E+03	2.715804E-15	3.769882E-17
5.720000E+03	2.688428E-15	3.739032E-17
5.730000E+03	2.665972E-15	3.715443E-17
5.740000E+03	2.648778E-15	3.699442E-17
5.750000E+03	2.637020E-15	3.691208E-17
5.760000E+03	2.630725E-15	3.690764E-17
5.770000E+03	2.629838E-15	3.698015E-17
5.780000E+03	2.634158E-15	3.712595E-17
5.790000E+03	2.643315E-15	3.733779E-17
5.800000E+03	2.656776E-15	3.760472E-17
5.810000E+03	2.673942E-15	3.791361E-17
5.820000E+03	2.694115E-15	3.824899E-17
5.830000E+03	2.716496E-15	3.859354E-17
5.840000E+03	2.740206E-15	3.892898E-17
5.850000E+03	2.764409E-15	3.923830E-17
5.860000E+03	2.788252E-15	3.950534E-17
5.870000E+03	2.810952E-15	3.971657E-17
5.880000E+03	2.831758E-15	3.986110E-17
5.890000E+03	2.849974E-15	3.993146E-17
5.900000E+03	2.865069E-15	3.992515E-17
5.910000E+03	2.876566E-15	3.984270E-17
5.920000E+03	2.884249E-15	3.968946E-17
5.930000E+03	2.887842E-15	3.946994E-17
5.940000E+03	2.887335E-15	3.919091E-17
5.950000E+03	2.882847E-15	3.885845E-17
5.960000E+03	2.874546E-15	3.847649E-17
5.970000E+03	2.862729E-15	3.804817E-17
5.980000E+03	2.847798E-15	3.757642E-17
5.990000E+03	2.830136E-15	3.706342E-17
6.000000E+03	2.810206E-15	3.651304E-17
6.010000E+03	2.788370E-15	3.592900E-17
6.020000E+03	2.765082E-15	3.531761E-17
6.030000E+03	2.740612E-15	3.468366E-17
6.040000E+03	2.715276E-15	3.403272E-17
6.050000E+03	2.689135E-15	3.336634E-17
6.060000E+03	2.662300E-15	3.268513E-17
6.070000E+03	2.634670E-15	3.198509E-17
6.080000E+03	2.606054E-15	3.125909E-17
6.090000E+03	2.576093E-15	3.049641E-17
6.100000E+03	2.544454E-15	2.968638E-17
6.110000E+03	2.510582E-15	2.881734E-17
6.120000E+03	2.474037E-15	2.788334E-17
6.130000E+03	2.434236E-15	2.688405E-17
6.140000E+03	2.390730E-15	2.583073E-17
6.150000E+03	2.343135E-15	2.474716E-17
6.160000E+03	2.291232E-15	2.367089E-17
6.170000E+03	2.234892E-15	2.265017E-17
6.180000E+03	2.174276E-15	2.174051E-17
6.190000E+03	2.109747E-15	2.099481E-17
6.200000E+03	2.041927E-15	2.045231E-17
6.210000E+03	1.971810E-15	2.011631E-17
6.220000E+03	1.900843E-15	1.994804E-17
6.230000E+03	1.830546E-15	1.989751E-17
6.240000E+03	1.762312E-15	1.991710E-17
6.250000E+03	1.697418E-15	1.996885E-17
6.260000E+03	1.636964E-15	2.002662E-17
6.270000E+03	1.581837E-15	2.007543E-17
6.280000E+03	1.532754E-15	2.011025E-17
6.290000E+03	1.490241E-15	2.013316E-17
6.300000E+03	1.454679E-15	2.015139E-17
6.310000E+03	1.426349E-15	2.017574E-17
6.320000E+03	1.405397E-15	2.021825E-17
6.330000E+03	1.391933E-15	2.029209E-17
6.340000E+03	1.385948E-15	2.040941E-17
6.350000E+03	1.387412E-15	2.058200E-17
6.360000E+03	1.396229E-15	2.082005E-17
6.370000E+03	1.412262E-15	2.113234E-17
6.380000E+03	1.435279E-15	2.152519E-17
6.390000E+03	1.464998E-15	2.200327E-17
6.400000E+03	1.501042E-15	2.256896E-17
6.410000E+03	1.542929E-15	2.322236E-17
6.420000E+03	1.590109E-15	2.396193E-17
6.430000E+03	1.641966E-15	2.478456E-17
6.440000E+03	1.697798E-15	2.568523E-17
6.450000E+03	1.756830E-15	2.665711E-17
6.460000E+03	1.818250E-15	2.769203E-17
6.470000E+03	1.881210E-15	2.878035E-17
6.480000E+03	1.944810E-15	2.991070E-17
6.490000E+03	2.008126E-15	3.107016E-17
6.500000E+03	2.070346E-15	3.224646E-17
6.510000E+03	2.130649E-15	3.342595E-17
6.520000E+03	2.188247E-15	3.459422E-17
6.530000E+03	2.242499E-15	3.573798E-17
6.540000E+03	2.292821E-15	3.684381E-17
6.550000E+03	2.338689E-15	3.789841E-17
6.560000E+03	2.379709E-15	3.889005E-17
6.570000E+03	2.415656E-15	3.980966E-17
6.580000E+03	2.446201E-15	4.064661E-17
6.590000E+03	2.471288E-15	4.139511E-17
6.600000E+03	2.490859E-15	4.204986E-17
6.610000E+03	2.504840E-15	4.260572E-17
6.620000E+03	2.513380E-15	4.306173E-17
6.630000E+03	2.516523E-15	4.341542E-17
6.640000E+03	2.514527E-15	4.366839E-17
6.650000E+03	2.507532E-15	4.382057E-17
6.660000E+03	2.495848E-15	4.387534E-17
6.670000E+03	2.479779E-15	4.383675E-17
6.680000E+03	2.459623E-15	4.370948E-17
6.690000E+03	2.435743E-15	4.350028E-17
6.700000E+03	2.408567E-15	4.321773E-17
6.710000E+03	2.378452E-15	4.286978E-17
6.720000E+03	2.345802E-15	4.246551E-17
6.730000E+03	2.311023E-15	4.201409E-17
6.740000E+03	2.274512E-15	4.152440E-17
6.750000E+03	2.236655E-15	4.100480E-17
6.760000E+03	2.197826E-15	4.046297E-17
6.770000E+03	2.158337E-15	3.990512E-17
6.780000E+03	2.118560E-15	3.933809E-17
6.790000E+03	2.078806E-15	3.876724E-17
6.800000E+03	2.039324E-15	3.819648E-17
6.810000E+03	2.000417E-15	3.763037E-17
6.820000E+03	1.962288E-15	3.707137E-17
6.830000E+03	1.925154E-15	3.652189E-17
6.840000E+03	1.889205E-15	3.598365E-17
6.850000E+03	1.854607E-15	3.545778E-17
6.860000E+03	1.821533E-15	3.494551E-17
6.870000E+03	1.790030E-15	3.444580E-17
6.880000E+03	1.760217E-15	3.395938E-17
6.890000E+03	1.732157E-15	3.348626E-17
6.900000E+03	1.705854E-15	3.302582E-17
6.910000E+03	1.681349E-15	3.257871E-17
6.920000E+03	1.658626E-15	3.214489E-17
6.930000E+03	1.637615E-15	3.172374E-17
6.940000E+03	1.618254E-15	3.131522E-17
6.950000E+03	1.600488E-15	3.091986E-17
6.960000E+03	1.584184E-15	3.053693E-17
6.970000E+03	1.569221E-15	3.016626E-17
6.980000E+03	1.555465E-15	2.980754E-17
6.990000E+03	1.542772E-15	2.946030E-17
7.000000E+03	1.530962E-15	2.912331E-17
7.010000E+03	1.519944E-15	2.879683E-17
7.020000E+03	1.509508E-15	2.847865E-17
7.030000E+03	1.499544E-15	2.816809E-17
7.040000E+03	1.489889E-15	2.786318E-17
7.050000E+03	1.480429E-15	2.756243E-17
7.060000E+03	1.471090E-15	2.726480E-17
7.070000E+03	1.461762E-15	2.696818E-17
7.080000E+03	1.452351E-15	2.667051E-17
7.090000E+03	1.442870E-15	2.637145E-17
7.100000E+03	1.433263E-15	2.606918E-17
7.110000E+03	1.423491E-15	2.576203E-17
7.120000E+03	1.413588E-15	2.544946E-17
7.130000E+03	1.403544E-15	2.512987E-17
7.140000E+03	1.393417E-15	2.480267E-17
7.150000E+03	1.383217E-15	2.446617E-17
7.160000E+03	1.373014E-15	2.411959E-17
7.170000E+03	1.362797E-15	2.376072E-17
7.180000E+03	1.352638E-15	2.338906E-17
7.190000E+03	1.342607E-15	2.300445E-17
7.200000E+03	1.332683E-15	2.260590E-17
7.210000E+03	1.322897E-15	2.219417E-17
7.220000E+03	1.313299E-15	2.177137E-17
7.230000E+03	1.303906E-15	2.133999E-17
7.240000E+03	1.294697E-15	2.090289E-17
7.250000E+03	1.285702E-15	2.046442E-17
7.260000E+03	1.276889E-15	2.002842E-17
7.270000E+03	1.268252E-15	1.959933E-17
7.280000E+03	1.259806E-15	1.918199E-17
7.290000E+03	1.251513E-15	1.878047E-17
7.300000E+03	1.243389E-15	1.839980E-17
7.310000E+03	1.235394E-15	1.804443E-17
7.320000E+03	1.227523E-15	1.771950E-17
7.330000E+03	1.219824E-15	1.743101E-17
7.340000E+03	1.212240E-15	1.718323E-17
7.350000E+03	1.204825E-15	1.698130E-17
7.360000E+03	1.197552E-15	1.682807E-17
7.370000E+03	1.190450E-15	1.672554E-17
7.380000E+03	1.183545E-15	1.667381E-17
7.390000E+03	1.176809E-15	1.667017E-17
7.400000E+03	1.170289E-15	1.671086E-17
7.410000E+03	1.163978E-15	1.678922E-17
7.420000E+03	1.157892E-15	1.689694E-17
7.430000E+03	1.152013E-15	1.702367E-17
7.440000E+03	1.146323E-15	1.715804E-17
7.450000E+03	1.140828E-15	1.728886E-17
7.460000E+03	1.135451E-15	1.740421E-17
7.470000E+03	1.130170E-15	1.749408E-17
7.480000E+03	1.124934E-15	1.754946E-17
7.490000E+03	1.119747E-15	1.756387E-17
7.500000E+03	1.114561E-15	1.753168E-17
7.510000E+03	1.109328E-15	1.744895E-17
7.520000E+03	1.104029E-15	1.731374E-17
7.530000E+03	1.098643E-15	1.712576E-17
7.540000E+03	1.093124E-15	1.688608E-17
7.550000E+03	1.087474E-15	1.659875E-17
7.560000E+03	1.081615E-15	1.626943E-17
7.570000E+03	1.075572E-15	1.590901E-17
7.580000E+03	1.069285E-15	1.553177E-17
7.590000E+03	1.062720E-15	1.515762E-17
7.600000E+03	1.055815E-15	1.481164E-17
7.610000E+03	1.048561E-15	1.452433E-17
7.620000E+03	1.040925E-15	1.432847E-17
7.630000E+03	1.032879E-15	1.425571E-17
7.640000E+03	1.024378E-15	1.433103E-17
7.650000E+03	1.015448E-15	1.456263E-17
7.660000E+03	1.006101E-15	1.493617E-17
7.670000E+03	9.964272E-16	1.542903E-17
7.680000E+03	9.863995E-16	1.601314E-17
7.690000E+03	9.761404E-16	1.666288E-17
7.700000E+03	9.656734E-16	1.735374E-17
7.710000E+03	9.550214E-16	1.806503E-17
7.720000E+03	9.442540E-16	1.878121E-17
7.730000E+03	9.334132E-16	1.949047E-17
7.740000E+03	9.225378E-16	2.018465E-17
7.750000E+03	9.116628E-16	2.085877E-17
7.760000E+03	9.008426E-16	2.151103E-17
