#wls	flux	fluxerr
1.600000E+03	1.018939E-15	8.153348E-16
1.640000E+03	1.059515E-15	8.411575E-16
1.680000E+03	1.102824E-15	8.684098E-16
1.720000E+03	1.148973E-15	8.970920E-16
1.760000E+03	1.198167E-15	9.272737E-16
1.800000E+03	1.250712E-15	9.590917E-16
1.840000E+03	1.306490E-15	9.923460E-16
1.880000E+03	1.365897E-15	1.027223E-15
1.920000E+03	1.429005E-15	1.063649E-15
1.960000E+03	1.495874E-15	1.101535E-15
2.000000E+03	1.566438E-15	1.140690E-15
2.040000E+03	1.640724E-15	1.180988E-15
2.080000E+03	1.718519E-15	1.222124E-15
2.120000E+03	1.799372E-15	1.263628E-15
2.160000E+03	1.883134E-15	1.305248E-15
2.200000E+03	1.969195E-15	1.346418E-15
2.240000E+03	2.057028E-15	1.386645E-15
2.280000E+03	2.146306E-15	1.425585E-15
2.320000E+03	2.236895E-15	1.463033E-15
2.360000E+03	2.328974E-15	1.498983E-15
2.400000E+03	2.422803E-15	1.533474E-15
2.440000E+03	2.518617E-15	1.566512E-15
2.480000E+03	2.616943E-15	1.598270E-15
2.520000E+03	2.717942E-15	1.628674E-15
2.560000E+03	2.821949E-15	1.657737E-15
2.600000E+03	2.928924E-15	1.685241E-15
2.640000E+03	3.038887E-15	1.710996E-15
2.680000E+03	3.151591E-15	1.734660E-15
2.720000E+03	3.266739E-15	1.755875E-15
2.760000E+03	3.383983E-15	1.774268E-15
2.800000E+03	3.502822E-15	1.789405E-15
2.840000E+03	3.622710E-15	1.800857E-15
2.880000E+03	3.743261E-15	1.808303E-15
2.920000E+03	3.863837E-15	1.811331E-15
2.960000E+03	3.984255E-15	1.809774E-15
3.000000E+03	4.103977E-15	1.803329E-15
3.010000E+03	4.133872E-15	1.800982E-15
3.020000E+03	4.163636E-15	1.798288E-15
3.030000E+03	4.193253E-15	1.795241E-15
3.040000E+03	4.222897E-15	1.791915E-15
3.050000E+03	4.252457E-15	1.788264E-15
3.060000E+03	4.281916E-15	1.784279E-15
3.070000E+03	4.311351E-15	1.779993E-15
3.080000E+03	4.340651E-15	1.775361E-15
3.090000E+03	4.369802E-15	1.770378E-15
3.100000E+03	4.398968E-15	1.765110E-15
3.110000E+03	4.427949E-15	1.759477E-15
3.120000E+03	4.456820E-15	1.753511E-15
3.130000E+03	4.485474E-15	1.747169E-15
3.140000E+03	4.514160E-15	1.740553E-15
3.150000E+03	4.542594E-15	1.733550E-15
3.160000E+03	4.570848E-15	1.726192E-15
3.170000E+03	4.598991E-15	1.718507E-15
3.180000E+03	4.627005E-15	1.710488E-15
3.190000E+03	4.654698E-15	1.702068E-15
3.200000E+03	4.682313E-15	1.693337E-15
3.210000E+03	4.709659E-15	1.684229E-15
3.220000E+03	4.736804E-15	1.674770E-15
3.230000E+03	4.763645E-15	1.664929E-15
3.240000E+03	4.790251E-15	1.654732E-15
3.250000E+03	4.816602E-15	1.644175E-15
3.260000E+03	4.842682E-15	1.633258E-15
3.270000E+03	4.868391E-15	1.621951E-15
3.280000E+03	4.893794E-15	1.610280E-15
3.290000E+03	4.918875E-15	1.598245E-15
3.300000E+03	4.943537E-15	1.585818E-15
3.310000E+03	4.967845E-15	1.573028E-15
3.320000E+03	4.991703E-15	1.559850E-15
3.330000E+03	5.015175E-15	1.546310E-15
3.340000E+03	5.038169E-15	1.532385E-15
3.350000E+03	5.060670E-15	1.518080E-15
3.360000E+03	5.082665E-15	1.503398E-15
3.370000E+03	5.104141E-15	1.488343E-15
3.380000E+03	5.125087E-15	1.472919E-15
3.390000E+03	5.145414E-15	1.457112E-15
3.400000E+03	5.165187E-15	1.440948E-15
3.410000E+03	5.184247E-15	1.424393E-15
3.420000E+03	5.202734E-15	1.407496E-15
3.430000E+03	5.220491E-15	1.390225E-15
3.440000E+03	5.237512E-15	1.372590E-15
3.450000E+03	5.253792E-15	1.354602E-15
3.460000E+03	5.269253E-15	1.336254E-15
3.470000E+03	5.283964E-15	1.317576E-15
3.480000E+03	5.297849E-15	1.298562E-15
3.490000E+03	5.310839E-15	1.279210E-15
3.500000E+03	5.322932E-15	1.259533E-15
3.510000E+03	5.334062E-15	1.239532E-15
3.520000E+03	5.344299E-15	1.219239E-15
3.530000E+03	5.353446E-15	1.198624E-15
3.540000E+03	5.361575E-15	1.177722E-15
3.550000E+03	5.368629E-15	1.156538E-15
3.560000E+03	5.374615E-15	1.135092E-15
3.570000E+03	5.379415E-15	1.113377E-15
3.580000E+03	5.382979E-15	1.091402E-15
3.590000E+03	5.385386E-15	1.069206E-15
3.600000E+03	5.386464E-15	1.046773E-15
3.610000E+03	5.386294E-15	1.024142E-15
3.620000E+03	5.384834E-15	1.001326E-15
3.630000E+03	5.381986E-15	9.783291E-16
3.640000E+03	5.377715E-15	9.551691E-16
3.650000E+03	5.372049E-15	9.318745E-16
3.660000E+03	5.364897E-15	9.084540E-16
3.670000E+03	5.356351E-15	8.849476E-16
3.680000E+03	5.346269E-15	8.613566E-16
3.690000E+03	5.334686E-15	8.377126E-16
3.700000E+03	5.321584E-15	8.140382E-16
3.710000E+03	5.306999E-15	7.903651E-16
3.720000E+03	5.290861E-15	7.667088E-16
3.730000E+03	5.273212E-15	7.431016E-16
3.740000E+03	5.254040E-15	7.195683E-16
3.750000E+03	5.233389E-15	6.961413E-16
3.760000E+03	5.211250E-15	6.728453E-16
3.770000E+03	5.187669E-15	6.497124E-16
3.780000E+03	5.162640E-15	6.267677E-16
3.790000E+03	5.136160E-15	6.040367E-16
3.800000E+03	5.108376E-15	5.815624E-16
3.810000E+03	5.079187E-15	5.593580E-16
3.820000E+03	5.048690E-15	5.374596E-16
3.830000E+03	5.016982E-15	5.159017E-16
3.840000E+03	4.984015E-15	4.947033E-16
3.850000E+03	4.949837E-15	4.738934E-16
3.860000E+03	4.914545E-15	4.535043E-16
3.870000E+03	4.878187E-15	4.335632E-16
3.880000E+03	4.840811E-15	4.140962E-16
3.890000E+03	4.802420E-15	3.951254E-16
3.900000E+03	4.763110E-15	3.766794E-16
3.910000E+03	4.722928E-15	3.587822E-16
3.920000E+03	4.681925E-15	3.414568E-16
3.930000E+03	4.640152E-15	3.247253E-16
3.940000E+03	4.597661E-15	3.086081E-16
3.950000E+03	4.554549E-15	2.931274E-16
3.960000E+03	4.510871E-15	2.783002E-16
3.970000E+03	4.466645E-15	2.641391E-16
3.980000E+03	4.422013E-15	2.506618E-16
3.990000E+03	4.377003E-15	2.378756E-16
4.000000E+03	4.331725E-15	2.257889E-16
4.010000E+03	4.286257E-15	2.144039E-16
4.020000E+03	4.240648E-15	2.037167E-16
4.030000E+03	4.195075E-15	1.937236E-16
4.040000E+03	4.149624E-15	1.844091E-16
4.050000E+03	4.104468E-15	1.757558E-16
4.060000E+03	4.059756E-15	1.677391E-16
4.070000E+03	4.015650E-15	1.603295E-16
4.080000E+03	3.972322E-15	1.534936E-16
4.090000E+03	3.929979E-15	1.471967E-16
4.100000E+03	3.888763E-15	1.413996E-16
4.110000E+03	3.848850E-15	1.360639E-16
4.120000E+03	3.810477E-15	1.311539E-16
4.130000E+03	3.773745E-15	1.266302E-16
4.140000E+03	3.738846E-15	1.224593E-16
4.150000E+03	3.705935E-15	1.186081E-16
4.160000E+03	3.675156E-15	1.150458E-16
4.170000E+03	3.646647E-15	1.117437E-16
4.180000E+03	3.620528E-15	1.086744E-16
4.190000E+03	3.596906E-15	1.058104E-16
4.200000E+03	3.575868E-15	1.031254E-16
4.210000E+03	3.557487E-15	1.005961E-16
4.220000E+03	3.541816E-15	9.820124E-17
4.230000E+03	3.528862E-15	9.592138E-17
4.240000E+03	3.518647E-15	9.374003E-17
4.250000E+03	3.511199E-15	9.164201E-17
4.260000E+03	3.506506E-15	8.961311E-17
4.270000E+03	3.504485E-15	8.764023E-17
4.280000E+03	3.505148E-15	8.571505E-17
4.290000E+03	3.508469E-15	8.383138E-17
4.300000E+03	3.514421E-15	8.198644E-17
4.310000E+03	3.522980E-15	8.018077E-17
4.320000E+03	3.534086E-15	7.841805E-17
4.330000E+03	3.547770E-15	7.670766E-17
4.340000E+03	3.563938E-15	7.505935E-17
4.350000E+03	3.582611E-15	7.348940E-17
4.360000E+03	3.603731E-15	7.201634E-17
4.370000E+03	3.627249E-15	7.066157E-17
4.380000E+03	3.653056E-15	6.944799E-17
4.390000E+03	3.681037E-15	6.839974E-17
4.400000E+03	3.711001E-15	6.753774E-17
4.410000E+03	3.742768E-15	6.687874E-17
4.420000E+03	3.776037E-15	6.642953E-17
4.430000E+03	3.810441E-15	6.618525E-17
4.440000E+03	3.845614E-15	6.613004E-17
4.450000E+03	3.881052E-15	6.623625E-17
4.460000E+03	3.916216E-15	6.646940E-17
4.470000E+03	3.950534E-15	6.679311E-17
4.480000E+03	3.983267E-15	6.716955E-17
4.490000E+03	4.013725E-15	6.756432E-17
4.500000E+03	4.041141E-15	6.794759E-17
4.510000E+03	4.064697E-15	6.829384E-17
4.520000E+03	4.083609E-15	6.858042E-17
4.530000E+03	4.097129E-15	6.878995E-17
4.540000E+03	4.104595E-15	6.891038E-17
4.550000E+03	4.105483E-15	6.893166E-17
4.560000E+03	4.099378E-15	6.884623E-17
4.570000E+03	4.086082E-15	6.864621E-17
4.580000E+03	4.065793E-15	6.831976E-17
4.590000E+03	4.038774E-15	6.785321E-17
4.600000E+03	4.005494E-15	6.723998E-17
4.610000E+03	3.966644E-15	6.648217E-17
4.620000E+03	3.922997E-15	6.558946E-17
4.630000E+03	3.875304E-15	6.457683E-17
4.640000E+03	3.824631E-15	6.346773E-17
4.650000E+03	3.771819E-15	6.228504E-17
4.660000E+03	3.717969E-15	6.105446E-17
4.670000E+03	3.664107E-15	5.979341E-17
4.680000E+03	3.611237E-15	5.851553E-17
4.690000E+03	3.560284E-15	5.722896E-17
4.700000E+03	3.512095E-15	5.593177E-17
4.710000E+03	3.467470E-15	5.461943E-17
4.720000E+03	3.426957E-15	5.328596E-17
4.730000E+03	3.390971E-15	5.192550E-17
4.740000E+03	3.359809E-15	5.053554E-17
4.750000E+03	3.333513E-15	4.911520E-17
4.760000E+03	3.312118E-15	4.766746E-17
4.770000E+03	3.295318E-15	4.619853E-17
4.780000E+03	3.282857E-15	4.472596E-17
4.790000E+03	3.274291E-15	4.327514E-17
4.800000E+03	3.269011E-15	4.188221E-17
4.810000E+03	3.266422E-15	4.059343E-17
4.820000E+03	3.265839E-15	3.945738E-17
4.830000E+03	3.266455E-15	3.852595E-17
4.840000E+03	3.267596E-15	3.785396E-17
4.850000E+03	3.268648E-15	3.748603E-17
4.860000E+03	3.269097E-15	3.744389E-17
4.870000E+03	3.268588E-15	3.771097E-17
4.880000E+03	3.266893E-15	3.822472E-17
4.890000E+03	3.263835E-15	3.889656E-17
4.900000E+03	3.259438E-15	3.963662E-17
4.910000E+03	3.253729E-15	4.036450E-17
4.920000E+03	3.246920E-15	4.101937E-17
4.930000E+03	3.239259E-15	4.156056E-17
4.940000E+03	3.231012E-15	4.196603E-17
4.950000E+03	3.222559E-15	4.223235E-17
4.960000E+03	3.214261E-15	4.236907E-17
4.970000E+03	3.206603E-15	4.239549E-17
4.980000E+03	3.200045E-15	4.233849E-17
4.990000E+03	3.195109E-15	4.223116E-17
5.000000E+03	3.192313E-15	4.210715E-17
5.010000E+03	3.192277E-15	4.200126E-17
5.020000E+03	3.195456E-15	4.193988E-17
5.030000E+03	3.202293E-15	4.193510E-17
5.040000E+03	3.213193E-15	4.199000E-17
5.050000E+03	3.228405E-15	4.209835E-17
5.060000E+03	3.248071E-15	4.224151E-17
5.070000E+03	3.272225E-15	4.239672E-17
5.080000E+03	3.300821E-15	4.254356E-17
5.090000E+03	3.333692E-15	4.266408E-17
5.100000E+03	3.370620E-15	4.274745E-17
5.110000E+03	3.411348E-15	4.279091E-17
5.120000E+03	3.455441E-15	4.279571E-17
5.130000E+03	3.502529E-15	4.277209E-17
5.140000E+03	3.552000E-15	4.273283E-17
5.150000E+03	3.603384E-15	4.269183E-17
5.160000E+03	3.656053E-15	4.266246E-17
5.170000E+03	3.709384E-15	4.265305E-17
5.180000E+03	3.762775E-15	4.265594E-17
5.190000E+03	3.815570E-15	4.265834E-17
5.200000E+03	3.867100E-15	4.265153E-17
5.210000E+03	3.916628E-15	4.262952E-17
5.220000E+03	3.963496E-15	4.259738E-17
5.230000E+03	4.006818E-15	4.256667E-17
5.240000E+03	4.045868E-15	4.255135E-17
5.250000E+03	4.079896E-15	4.256925E-17
5.260000E+03	4.108218E-15	4.263236E-17
5.270000E+03	4.130201E-15	4.272826E-17
5.280000E+03	4.145468E-15	4.283602E-17
5.290000E+03	4.153735E-15	4.292872E-17
5.300000E+03	4.155013E-15	4.296690E-17
5.310000E+03	4.149472E-15	4.291342E-17
5.320000E+03	4.137544E-15	4.274284E-17
5.330000E+03	4.119740E-15	4.243571E-17
5.340000E+03	4.096796E-15	4.199025E-17
5.350000E+03	4.069522E-15	4.142208E-17
5.360000E+03	4.038919E-15	4.075799E-17
5.370000E+03	4.005855E-15	4.003813E-17
5.380000E+03	3.971328E-15	3.931533E-17
5.390000E+03	3.936180E-15	3.864025E-17
5.400000E+03	3.901083E-15	3.806261E-17
5.410000E+03	3.866383E-15	3.762768E-17
5.420000E+03	3.832259E-15	3.737165E-17
5.430000E+03	3.798668E-15	3.732233E-17
5.440000E+03	3.765274E-15	3.748660E-17
5.450000E+03	3.731832E-15	3.783981E-17
5.460000E+03	3.697951E-15	3.834500E-17
5.470000E+03	3.663310E-15	3.896237E-17
5.480000E+03	3.627802E-15	3.964172E-17
5.490000E+03	3.591200E-15	4.033431E-17
5.500000E+03	3.553461E-15	4.100151E-17
5.510000E+03	3.514533E-15	4.160555E-17
5.520000E+03	3.474516E-15	4.211931E-17
5.530000E+03	3.433367E-15	4.252498E-17
5.540000E+03	3.391193E-15	4.281205E-17
5.550000E+03	3.348064E-15	4.297787E-17
5.560000E+03	3.304176E-15	4.302742E-17
5.570000E+03	3.259621E-15	4.296380E-17
5.580000E+03	3.214579E-15	4.279504E-17
5.590000E+03	3.169219E-15	4.253341E-17
5.600000E+03	3.123804E-15	4.219295E-17
5.610000E+03	3.078517E-15	4.178970E-17
5.620000E+03	3.033630E-15	4.134276E-17
5.630000E+03	2.989448E-15	4.086941E-17
5.640000E+03	2.946265E-15	4.038758E-17
5.650000E+03	2.904424E-15	3.991629E-17
5.660000E+03	2.864247E-15	3.947081E-17
5.670000E+03	2.826126E-15	3.906688E-17
5.680000E+03	2.790460E-15	3.871835E-17
5.690000E+03	2.757629E-15	3.843259E-17
5.700000E+03	2.728001E-15	3.821482E-17
5.710000E+03	2.701906E-15	3.806824E-17
5.720000E+03	2.679679E-15	3.799136E-17
5.730000E+03	2.661481E-15	3.797988E-17
5.740000E+03	2.647504E-15	3.803134E-17
5.750000E+03	2.637774E-15	3.814028E-17
5.760000E+03	2.632190E-15	3.830129E-17
5.770000E+03	2.630613E-15	3.851069E-17
5.780000E+03	2.632790E-15	3.876373E-17
5.790000E+03	2.638320E-15	3.905492E-17
5.800000E+03	2.646739E-15	3.937798E-17
5.810000E+03	2.657561E-15	3.972325E-17
5.820000E+03	2.670119E-15	4.007776E-17
5.830000E+03	2.683813E-15	4.042835E-17
5.840000E+03	2.698025E-15	4.075753E-17
5.850000E+03	2.712150E-15	4.104745E-17
5.860000E+03	2.725648E-15	4.128192E-17
5.870000E+03	2.737959E-15	4.144350E-17
5.880000E+03	2.748702E-15	4.151962E-17
5.890000E+03	2.757465E-15	4.150101E-17
5.900000E+03	2.763940E-15	4.138291E-17
5.910000E+03	2.767890E-15	4.116583E-17
5.920000E+03	2.769146E-15	4.085503E-17
5.930000E+03	2.767652E-15	4.045887E-17
5.940000E+03	2.763329E-15	3.998750E-17
5.950000E+03	2.756225E-15	3.945262E-17
5.960000E+03	2.746496E-15	3.886304E-17
5.970000E+03	2.734317E-15	3.822668E-17
5.980000E+03	2.719837E-15	3.754977E-17
5.990000E+03	2.703363E-15	3.683627E-17
6.000000E+03	2.685055E-15	3.608780E-17
6.010000E+03	2.665242E-15	3.530874E-17
6.020000E+03	2.644030E-15	3.449785E-17
6.030000E+03	2.621577E-15	3.365561E-17
6.040000E+03	2.598007E-15	3.278287E-17
6.050000E+03	2.573302E-15	3.187603E-17
6.060000E+03	2.547402E-15	3.093198E-17
6.070000E+03	2.520101E-15	2.994697E-17
6.080000E+03	2.491220E-15	2.891561E-17
6.090000E+03	2.460361E-15	2.783369E-17
6.100000E+03	2.427228E-15	2.670492E-17
6.110000E+03	2.391403E-15	2.553764E-17
6.120000E+03	2.352466E-15	2.435103E-17
6.130000E+03	2.310063E-15	2.317567E-17
6.140000E+03	2.263935E-15	2.204966E-17
6.150000E+03	2.213871E-15	2.101975E-17
6.160000E+03	2.159836E-15	2.013083E-17
6.170000E+03	2.102043E-15	1.940936E-17
6.180000E+03	2.040799E-15	1.886920E-17
6.190000E+03	1.976723E-15	1.851122E-17
6.200000E+03	1.910667E-15	1.831237E-17
6.210000E+03	1.843679E-15	1.823664E-17
6.220000E+03	1.776886E-15	1.824455E-17
6.230000E+03	1.711488E-15	1.829784E-17
6.240000E+03	1.648668E-15	1.836660E-17
6.250000E+03	1.589456E-15	1.843100E-17
6.260000E+03	1.534763E-15	1.848020E-17
6.270000E+03	1.485319E-15	1.851222E-17
6.280000E+03	1.441712E-15	1.853309E-17
6.290000E+03	1.404360E-15	1.855353E-17
6.300000E+03	1.373561E-15	1.858796E-17
6.310000E+03	1.349512E-15	1.865189E-17
6.320000E+03	1.332279E-15	1.875861E-17
6.330000E+03	1.321817E-15	1.892016E-17
6.340000E+03	1.318056E-15	1.914792E-17
6.350000E+03	1.320841E-15	1.944953E-17
6.360000E+03	1.329928E-15	1.983065E-17
6.370000E+03	1.345097E-15	2.029713E-17
6.380000E+03	1.366038E-15	2.085234E-17
6.390000E+03	1.392392E-15	2.149878E-17
6.400000E+03	1.423755E-15	2.223807E-17
6.410000E+03	1.459708E-15	2.307025E-17
6.420000E+03	1.499714E-15	2.399296E-17
6.430000E+03	1.543244E-15	2.500348E-17
6.440000E+03	1.589687E-15	2.609585E-17
6.450000E+03	1.638386E-15	2.726230E-17
6.460000E+03	1.688674E-15	2.849394E-17
6.470000E+03	1.739855E-15	2.977918E-17
6.480000E+03	1.791253E-15	3.110550E-17
6.490000E+03	1.842117E-15	3.245786E-17
6.500000E+03	1.891844E-15	3.382158E-17
6.510000E+03	1.939814E-15	3.518067E-17
6.520000E+03	1.985419E-15	3.651871E-17
6.530000E+03	2.028174E-15	3.782042E-17
6.540000E+03	2.067626E-15	3.907106E-17
6.550000E+03	2.103388E-15	4.025731E-17
6.560000E+03	2.135141E-15	4.136696E-17
6.570000E+03	2.162671E-15	4.239044E-17
6.580000E+03	2.185762E-15	4.331893E-17
6.590000E+03	2.204299E-15	4.414562E-17
6.600000E+03	2.218267E-15	4.486656E-17
6.610000E+03	2.227673E-15	4.547929E-17
6.620000E+03	2.232546E-15	4.598192E-17
6.630000E+03	2.233036E-15	4.637593E-17
6.640000E+03	2.229269E-15	4.666300E-17
6.650000E+03	2.221524E-15	4.684798E-17
6.660000E+03	2.209964E-15	4.693395E-17
6.670000E+03	2.194860E-15	4.692666E-17
6.680000E+03	2.176544E-15	4.683311E-17
6.690000E+03	2.155329E-15	4.666025E-17
6.700000E+03	2.131499E-15	4.641484E-17
6.710000E+03	2.105386E-15	4.610432E-17
6.720000E+03	2.077357E-15	4.573716E-17
6.730000E+03	2.047700E-15	4.532027E-17
6.740000E+03	2.016768E-15	4.486158E-17
6.750000E+03	1.984793E-15	4.436639E-17
6.760000E+03	1.952133E-15	4.384294E-17
6.770000E+03	1.918991E-15	4.329548E-17
6.780000E+03	1.885688E-15	4.273105E-17
6.790000E+03	1.852388E-15	4.215322E-17
6.800000E+03	1.819341E-15	4.156713E-17
6.810000E+03	1.786740E-15	4.097676E-17
6.820000E+03	1.754727E-15	4.038502E-17
6.830000E+03	1.723488E-15	3.979558E-17
6.840000E+03	1.693125E-15	3.921032E-17
6.850000E+03	1.663786E-15	3.863228E-17
6.860000E+03	1.635502E-15	3.806173E-17
6.870000E+03	1.608411E-15	3.750160E-17
6.880000E+03	1.582538E-15	3.695250E-17
6.890000E+03	1.557921E-15	3.641533E-17
6.900000E+03	1.534553E-15	3.589019E-17
6.910000E+03	1.512493E-15	3.537908E-17
6.920000E+03	1.491643E-15	3.488015E-17
6.930000E+03	1.472059E-15	3.439546E-17
6.940000E+03	1.453640E-15	3.392362E-17
6.950000E+03	1.436331E-15	3.346423E-17
6.960000E+03	1.420094E-15	3.301744E-17
6.970000E+03	1.404823E-15	3.258204E-17
6.980000E+03	1.390437E-15	3.215712E-17
6.990000E+03	1.376848E-15	3.174170E-17
7.000000E+03	1.363966E-15	3.133480E-17
7.010000E+03	1.351704E-15	3.093510E-17
7.020000E+03	1.339949E-15	3.054070E-17
7.030000E+03	1.328674E-15	3.015157E-17
7.040000E+03	1.317728E-15	2.976449E-17
7.050000E+03	1.307125E-15	2.937995E-17
7.060000E+03	1.296731E-15	2.899509E-17
7.070000E+03	1.286555E-15	2.860987E-17
7.080000E+03	1.276537E-15	2.822276E-17
7.090000E+03	1.266651E-15	2.783300E-17
7.100000E+03	1.256909E-15	2.744031E-17
7.110000E+03	1.247256E-15	2.704297E-17
7.120000E+03	1.237721E-15	2.664102E-17
7.130000E+03	1.228292E-15	2.623324E-17
7.140000E+03	1.219012E-15	2.581953E-17
7.150000E+03	1.209902E-15	2.539924E-17
7.160000E+03	1.200963E-15	2.497085E-17
7.170000E+03	1.192246E-15	2.453391E-17
7.180000E+03	1.183727E-15	2.408655E-17
7.190000E+03	1.175476E-15	2.362871E-17
7.200000E+03	1.167490E-15	2.315918E-17
7.210000E+03	1.159761E-15	2.267726E-17
7.220000E+03	1.152324E-15	2.218354E-17
7.230000E+03	1.145189E-15	2.167877E-17
7.240000E+03	1.138338E-15	2.116399E-17
7.250000E+03	1.131773E-15	2.064107E-17
7.260000E+03	1.125494E-15	2.011256E-17
7.270000E+03	1.119500E-15	1.958135E-17
7.280000E+03	1.113784E-15	1.905022E-17
7.290000E+03	1.108294E-15	1.852164E-17
7.300000E+03	1.103069E-15	1.800021E-17
7.310000E+03	1.098074E-15	1.748943E-17
7.320000E+03	1.093272E-15	1.699377E-17
7.330000E+03	1.088672E-15	1.651953E-17
7.340000E+03	1.084215E-15	1.607251E-17
7.350000E+03	1.079887E-15	1.566058E-17
7.360000E+03	1.075671E-15	1.529299E-17
7.370000E+03	1.071532E-15	1.497912E-17
7.380000E+03	1.067474E-15	1.472944E-17
7.390000E+03	1.063417E-15	1.455182E-17
7.400000E+03	1.059397E-15	1.445168E-17
7.410000E+03	1.055361E-15	1.442983E-17
7.420000E+03	1.051329E-15	1.448254E-17
7.430000E+03	1.047287E-15	1.459698E-17
7.440000E+03	1.043246E-15	1.475660E-17
7.450000E+03	1.039239E-15	1.494430E-17
7.460000E+03	1.035245E-15	1.514156E-17
7.470000E+03	1.031334E-15	1.533279E-17
7.480000E+03	1.027454E-15	1.550364E-17
7.490000E+03	1.023638E-15	1.564365E-17
7.500000E+03	1.019848E-15	1.574426E-17
7.510000E+03	1.016129E-15	1.580067E-17
7.520000E+03	1.012436E-15	1.580811E-17
7.530000E+03	1.008744E-15	1.576426E-17
7.540000E+03	1.005046E-15	1.566979E-17
7.550000E+03	1.001311E-15	1.552746E-17
7.560000E+03	9.975521E-16	1.534402E-17
7.570000E+03	9.936896E-16	1.512879E-17
7.580000E+03	9.897104E-16	1.489609E-17
7.590000E+03	9.856001E-16	1.466484E-17
7.600000E+03	9.812995E-16	1.445783E-17
7.610000E+03	9.767937E-16	1.430174E-17
7.620000E+03	9.720275E-16	1.422358E-17
7.630000E+03	9.670175E-16	1.424881E-17
7.640000E+03	9.617016E-16	1.439483E-17
7.650000E+03	9.561166E-16	1.467044E-17
7.660000E+03	9.502252E-16	1.507226E-17
7.670000E+03	9.440860E-16	1.558882E-17
7.680000E+03	9.376790E-16	1.620133E-17
7.690000E+03	9.310759E-16	1.688999E-17
7.700000E+03	9.242866E-16	1.763421E-17
7.710000E+03	9.173437E-16	1.841593E-17
7.720000E+03	9.102801E-16	1.922019E-17
7.730000E+03	9.031282E-16	2.003522E-17
7.740000E+03	8.959190E-16	2.085248E-17
7.750000E+03	8.886608E-16	2.166579E-17
7.760000E+03	8.814215E-16	2.247290E-17
