#wls	flux	fluxerr
1.600000E+03	3.446197E-16	2.746724E-16
1.640000E+03	3.532074E-16	2.792967E-16
1.680000E+03	3.621076E-16	2.839901E-16
1.720000E+03	3.713155E-16	2.887365E-16
1.760000E+03	3.809281E-16	2.935975E-16
1.800000E+03	3.909404E-16	2.985540E-16
1.840000E+03	4.013984E-16	3.036247E-16
1.880000E+03	4.122939E-16	3.087858E-16
1.920000E+03	4.237786E-16	3.141317E-16
1.960000E+03	4.357884E-16	3.195929E-16
2.000000E+03	4.485295E-16	3.252973E-16
2.040000E+03	4.620449E-16	3.312480E-16
2.080000E+03	4.764300E-16	3.374827E-16
2.120000E+03	4.917781E-16	3.440330E-16
2.160000E+03	5.081786E-16	3.509235E-16
2.200000E+03	5.258882E-16	3.582877E-16
2.240000E+03	5.449875E-16	3.661297E-16
2.280000E+03	5.654903E-16	3.744041E-16
2.320000E+03	5.876894E-16	3.832452E-16
2.360000E+03	6.114595E-16	3.925048E-16
2.400000E+03	6.369501E-16	4.022110E-16
2.440000E+03	6.640603E-16	4.122280E-16
2.480000E+03	6.927278E-16	4.224453E-16
2.520000E+03	7.229276E-16	4.327757E-16
2.560000E+03	7.544949E-16	4.430490E-16
2.600000E+03	7.874156E-16	4.531875E-16
2.640000E+03	8.215327E-16	4.630323E-16
2.680000E+03	8.566053E-16	4.723845E-16
2.720000E+03	8.925940E-16	4.811649E-16
2.760000E+03	9.291443E-16	4.891303E-16
2.800000E+03	9.661564E-16	4.961861E-16
2.840000E+03	1.003331E-15	5.021439E-16
2.880000E+03	1.040340E-15	5.068190E-16
2.920000E+03	1.076939E-15	5.100845E-16
2.960000E+03	1.113009E-15	5.118874E-16
3.000000E+03	1.148642E-15	5.122795E-16
3.010000E+03	1.157533E-15	5.121803E-16
3.020000E+03	1.166373E-15	5.119833E-16
3.030000E+03	1.175205E-15	5.117068E-16
3.040000E+03	1.184017E-15	5.113467E-16
3.050000E+03	1.192851E-15	5.109202E-16
3.060000E+03	1.201696E-15	5.104224E-16
3.070000E+03	1.210491E-15	5.098281E-16
3.080000E+03	1.219325E-15	5.091742E-16
3.090000E+03	1.228136E-15	5.084353E-16
3.100000E+03	1.236962E-15	5.076268E-16
3.110000E+03	1.245791E-15	5.067437E-16
3.120000E+03	1.254657E-15	5.058000E-16
3.130000E+03	1.263502E-15	5.047715E-16
3.140000E+03	1.272404E-15	5.036903E-16
3.150000E+03	1.281259E-15	5.025142E-16
3.160000E+03	1.290190E-15	5.012922E-16
3.170000E+03	1.299136E-15	5.000002E-16
3.180000E+03	1.308084E-15	4.986325E-16
3.190000E+03	1.317063E-15	4.972007E-16
3.200000E+03	1.326102E-15	4.957152E-16
3.210000E+03	1.335140E-15	4.941530E-16
3.220000E+03	1.344204E-15	4.925245E-16
3.230000E+03	1.353278E-15	4.908236E-16
3.240000E+03	1.362429E-15	4.890748E-16
3.250000E+03	1.371598E-15	4.872558E-16
3.260000E+03	1.380765E-15	4.853602E-16
3.270000E+03	1.389995E-15	4.834110E-16
3.280000E+03	1.399228E-15	4.813868E-16
3.290000E+03	1.408484E-15	4.792950E-16
3.300000E+03	1.417743E-15	4.771292E-16
3.310000E+03	1.427026E-15	4.748961E-16
3.320000E+03	1.436310E-15	4.725891E-16
3.330000E+03	1.445614E-15	4.702142E-16
3.340000E+03	1.454878E-15	4.677524E-16
3.350000E+03	1.464156E-15	4.652221E-16
3.360000E+03	1.473388E-15	4.626047E-16
3.370000E+03	1.482590E-15	4.599063E-16
3.380000E+03	1.491739E-15	4.571208E-16
3.390000E+03	1.500777E-15	4.542318E-16
3.400000E+03	1.509755E-15	4.512565E-16
3.410000E+03	1.518580E-15	4.481687E-16
3.420000E+03	1.527302E-15	4.449854E-16
3.430000E+03	1.535831E-15	4.416826E-16
3.440000E+03	1.544180E-15	4.382674E-16
3.450000E+03	1.552265E-15	4.347185E-16
3.460000E+03	1.560102E-15	4.310444E-16
3.470000E+03	1.567642E-15	4.272352E-16
3.480000E+03	1.574804E-15	4.232739E-16
3.490000E+03	1.581578E-15	4.191624E-16
3.500000E+03	1.587889E-15	4.148871E-16
3.510000E+03	1.593670E-15	4.104361E-16
3.520000E+03	1.598916E-15	4.058155E-16
3.530000E+03	1.603533E-15	4.010090E-16
3.540000E+03	1.607524E-15	3.960250E-16
3.550000E+03	1.610775E-15	3.908440E-16
3.560000E+03	1.613322E-15	3.854841E-16
3.570000E+03	1.615061E-15	3.799296E-16
3.580000E+03	1.615978E-15	3.741873E-16
3.590000E+03	1.616036E-15	3.682586E-16
3.600000E+03	1.615172E-15	3.621405E-16
3.610000E+03	1.613333E-15	3.558320E-16
3.620000E+03	1.610545E-15	3.493509E-16
3.630000E+03	1.606814E-15	3.427094E-16
3.640000E+03	1.602169E-15	3.359253E-16
3.650000E+03	1.596642E-15	3.290158E-16
3.660000E+03	1.590264E-15	3.219977E-16
3.670000E+03	1.583068E-15	3.148875E-16
3.680000E+03	1.575085E-15	3.077012E-16
3.690000E+03	1.566370E-15	3.004584E-16
3.700000E+03	1.556955E-15	2.931738E-16
3.710000E+03	1.546850E-15	2.858571E-16
3.720000E+03	1.536109E-15	2.785263E-16
3.730000E+03	1.524763E-15	2.711943E-16
3.740000E+03	1.512825E-15	2.638699E-16
3.750000E+03	1.500368E-15	2.565725E-16
3.760000E+03	1.487382E-15	2.493063E-16
3.770000E+03	1.473921E-15	2.420857E-16
3.780000E+03	1.460016E-15	2.349212E-16
3.790000E+03	1.445680E-15	2.278195E-16
3.800000E+03	1.430982E-15	2.207958E-16
3.810000E+03	1.415917E-15	2.138530E-16
3.820000E+03	1.400552E-15	2.070049E-16
3.830000E+03	1.384882E-15	2.002537E-16
3.840000E+03	1.368955E-15	1.936091E-16
3.850000E+03	1.352802E-15	1.870777E-16
3.860000E+03	1.336469E-15	1.806676E-16
3.870000E+03	1.319951E-15	1.743798E-16
3.880000E+03	1.303310E-15	1.682236E-16
3.890000E+03	1.286542E-15	1.621992E-16
3.900000E+03	1.269706E-15	1.563146E-16
3.910000E+03	1.252828E-15	1.505729E-16
3.920000E+03	1.235906E-15	1.449733E-16
3.930000E+03	1.219008E-15	1.395236E-16
3.940000E+03	1.202130E-15	1.342220E-16
3.950000E+03	1.185298E-15	1.290702E-16
3.960000E+03	1.168562E-15	1.240719E-16
3.970000E+03	1.151918E-15	1.192248E-16
3.980000E+03	1.135401E-15	1.145303E-16
3.990000E+03	1.119046E-15	1.099891E-16
4.000000E+03	1.102849E-15	1.055979E-16
4.010000E+03	1.086854E-15	1.013578E-16
4.020000E+03	1.071080E-15	9.726685E-17
4.030000E+03	1.055524E-15	9.332082E-17
4.040000E+03	1.040237E-15	8.952021E-17
4.050000E+03	1.025216E-15	8.586003E-17
4.060000E+03	1.010479E-15	8.233700E-17
4.070000E+03	9.960641E-16	7.894914E-17
4.080000E+03	9.819669E-16	7.569066E-17
4.090000E+03	9.682145E-16	7.255804E-17
4.100000E+03	9.548229E-16	6.954662E-17
4.110000E+03	9.418072E-16	6.665150E-17
4.120000E+03	9.291821E-16	6.386761E-17
4.130000E+03	9.169615E-16	6.118970E-17
4.140000E+03	9.051493E-16	5.861182E-17
4.150000E+03	8.937672E-16	5.612922E-17
4.160000E+03	8.828177E-16	5.373593E-17
4.170000E+03	8.723203E-16	5.142715E-17
4.180000E+03	8.622675E-16	4.919660E-17
4.190000E+03	8.526767E-16	4.703969E-17
4.200000E+03	8.435558E-16	4.495148E-17
4.210000E+03	8.348952E-16	4.292645E-17
4.220000E+03	8.267012E-16	4.096031E-17
4.230000E+03	8.189791E-16	3.904915E-17
4.240000E+03	8.117173E-16	3.718873E-17
4.250000E+03	8.049196E-16	3.537615E-17
4.260000E+03	7.985812E-16	3.360876E-17
4.270000E+03	7.926962E-16	3.188464E-17
4.280000E+03	7.872510E-16	3.020246E-17
4.290000E+03	7.822387E-16	2.856225E-17
4.300000E+03	7.776445E-16	2.696501E-17
4.310000E+03	7.734680E-16	2.541372E-17
4.320000E+03	7.696784E-16	2.391219E-17
4.330000E+03	7.662741E-16	2.246735E-17
4.340000E+03	7.632309E-16	2.108802E-17
4.350000E+03	7.605385E-16	1.978648E-17
4.360000E+03	7.581930E-16	1.857860E-17
4.370000E+03	7.561755E-16	1.748342E-17
4.380000E+03	7.544880E-16	1.652387E-17
4.390000E+03	7.531388E-16	1.572521E-17
4.400000E+03	7.521425E-16	1.511273E-17
4.410000E+03	7.515132E-16	1.470805E-17
4.420000E+03	7.512496E-16	1.452430E-17
4.430000E+03	7.513610E-16	1.455931E-17
4.440000E+03	7.518591E-16	1.479160E-17
4.450000E+03	7.527326E-16	1.518958E-17
4.460000E+03	7.539769E-16	1.571811E-17
4.470000E+03	7.555874E-16	1.634266E-17
4.480000E+03	7.575666E-16	1.703219E-17
4.490000E+03	7.598965E-16	1.775967E-17
4.500000E+03	7.625659E-16	1.850289E-17
4.510000E+03	7.655784E-16	1.924426E-17
4.520000E+03	7.689168E-16	1.996931E-17
4.530000E+03	7.725644E-16	2.066659E-17
4.540000E+03	7.765195E-16	2.132741E-17
4.550000E+03	7.807598E-16	2.194442E-17
4.560000E+03	7.852861E-16	2.251232E-17
4.570000E+03	7.900858E-16	2.302658E-17
4.580000E+03	7.951409E-16	2.348329E-17
4.590000E+03	8.004424E-16	2.387937E-17
4.600000E+03	8.059988E-16	2.421264E-17
4.610000E+03	8.117911E-16	2.448030E-17
4.620000E+03	8.178182E-16	2.468018E-17
4.630000E+03	8.240816E-16	2.481017E-17
4.640000E+03	8.305860E-16	2.486823E-17
4.650000E+03	8.373305E-16	2.485207E-17
4.660000E+03	8.443160E-16	2.475946E-17
4.670000E+03	8.515523E-16	2.458843E-17
4.680000E+03	8.590413E-16	2.433694E-17
4.690000E+03	8.667682E-16	2.400269E-17
4.700000E+03	8.747485E-16	2.358460E-17
4.710000E+03	8.829625E-16	2.308112E-17
4.720000E+03	8.914029E-16	2.249177E-17
4.730000E+03	9.000661E-16	2.181708E-17
4.740000E+03	9.089429E-16	2.105871E-17
4.750000E+03	9.180180E-16	2.021975E-17
4.760000E+03	9.272602E-16	1.930525E-17
4.770000E+03	9.366579E-16	1.832369E-17
4.780000E+03	9.461755E-16	1.728725E-17
4.790000E+03	9.557722E-16	1.621380E-17
4.800000E+03	9.654204E-16	1.512938E-17
4.810000E+03	9.750618E-16	1.407018E-17
4.820000E+03	9.846540E-16	1.308629E-17
4.830000E+03	9.941633E-16	1.224333E-17
4.840000E+03	1.003528E-15	1.161965E-17
4.850000E+03	1.012708E-15	1.129520E-17
4.860000E+03	1.021657E-15	1.132653E-17
4.870000E+03	1.030384E-15	1.170742E-17
4.880000E+03	1.038930E-15	1.237608E-17
4.890000E+03	1.047328E-15	1.325187E-17
4.900000E+03	1.055595E-15	1.425722E-17
4.910000E+03	1.063777E-15	1.532843E-17
4.920000E+03	1.071888E-15	1.641666E-17
4.930000E+03	1.079919E-15	1.748593E-17
4.940000E+03	1.087879E-15	1.851080E-17
4.950000E+03	1.095722E-15	1.947267E-17
4.960000E+03	1.103430E-15	2.035921E-17
4.970000E+03	1.110957E-15	2.116194E-17
4.980000E+03	1.118225E-15	2.187526E-17
4.990000E+03	1.125209E-15	2.249716E-17
5.000000E+03	1.131829E-15	2.302670E-17
5.010000E+03	1.138040E-15	2.346530E-17
5.020000E+03	1.143795E-15	2.381553E-17
5.030000E+03	1.149047E-15	2.408080E-17
5.040000E+03	1.153780E-15	2.426588E-17
5.050000E+03	1.157988E-15	2.437593E-17
5.060000E+03	1.161667E-15	2.441644E-17
5.070000E+03	1.164852E-15	2.439376E-17
5.080000E+03	1.167574E-15	2.431419E-17
5.090000E+03	1.169894E-15	2.418490E-17
5.100000E+03	1.171878E-15	2.401329E-17
5.110000E+03	1.173571E-15	2.380687E-17
5.120000E+03	1.175080E-15	2.357487E-17
5.130000E+03	1.176444E-15	2.332564E-17
5.140000E+03	1.177747E-15	2.306869E-17
5.150000E+03	1.179056E-15	2.281301E-17
5.160000E+03	1.180446E-15	2.256688E-17
5.170000E+03	1.181948E-15	2.233609E-17
5.180000E+03	1.183614E-15	2.212432E-17
5.190000E+03	1.185509E-15	2.193261E-17
5.200000E+03	1.187640E-15	2.175758E-17
5.210000E+03	1.190067E-15	2.159370E-17
5.220000E+03	1.192814E-15	2.143190E-17
5.230000E+03	1.195917E-15	2.126100E-17
5.240000E+03	1.199408E-15	2.106820E-17
5.250000E+03	1.203310E-15	2.083966E-17
5.260000E+03	1.207667E-15	2.056185E-17
5.270000E+03	1.212496E-15	2.022149E-17
5.280000E+03	1.217839E-15	1.980709E-17
5.290000E+03	1.223702E-15	1.930865E-17
5.300000E+03	1.230124E-15	1.871961E-17
5.310000E+03	1.237133E-15	1.803685E-17
5.320000E+03	1.244742E-15	1.726187E-17
5.330000E+03	1.252977E-15	1.640258E-17
5.340000E+03	1.261872E-15	1.547549E-17
5.350000E+03	1.271419E-15	1.450822E-17
5.360000E+03	1.281629E-15	1.354452E-17
5.370000E+03	1.292513E-15	1.264895E-17
5.380000E+03	1.304053E-15	1.190960E-17
5.390000E+03	1.316179E-15	1.143293E-17
5.400000E+03	1.328819E-15	1.132112E-17
5.410000E+03	1.341801E-15	1.161519E-17
5.420000E+03	1.354886E-15	1.226006E-17
5.430000E+03	1.367747E-15	1.315862E-17
5.440000E+03	1.380077E-15	1.421155E-17
5.450000E+03	1.391541E-15	1.533522E-17
5.460000E+03	1.401812E-15	1.646614E-17
5.470000E+03	1.410596E-15	1.755900E-17
5.480000E+03	1.417604E-15	1.858252E-17
5.490000E+03	1.422592E-15	1.951604E-17
5.500000E+03	1.425366E-15	2.034659E-17
5.510000E+03	1.425760E-15	2.106629E-17
5.520000E+03	1.423655E-15	2.167110E-17
5.530000E+03	1.419000E-15	2.216026E-17
5.540000E+03	1.411757E-15	2.253503E-17
5.550000E+03	1.402001E-15	2.280015E-17
5.560000E+03	1.389833E-15	2.296256E-17
5.570000E+03	1.375394E-15	2.303153E-17
5.580000E+03	1.358904E-15	2.301913E-17
5.590000E+03	1.340598E-15	2.293895E-17
5.600000E+03	1.320778E-15	2.280634E-17
5.610000E+03	1.299763E-15	2.263698E-17
5.620000E+03	1.277896E-15	2.244621E-17
5.630000E+03	1.255539E-15	2.224805E-17
5.640000E+03	1.233049E-15	2.205412E-17
5.650000E+03	1.210827E-15	2.187388E-17
5.660000E+03	1.189232E-15	2.171312E-17
5.670000E+03	1.168625E-15	2.157526E-17
5.680000E+03	1.149363E-15	2.146198E-17
5.690000E+03	1.131756E-15	2.137340E-17
5.700000E+03	1.116100E-15	2.130941E-17
5.710000E+03	1.102688E-15	2.127043E-17
5.720000E+03	1.091734E-15	2.125640E-17
5.730000E+03	1.083445E-15	2.126818E-17
5.740000E+03	1.078019E-15	2.130755E-17
5.750000E+03	1.075587E-15	2.137590E-17
5.760000E+03	1.076252E-15	2.147487E-17
5.770000E+03	1.080092E-15	2.160603E-17
5.780000E+03	1.087103E-15	2.176977E-17
5.790000E+03	1.097295E-15	2.196694E-17
5.800000E+03	1.110571E-15	2.219640E-17
5.810000E+03	1.126805E-15	2.245657E-17
5.820000E+03	1.145841E-15	2.274542E-17
5.830000E+03	1.167433E-15	2.305917E-17
5.840000E+03	1.191290E-15	2.339331E-17
5.850000E+03	1.217071E-15	2.374237E-17
5.860000E+03	1.244396E-15	2.410043E-17
5.870000E+03	1.272832E-15	2.446067E-17
5.880000E+03	1.301896E-15	2.481562E-17
5.890000E+03	1.331108E-15	2.515815E-17
5.900000E+03	1.359975E-15	2.548121E-17
5.910000E+03	1.387971E-15	2.577751E-17
5.920000E+03	1.414593E-15	2.604058E-17
5.930000E+03	1.439374E-15	2.626499E-17
5.940000E+03	1.461850E-15	2.644549E-17
5.950000E+03	1.481653E-15	2.657842E-17
5.960000E+03	1.498424E-15	2.665969E-17
5.970000E+03	1.511887E-15	2.668569E-17
5.980000E+03	1.521837E-15	2.665269E-17
5.990000E+03	1.528163E-15	2.655691E-17
6.000000E+03	1.530808E-15	2.639379E-17
6.010000E+03	1.529761E-15	2.615797E-17
6.020000E+03	1.525124E-15	2.584472E-17
6.030000E+03	1.516974E-15	2.544806E-17
6.040000E+03	1.505494E-15	2.496359E-17
6.050000E+03	1.490822E-15	2.438660E-17
6.060000E+03	1.473181E-15	2.371491E-17
6.070000E+03	1.452749E-15	2.294739E-17
6.080000E+03	1.429718E-15	2.208556E-17
6.090000E+03	1.404296E-15	2.113399E-17
6.100000E+03	1.376643E-15	2.009998E-17
6.110000E+03	1.346946E-15	1.899507E-17
6.120000E+03	1.315380E-15	1.783525E-17
6.130000E+03	1.282071E-15	1.664107E-17
6.140000E+03	1.247218E-15	1.544028E-17
6.150000E+03	1.210982E-15	1.426688E-17
6.160000E+03	1.173547E-15	1.316240E-17
6.170000E+03	1.135100E-15	1.217477E-17
6.180000E+03	1.095844E-15	1.135508E-17
6.190000E+03	1.056040E-15	1.075006E-17
6.200000E+03	1.015956E-15	1.038801E-17
6.210000E+03	9.759830E-16	1.025830E-17
6.220000E+03	9.366041E-16	1.030768E-17
6.230000E+03	8.983455E-16	1.047360E-17
6.240000E+03	8.616527E-16	1.070090E-17
6.250000E+03	8.269226E-16	1.094896E-17
6.260000E+03	7.944838E-16	1.119178E-17
6.270000E+03	7.645945E-16	1.141538E-17
6.280000E+03	7.374560E-16	1.161465E-17
6.290000E+03	7.131800E-16	1.178990E-17
6.300000E+03	6.918736E-16	1.194576E-17
6.310000E+03	6.735546E-16	1.208811E-17
6.320000E+03	6.582343E-16	1.222418E-17
6.330000E+03	6.458882E-16	1.236118E-17
6.340000E+03	6.364705E-16	1.250598E-17
6.350000E+03	6.299192E-16	1.266482E-17
6.360000E+03	6.261662E-16	1.284324E-17
6.370000E+03	6.251147E-16	1.304554E-17
6.380000E+03	6.266820E-16	1.327557E-17
6.390000E+03	6.307418E-16	1.353557E-17
6.400000E+03	6.371842E-16	1.382748E-17
6.410000E+03	6.458821E-16	1.415233E-17
6.420000E+03	6.567006E-16	1.451053E-17
6.430000E+03	6.695058E-16	1.490213E-17
6.440000E+03	6.841197E-16	1.532587E-17
6.450000E+03	7.004123E-16	1.578129E-17
6.460000E+03	7.181908E-16	1.626621E-17
6.470000E+03	7.372849E-16	1.677866E-17
6.480000E+03	7.575205E-16	1.731631E-17
6.490000E+03	7.787207E-16	1.787646E-17
6.500000E+03	8.006966E-16	1.845580E-17
6.510000E+03	8.232574E-16	1.905074E-17
6.520000E+03	8.462235E-16	1.965763E-17
6.530000E+03	8.694281E-16	2.027288E-17
6.540000E+03	8.926686E-16	2.089186E-17
6.550000E+03	9.157917E-16	2.151091E-17
6.560000E+03	9.385792E-16	2.212474E-17
6.570000E+03	9.608766E-16	2.272949E-17
6.580000E+03	9.825024E-16	2.332065E-17
6.590000E+03	1.003260E-15	2.389341E-17
6.600000E+03	1.022967E-15	2.444333E-17
6.610000E+03	1.041458E-15	2.496650E-17
6.620000E+03	1.058545E-15	2.545852E-17
6.630000E+03	1.074078E-15	2.591601E-17
6.640000E+03	1.087889E-15	2.633518E-17
6.650000E+03	1.099878E-15	2.671383E-17
6.660000E+03	1.109899E-15	2.704867E-17
6.670000E+03	1.117881E-15	2.733812E-17
6.680000E+03	1.123767E-15	2.758074E-17
6.690000E+03	1.127528E-15	2.777568E-17
6.700000E+03	1.129182E-15	2.792311E-17
6.710000E+03	1.128731E-15	2.802250E-17
6.720000E+03	1.126273E-15	2.807561E-17
6.730000E+03	1.121901E-15	2.808390E-17
6.740000E+03	1.115717E-15	2.804889E-17
6.750000E+03	1.107878E-15	2.797339E-17
6.760000E+03	1.098527E-15	2.785978E-17
6.770000E+03	1.087856E-15	2.771156E-17
6.780000E+03	1.076050E-15	2.753207E-17
6.790000E+03	1.063299E-15	2.732481E-17
6.800000E+03	1.049799E-15	2.709342E-17
6.810000E+03	1.035726E-15	2.684111E-17
6.820000E+03	1.021301E-15	2.657239E-17
6.830000E+03	1.006690E-15	2.629040E-17
6.840000E+03	9.920655E-16	2.599859E-17
6.850000E+03	9.775733E-16	2.569986E-17
6.860000E+03	9.634085E-16	2.539854E-17
6.870000E+03	9.496577E-16	2.509627E-17
6.880000E+03	9.364699E-16	2.479648E-17
6.890000E+03	9.239158E-16	2.450071E-17
6.900000E+03	9.121101E-16	2.421181E-17
6.910000E+03	9.011189E-16	2.393155E-17
6.920000E+03	8.909613E-16	2.366060E-17
6.930000E+03	8.816980E-16	2.340088E-17
6.940000E+03	8.733426E-16	2.315327E-17
6.950000E+03	8.658628E-16	2.291752E-17
6.960000E+03	8.592691E-16	2.269465E-17
6.970000E+03	8.535278E-16	2.248460E-17
6.980000E+03	8.485778E-16	2.228665E-17
6.990000E+03	8.443611E-16	2.210018E-17
7.000000E+03	8.408105E-16	2.192435E-17
7.010000E+03	8.378664E-16	2.175852E-17
7.020000E+03	8.354360E-16	2.160112E-17
7.030000E+03	8.334536E-16	2.145128E-17
7.040000E+03	8.318250E-16	2.130728E-17
7.050000E+03	8.304875E-16	2.116820E-17
7.060000E+03	8.293543E-16	2.103235E-17
7.070000E+03	8.283589E-16	2.089852E-17
7.080000E+03	8.274574E-16	2.076592E-17
7.090000E+03	8.265848E-16	2.063311E-17
7.100000E+03	8.257148E-16	2.049952E-17
7.110000E+03	8.248011E-16	2.036390E-17
7.120000E+03	8.238359E-16	2.022586E-17
7.130000E+03	8.228056E-16	2.008472E-17
7.140000E+03	8.216888E-16	1.993947E-17
7.150000E+03	8.204858E-16	1.978954E-17
7.160000E+03	8.192317E-16	1.963511E-17
7.170000E+03	8.178891E-16	1.947455E-17
7.180000E+03	8.165131E-16	1.930843E-17
7.190000E+03	8.150977E-16	1.913590E-17
7.200000E+03	8.136354E-16	1.895610E-17
7.210000E+03	8.121619E-16	1.876934E-17
7.220000E+03	8.106480E-16	1.857454E-17
7.230000E+03	8.091223E-16	1.837213E-17
7.240000E+03	8.075635E-16	1.816159E-17
7.250000E+03	8.059772E-16	1.794321E-17
7.260000E+03	8.043347E-16	1.771671E-17
7.270000E+03	8.026351E-16	1.748260E-17
7.280000E+03	8.008597E-16	1.724120E-17
7.290000E+03	7.990035E-16	1.699335E-17
7.300000E+03	7.970296E-16	1.673950E-17
7.310000E+03	7.949328E-16	1.648112E-17
7.320000E+03	7.926934E-16	1.621973E-17
7.330000E+03	7.902941E-16	1.595729E-17
7.340000E+03	7.877374E-16	1.569643E-17
7.350000E+03	7.850300E-16	1.544006E-17
7.360000E+03	7.821521E-16	1.519064E-17
7.370000E+03	7.791218E-16	1.495125E-17
7.380000E+03	7.759465E-16	1.472455E-17
7.390000E+03	7.726554E-16	1.451321E-17
7.400000E+03	7.692655E-16	1.431912E-17
7.410000E+03	7.657974E-16	1.414351E-17
7.420000E+03	7.622572E-16	1.398638E-17
7.430000E+03	7.586984E-16	1.384742E-17
7.440000E+03	7.551090E-16	1.372362E-17
7.450000E+03	7.515048E-16	1.361085E-17
7.460000E+03	7.479124E-16	1.350359E-17
7.470000E+03	7.443217E-16	1.339429E-17
7.480000E+03	7.407180E-16	1.327450E-17
7.490000E+03	7.370982E-16	1.313565E-17
7.500000E+03	7.334407E-16	1.296908E-17
7.510000E+03	7.297526E-16	1.276736E-17
7.520000E+03	7.259921E-16	1.252346E-17
7.530000E+03	7.221633E-16	1.223284E-17
7.540000E+03	7.182531E-16	1.189290E-17
7.550000E+03	7.142168E-16	1.150329E-17
7.560000E+03	7.100400E-16	1.106775E-17
7.570000E+03	7.057235E-16	1.059456E-17
7.580000E+03	7.012515E-16	1.009718E-17
7.590000E+03	6.965775E-16	9.595269E-18
7.600000E+03	6.917010E-16	9.116934E-18
7.610000E+03	6.866071E-16	8.698208E-18
7.620000E+03	6.812816E-16	8.381737E-18
7.630000E+03	6.757125E-16	8.211558E-18
7.640000E+03	6.698766E-16	8.222964E-18
7.650000E+03	6.637932E-16	8.426560E-18
7.660000E+03	6.574690E-16	8.801898E-18
7.670000E+03	6.509294E-16	9.314384E-18
7.680000E+03	6.442152E-16	9.926549E-18
7.690000E+03	6.373518E-16	1.060423E-17
7.700000E+03	6.303488E-16	1.131924E-17
7.710000E+03	6.232293E-16	1.205008E-17
7.720000E+03	6.160285E-16	1.278127E-17
7.730000E+03	6.087649E-16	1.350173E-17
7.740000E+03	6.014417E-16	1.420365E-17
7.750000E+03	5.940739E-16	1.488225E-17
7.760000E+03	5.866885E-16	1.553528E-17
