#wls	flux	fluxerr
1.600000E+03	2.269753E-16	1.813488E-16
1.640000E+03	2.308511E-16	1.830259E-16
1.680000E+03	2.347561E-16	1.846361E-16
1.720000E+03	2.387235E-16	1.862017E-16
1.760000E+03	2.428292E-16	1.877772E-16
1.800000E+03	2.469849E-16	1.892888E-16
1.840000E+03	2.512667E-16	1.907901E-16
1.880000E+03	2.557110E-16	1.923024E-16
1.920000E+03	2.602677E-16	1.937815E-16
1.960000E+03	2.650595E-16	1.953115E-16
2.000000E+03	2.700353E-16	1.968460E-16
2.040000E+03	2.752749E-16	1.984343E-16
2.080000E+03	2.808594E-16	2.001236E-16
2.120000E+03	2.867337E-16	2.018620E-16
2.160000E+03	2.930221E-16	2.037242E-16
2.200000E+03	2.998036E-16	2.057486E-16
2.240000E+03	3.070156E-16	2.078742E-16
2.280000E+03	3.145897E-16	2.100381E-16
2.320000E+03	3.225934E-16	2.122687E-16
2.360000E+03	3.308544E-16	2.144361E-16
2.400000E+03	3.394304E-16	2.165632E-16
2.440000E+03	3.481853E-16	2.185489E-16
2.480000E+03	3.570720E-16	2.203523E-16
2.520000E+03	3.660390E-16	2.219316E-16
2.560000E+03	3.749824E-16	2.232163E-16
2.600000E+03	3.838887E-16	2.241933E-16
2.640000E+03	3.926925E-16	2.248206E-16
2.680000E+03	4.012781E-16	2.250315E-16
2.720000E+03	4.096197E-16	2.248144E-16
2.760000E+03	4.176875E-16	2.241575E-16
2.800000E+03	4.254922E-16	2.230725E-16
2.840000E+03	4.329935E-16	2.215451E-16
2.880000E+03	4.398830E-16	2.194302E-16
2.920000E+03	4.461249E-16	2.167321E-16
2.960000E+03	4.515127E-16	2.133774E-16
3.000000E+03	4.560196E-16	2.093879E-16
3.010000E+03	4.569634E-16	2.082749E-16
3.020000E+03	4.579066E-16	2.071501E-16
3.030000E+03	4.587654E-16	2.059758E-16
3.040000E+03	4.595800E-16	2.047710E-16
3.050000E+03	4.603088E-16	2.035176E-16
3.060000E+03	4.609915E-16	2.022340E-16
3.070000E+03	4.616269E-16	2.009202E-16
3.080000E+03	4.622140E-16	1.995764E-16
3.090000E+03	4.627122E-16	1.981857E-16
3.100000E+03	4.631996E-16	1.967823E-16
3.110000E+03	4.636353E-16	1.953491E-16
3.120000E+03	4.639799E-16	1.938703E-16
3.130000E+03	4.643098E-16	1.923786E-16
3.140000E+03	4.645853E-16	1.908578E-16
3.150000E+03	4.648052E-16	1.893083E-16
3.160000E+03	4.649690E-16	1.877304E-16
3.170000E+03	4.651127E-16	1.861393E-16
3.180000E+03	4.651980E-16	1.845200E-16
3.190000E+03	4.652607E-16	1.828873E-16
3.200000E+03	4.652991E-16	1.812410E-16
3.210000E+03	4.652756E-16	1.795670E-16
3.220000E+03	4.652254E-16	1.778793E-16
3.230000E+03	4.651822E-16	1.761913E-16
3.240000E+03	4.650737E-16	1.744758E-16
3.250000E+03	4.649687E-16	1.727592E-16
3.260000E+03	4.648649E-16	1.710409E-16
3.270000E+03	4.647260E-16	1.693075E-16
3.280000E+03	4.645844E-16	1.675714E-16
3.290000E+03	4.644044E-16	1.658199E-16
3.300000E+03	4.642511E-16	1.640767E-16
3.310000E+03	4.641214E-16	1.623405E-16
3.320000E+03	4.639798E-16	1.605988E-16
3.330000E+03	4.638563E-16	1.588624E-16
3.340000E+03	4.637480E-16	1.571300E-16
3.350000E+03	4.636519E-16	1.554008E-16
3.360000E+03	4.635963E-16	1.536840E-16
3.370000E+03	4.635775E-16	1.519783E-16
3.380000E+03	4.635917E-16	1.502821E-16
3.390000E+03	4.636956E-16	1.486134E-16
3.400000E+03	4.638236E-16	1.469507E-16
3.410000E+03	4.640019E-16	1.453019E-16
3.420000E+03	4.642843E-16	1.436835E-16
3.430000E+03	4.646355E-16	1.420836E-16
3.440000E+03	4.650786E-16	1.405086E-16
3.450000E+03	4.656073E-16	1.389559E-16
3.460000E+03	4.662713E-16	1.374394E-16
3.470000E+03	4.670348E-16	1.359472E-16
3.480000E+03	4.679179E-16	1.344844E-16
3.490000E+03	4.689398E-16	1.330553E-16
3.500000E+03	4.700915E-16	1.316560E-16
3.510000E+03	4.714169E-16	1.302975E-16
3.520000E+03	4.728796E-16	1.289681E-16
3.530000E+03	4.744957E-16	1.276710E-16
3.540000E+03	4.762804E-16	1.264087E-16
3.550000E+03	4.782225E-16	1.251768E-16
3.560000E+03	4.803113E-16	1.239710E-16
3.570000E+03	4.825119E-16	1.227811E-16
3.580000E+03	4.848628E-16	1.216159E-16
3.590000E+03	4.873056E-16	1.204595E-16
3.600000E+03	4.898315E-16	1.193093E-16
3.610000E+03	4.924317E-16	1.181624E-16
3.620000E+03	4.950979E-16	1.170166E-16
3.630000E+03	4.978220E-16	1.158695E-16
3.640000E+03	5.005521E-16	1.147090E-16
3.650000E+03	5.033259E-16	1.135439E-16
3.660000E+03	5.060934E-16	1.123632E-16
3.670000E+03	5.088706E-16	1.111707E-16
3.680000E+03	5.116309E-16	1.099611E-16
3.690000E+03	5.143699E-16	1.087341E-16
3.700000E+03	5.170631E-16	1.074852E-16
3.710000E+03	5.197074E-16	1.062148E-16
3.720000E+03	5.223196E-16	1.049272E-16
3.730000E+03	5.248579E-16	1.036151E-16
3.740000E+03	5.273209E-16	1.022793E-16
3.750000E+03	5.297074E-16	1.009210E-16
3.760000E+03	5.320168E-16	9.954134E-17
3.770000E+03	5.342302E-16	9.813816E-17
3.780000E+03	5.363482E-16	9.671306E-17
3.790000E+03	5.383715E-16	9.526768E-17
3.800000E+03	5.402840E-16	9.380067E-17
3.810000E+03	5.420875E-16	9.231400E-17
3.820000E+03	5.437676E-16	9.080688E-17
3.830000E+03	5.453275E-16	8.928158E-17
3.840000E+03	5.467705E-16	8.774033E-17
3.850000E+03	5.481003E-16	8.618535E-17
3.860000E+03	5.492890E-16	8.461398E-17
3.870000E+03	5.503576E-16	8.303121E-17
3.880000E+03	5.513107E-16	8.143938E-17
3.890000E+03	5.521233E-16	7.983643E-17
3.900000E+03	5.528018E-16	7.822503E-17
3.910000E+03	5.533670E-16	7.660978E-17
3.920000E+03	5.537965E-16	7.498906E-17
3.930000E+03	5.541115E-16	7.336733E-17
3.940000E+03	5.542910E-16	7.174329E-17
3.950000E+03	5.543432E-16	7.011949E-17
3.960000E+03	5.542894E-16	6.850002E-17
3.970000E+03	5.541108E-16	6.688380E-17
3.980000E+03	5.538161E-16	6.527317E-17
3.990000E+03	5.534140E-16	6.367031E-17
4.000000E+03	5.529133E-16	6.207725E-17
4.010000E+03	5.522982E-16	6.049318E-17
4.020000E+03	5.515906E-16	5.892141E-17
4.030000E+03	5.507762E-16	5.736118E-17
4.040000E+03	5.498890E-16	5.581671E-17
4.050000E+03	5.489036E-16	5.428594E-17
4.060000E+03	5.478541E-16	5.277266E-17
4.070000E+03	5.467279E-16	5.127595E-17
4.080000E+03	5.455362E-16	4.979703E-17
4.090000E+03	5.442901E-16	4.833699E-17
4.100000E+03	5.429898E-16	4.689578E-17
4.110000E+03	5.416468E-16	4.547424E-17
4.120000E+03	5.402722E-16	4.407304E-17
4.130000E+03	5.388772E-16	4.269272E-17
4.140000E+03	5.374525E-16	4.133212E-17
4.150000E+03	5.360294E-16	3.999318E-17
4.160000E+03	5.345985E-16	3.867468E-17
4.170000E+03	5.331802E-16	3.737756E-17
4.180000E+03	5.317747E-16	3.610134E-17
4.190000E+03	5.303918E-16	3.484619E-17
4.200000E+03	5.290406E-16	3.361234E-17
4.210000E+03	5.277388E-16	3.240057E-17
4.220000E+03	5.264758E-16	3.121004E-17
4.230000E+03	5.252771E-16	3.004227E-17
4.240000E+03	5.241401E-16	2.889723E-17
4.250000E+03	5.230619E-16	2.777522E-17
4.260000E+03	5.220738E-16	2.667861E-17
4.270000E+03	5.211625E-16	2.560772E-17
4.280000E+03	5.203486E-16	2.456499E-17
4.290000E+03	5.196179E-16	2.355165E-17
4.300000E+03	5.189974E-16	2.257137E-17
4.310000E+03	5.184799E-16	2.162687E-17
4.320000E+03	5.180736E-16	2.072226E-17
4.330000E+03	5.177779E-16	1.986201E-17
4.340000E+03	5.176073E-16	1.905200E-17
4.350000E+03	5.175508E-16	1.829796E-17
4.360000E+03	5.176207E-16	1.760719E-17
4.370000E+03	5.178199E-16	1.698721E-17
4.380000E+03	5.181426E-16	1.644552E-17
4.390000E+03	5.185900E-16	1.598962E-17
4.400000E+03	5.191623E-16	1.562618E-17
4.410000E+03	5.198525E-16	1.535992E-17
4.420000E+03	5.206780E-16	1.519343E-17
4.430000E+03	5.216224E-16	1.512415E-17
4.440000E+03	5.227129E-16	1.514625E-17
4.450000E+03	5.239497E-16	1.524978E-17
4.460000E+03	5.253415E-16	1.542321E-17
4.470000E+03	5.268892E-16	1.565399E-17
4.480000E+03	5.286011E-16	1.592983E-17
4.490000E+03	5.304771E-16	1.623878E-17
4.500000E+03	5.325166E-16	1.656980E-17
4.510000E+03	5.347108E-16	1.691273E-17
4.520000E+03	5.370726E-16	1.725920E-17
4.530000E+03	5.395991E-16	1.760150E-17
4.540000E+03	5.422799E-16	1.793272E-17
4.550000E+03	5.451190E-16	1.824735E-17
4.560000E+03	5.481125E-16	1.854043E-17
4.570000E+03	5.512638E-16	1.880798E-17
4.580000E+03	5.545618E-16	1.904616E-17
4.590000E+03	5.580173E-16	1.925235E-17
4.600000E+03	5.616266E-16	1.942393E-17
4.610000E+03	5.653790E-16	1.955843E-17
4.620000E+03	5.692859E-16	1.965445E-17
4.630000E+03	5.733512E-16	1.971070E-17
4.640000E+03	5.775645E-16	1.972565E-17
4.650000E+03	5.819442E-16	1.969908E-17
4.660000E+03	5.864719E-16	1.962978E-17
4.670000E+03	5.911724E-16	1.951834E-17
4.680000E+03	5.960257E-16	1.936416E-17
4.690000E+03	6.010547E-16	1.916846E-17
4.700000E+03	6.062443E-16	1.893166E-17
4.710000E+03	6.115921E-16	1.865513E-17
4.720000E+03	6.171091E-16	1.834128E-17
4.730000E+03	6.227815E-16	1.799254E-17
4.740000E+03	6.286089E-16	1.761264E-17
4.750000E+03	6.345812E-16	1.720616E-17
4.760000E+03	6.406790E-16	1.677875E-17
4.770000E+03	6.469040E-16	1.633818E-17
4.780000E+03	6.532341E-16	1.589341E-17
4.790000E+03	6.596538E-16	1.545560E-17
4.800000E+03	6.661473E-16	1.503807E-17
4.810000E+03	6.726982E-16	1.465624E-17
4.820000E+03	6.792904E-16	1.432730E-17
4.830000E+03	6.859083E-16	1.406941E-17
4.840000E+03	6.925367E-16	1.390024E-17
4.850000E+03	6.991615E-16	1.383472E-17
4.860000E+03	7.057703E-16	1.388166E-17
4.870000E+03	7.123452E-16	1.404038E-17
4.880000E+03	7.188942E-16	1.430168E-17
4.890000E+03	7.253944E-16	1.464992E-17
4.900000E+03	7.318385E-16	1.506711E-17
4.910000E+03	7.382271E-16	1.553491E-17
4.920000E+03	7.445511E-16	1.603577E-17
4.930000E+03	7.508003E-16	1.655398E-17
4.940000E+03	7.569624E-16	1.707605E-17
4.950000E+03	7.630147E-16	1.759067E-17
4.960000E+03	7.689492E-16	1.808916E-17
4.970000E+03	7.747557E-16	1.856494E-17
4.980000E+03	7.803974E-16	1.901271E-17
4.990000E+03	7.858699E-16	1.942957E-17
5.000000E+03	7.911344E-16	1.981314E-17
5.010000E+03	7.961867E-16	2.016301E-17
5.020000E+03	8.010071E-16	2.047926E-17
5.030000E+03	8.055703E-16	2.076239E-17
5.040000E+03	8.098720E-16	2.101383E-17
5.050000E+03	8.139049E-16	2.123512E-17
5.060000E+03	8.176586E-16	2.142767E-17
5.070000E+03	8.211555E-16	2.159361E-17
5.080000E+03	8.243985E-16	2.173422E-17
5.090000E+03	8.273962E-16	2.185051E-17
5.100000E+03	8.301974E-16	2.194411E-17
5.110000E+03	8.328112E-16	2.201509E-17
5.120000E+03	8.352664E-16	2.206363E-17
5.130000E+03	8.376024E-16	2.208977E-17
5.140000E+03	8.398507E-16	2.209297E-17
5.150000E+03	8.420427E-16	2.207242E-17
5.160000E+03	8.442006E-16	2.202680E-17
5.170000E+03	8.463723E-16	2.195526E-17
5.180000E+03	8.485697E-16	2.185583E-17
5.190000E+03	8.508388E-16	2.172727E-17
5.200000E+03	8.531982E-16	2.156750E-17
5.210000E+03	8.556739E-16	2.137457E-17
5.220000E+03	8.582999E-16	2.114666E-17
5.230000E+03	8.610909E-16	2.088150E-17
5.240000E+03	8.640690E-16	2.057710E-17
5.250000E+03	8.672631E-16	2.023189E-17
5.260000E+03	8.706825E-16	1.984424E-17
5.270000E+03	8.743431E-16	1.941332E-17
5.280000E+03	8.782672E-16	1.893939E-17
5.290000E+03	8.824656E-16	1.842370E-17
5.300000E+03	8.869371E-16	1.786898E-17
5.310000E+03	8.916865E-16	1.728026E-17
5.320000E+03	8.967242E-16	1.666552E-17
5.330000E+03	9.020390E-16	1.603581E-17
5.340000E+03	9.076342E-16	1.540682E-17
5.350000E+03	9.134911E-16	1.479904E-17
5.360000E+03	9.195957E-16	1.423880E-17
5.370000E+03	9.259392E-16	1.375821E-17
5.380000E+03	9.324876E-16	1.339314E-17
5.390000E+03	9.392165E-16	1.317983E-17
5.400000E+03	9.460543E-16	1.314657E-17
5.410000E+03	9.529319E-16	1.330447E-17
5.420000E+03	9.597110E-16	1.364223E-17
5.430000E+03	9.662466E-16	1.413302E-17
5.440000E+03	9.723546E-16	1.474252E-17
5.450000E+03	9.778897E-16	1.543593E-17
5.460000E+03	9.826737E-16	1.618037E-17
5.470000E+03	9.865794E-16	1.694761E-17
5.480000E+03	9.894564E-16	1.771327E-17
5.490000E+03	9.912127E-16	1.845804E-17
5.500000E+03	9.917385E-16	1.916595E-17
5.510000E+03	9.909767E-16	1.982526E-17
5.520000E+03	9.888852E-16	2.042729E-17
5.530000E+03	9.854485E-16	2.096622E-17
5.540000E+03	9.806788E-16	2.143865E-17
5.550000E+03	9.746260E-16	2.184355E-17
5.560000E+03	9.673489E-16	2.218125E-17
5.570000E+03	9.589623E-16	2.245424E-17
5.580000E+03	9.495772E-16	2.266561E-17
5.590000E+03	9.393371E-16	2.281963E-17
5.600000E+03	9.284142E-16	2.292155E-17
5.610000E+03	9.169777E-16	2.297666E-17
5.620000E+03	9.052269E-16	2.299101E-17
5.630000E+03	8.933593E-16	2.297052E-17
5.640000E+03	8.815754E-16	2.292107E-17
5.650000E+03	8.700658E-16	2.284819E-17
5.660000E+03	8.590339E-16	2.275764E-17
5.670000E+03	8.486745E-16	2.265498E-17
5.680000E+03	8.391464E-16	2.254478E-17
5.690000E+03	8.306294E-16	2.243222E-17
5.700000E+03	8.232641E-16	2.232146E-17
5.710000E+03	8.171835E-16	2.221645E-17
5.720000E+03	8.125045E-16	2.212066E-17
5.730000E+03	8.093344E-16	2.203730E-17
5.740000E+03	8.077464E-16	2.196859E-17
5.750000E+03	8.078030E-16	2.191644E-17
5.760000E+03	8.095553E-16	2.188243E-17
5.770000E+03	8.130258E-16	2.186741E-17
5.780000E+03	8.181987E-16	2.187122E-17
5.790000E+03	8.250672E-16	2.189407E-17
5.800000E+03	8.335830E-16	2.193521E-17
5.810000E+03	8.436623E-16	2.199323E-17
5.820000E+03	8.552011E-16	2.206659E-17
5.830000E+03	8.680663E-16	2.215353E-17
5.840000E+03	8.821041E-16	2.225243E-17
5.850000E+03	8.971138E-16	2.236123E-17
5.860000E+03	9.128651E-16	2.247791E-17
5.870000E+03	9.291277E-16	2.260107E-17
5.880000E+03	9.456206E-16	2.272847E-17
5.890000E+03	9.620526E-16	2.285772E-17
5.900000E+03	9.781105E-16	2.298564E-17
5.910000E+03	9.934853E-16	2.310860E-17
5.920000E+03	1.007882E-15	2.322260E-17
5.930000E+03	1.021008E-15	2.332281E-17
5.940000E+03	1.032573E-15	2.340340E-17
5.950000E+03	1.042343E-15	2.345882E-17
5.960000E+03	1.050112E-15	2.348298E-17
5.970000E+03	1.055705E-15	2.346932E-17
5.980000E+03	1.059004E-15	2.341143E-17
5.990000E+03	1.059934E-15	2.330313E-17
6.000000E+03	1.058470E-15	2.313871E-17
6.010000E+03	1.054629E-15	2.291337E-17
6.020000E+03	1.048454E-15	2.262326E-17
6.030000E+03	1.040024E-15	2.226598E-17
6.040000E+03	1.029480E-15	2.184128E-17
6.050000E+03	1.016954E-15	2.134978E-17
6.060000E+03	1.002595E-15	2.079358E-17
6.070000E+03	9.865785E-16	2.017647E-17
6.080000E+03	9.690864E-16	1.950374E-17
6.090000E+03	9.503054E-16	1.878237E-17
6.100000E+03	9.304240E-16	1.802123E-17
6.110000E+03	9.096298E-16	1.723129E-17
6.120000E+03	8.881072E-16	1.642566E-17
6.130000E+03	8.660271E-16	1.561941E-17
6.140000E+03	8.435724E-16	1.482984E-17
6.150000E+03	8.209007E-16	1.407548E-17
6.160000E+03	7.981709E-16	1.337586E-17
6.170000E+03	7.755416E-16	1.275049E-17
6.180000E+03	7.531386E-16	1.221666E-17
6.190000E+03	7.310972E-16	1.178798E-17
6.200000E+03	7.095474E-16	1.147099E-17
6.210000E+03	6.886332E-16	1.126225E-17
6.220000E+03	6.684822E-16	1.114832E-17
6.230000E+03	6.492013E-16	1.111039E-17
6.240000E+03	6.309191E-16	1.112961E-17
6.250000E+03	6.137157E-16	1.118851E-17
6.260000E+03	5.976767E-16	1.127304E-17
6.270000E+03	5.828604E-16	1.137235E-17
6.280000E+03	5.693244E-16	1.147900E-17
6.290000E+03	5.571013E-16	1.158803E-17
6.300000E+03	5.462239E-16	1.169693E-17
6.310000E+03	5.367033E-16	1.180462E-17
6.320000E+03	5.285527E-16	1.191152E-17
6.330000E+03	5.217666E-16	1.201876E-17
6.340000E+03	5.163439E-16	1.212834E-17
6.350000E+03	5.122669E-16	1.224245E-17
6.360000E+03	5.095229E-16	1.236377E-17
6.370000E+03	5.080870E-16	1.249482E-17
6.380000E+03	5.079208E-16	1.263778E-17
6.390000E+03	5.089878E-16	1.279466E-17
6.400000E+03	5.112407E-16	1.296681E-17
6.410000E+03	5.146103E-16	1.315459E-17
6.420000E+03	5.190284E-16	1.335792E-17
6.430000E+03	5.244196E-16	1.357623E-17
6.440000E+03	5.307025E-16	1.380857E-17
6.450000E+03	5.377920E-16	1.405379E-17
6.460000E+03	5.456064E-16	1.431078E-17
6.470000E+03	5.540438E-16	1.457794E-17
6.480000E+03	5.630257E-16	1.485427E-17
6.490000E+03	5.724490E-16	1.513813E-17
6.500000E+03	5.822101E-16	1.542784E-17
6.510000E+03	5.922136E-16	1.572186E-17
6.520000E+03	6.023592E-16	1.601837E-17
6.530000E+03	6.125560E-16	1.631567E-17
6.540000E+03	6.227162E-16	1.661199E-17
6.550000E+03	6.327546E-16	1.690556E-17
6.560000E+03	6.425882E-16	1.719464E-17
6.570000E+03	6.521436E-16	1.747778E-17
6.580000E+03	6.613415E-16	1.775341E-17
6.590000E+03	6.701042E-16	1.802009E-17
6.600000E+03	6.783547E-16	1.827639E-17
6.610000E+03	6.860259E-16	1.852115E-17
6.620000E+03	6.930532E-16	1.875317E-17
6.630000E+03	6.993506E-16	1.897052E-17
6.640000E+03	7.048790E-16	1.917236E-17
6.650000E+03	7.095644E-16	1.935669E-17
6.660000E+03	7.133758E-16	1.952248E-17
6.670000E+03	7.162674E-16	1.966809E-17
6.680000E+03	7.182228E-16	1.979256E-17
6.690000E+03	7.192303E-16	1.989490E-17
6.700000E+03	7.192917E-16	1.997442E-17
6.710000E+03	7.184314E-16	2.003101E-17
6.720000E+03	7.166608E-16	2.006414E-17
6.730000E+03	7.140482E-16	2.007487E-17
6.740000E+03	7.106295E-16	2.006334E-17
6.750000E+03	7.064865E-16	2.003103E-17
6.760000E+03	7.016745E-16	1.997871E-17
6.770000E+03	6.962921E-16	1.990842E-17
6.780000E+03	6.904171E-16	1.982163E-17
6.790000E+03	6.841406E-16	1.972023E-17
6.800000E+03	6.775651E-16	1.960647E-17
6.810000E+03	6.707769E-16	1.948210E-17
6.820000E+03	6.638786E-16	1.934938E-17
6.830000E+03	6.569623E-16	1.921023E-17
6.840000E+03	6.501080E-16	1.906631E-17
6.850000E+03	6.434080E-16	1.891968E-17
6.860000E+03	6.369489E-16	1.877235E-17
6.870000E+03	6.307857E-16	1.862550E-17
6.880000E+03	6.249911E-16	1.848094E-17
6.890000E+03	6.196214E-16	1.834007E-17
6.900000E+03	6.147166E-16	1.820386E-17
6.910000E+03	6.103316E-16	1.807379E-17
6.920000E+03	6.064879E-16	1.795037E-17
6.930000E+03	6.032055E-16	1.783409E-17
6.940000E+03	6.004954E-16	1.772529E-17
6.950000E+03	5.983593E-16	1.762411E-17
6.960000E+03	5.967908E-16	1.753059E-17
6.970000E+03	5.957752E-16	1.744468E-17
6.980000E+03	5.952901E-16	1.736626E-17
6.990000E+03	5.952984E-16	1.729492E-17
7.000000E+03	5.957809E-16	1.723090E-17
7.010000E+03	5.966807E-16	1.717346E-17
7.020000E+03	5.979689E-16	1.712272E-17
7.030000E+03	5.995810E-16	1.707777E-17
7.040000E+03	6.014668E-16	1.703813E-17
7.050000E+03	6.035922E-16	1.700372E-17
7.060000E+03	6.058824E-16	1.697326E-17
7.070000E+03	6.083141E-16	1.694685E-17
7.080000E+03	6.108255E-16	1.692343E-17
7.090000E+03	6.133746E-16	1.690244E-17
7.100000E+03	6.159238E-16	1.688331E-17
7.110000E+03	6.184483E-16	1.686575E-17
7.120000E+03	6.209021E-16	1.684882E-17
7.130000E+03	6.232691E-16	1.683230E-17
7.140000E+03	6.255377E-16	1.681597E-17
7.150000E+03	6.276651E-16	1.679861E-17
7.160000E+03	6.296640E-16	1.678035E-17
7.170000E+03	6.314971E-16	1.675980E-17
7.180000E+03	6.331724E-16	1.673666E-17
7.190000E+03	6.346723E-16	1.670990E-17
7.200000E+03	6.359879E-16	1.667868E-17
7.210000E+03	6.371003E-16	1.664203E-17
7.220000E+03	6.379985E-16	1.659928E-17
7.230000E+03	6.386792E-16	1.655020E-17
7.240000E+03	6.391197E-16	1.649428E-17
7.250000E+03	6.392963E-16	1.643125E-17
7.260000E+03	6.392029E-16	1.636153E-17
7.270000E+03	6.388061E-16	1.628502E-17
7.280000E+03	6.381097E-16	1.620270E-17
7.290000E+03	6.370825E-16	1.611471E-17
7.300000E+03	6.357137E-16	1.602171E-17
7.310000E+03	6.339864E-16	1.592412E-17
7.320000E+03	6.319052E-16	1.582274E-17
7.330000E+03	6.294604E-16	1.571773E-17
7.340000E+03	6.266555E-16	1.560929E-17
7.350000E+03	6.234892E-16	1.549711E-17
7.360000E+03	6.199646E-16	1.538060E-17
7.370000E+03	6.161067E-16	1.525934E-17
7.380000E+03	6.119177E-16	1.513200E-17
7.390000E+03	6.074382E-16	1.499791E-17
7.400000E+03	6.026675E-16	1.485514E-17
7.410000E+03	5.976509E-16	1.470265E-17
7.420000E+03	5.924001E-16	1.453841E-17
7.430000E+03	5.869535E-16	1.436086E-17
7.440000E+03	5.813320E-16	1.416798E-17
7.450000E+03	5.755731E-16	1.395814E-17
7.460000E+03	5.697040E-16	1.372961E-17
7.470000E+03	5.637498E-16	1.348084E-17
7.480000E+03	5.577336E-16	1.321057E-17
7.490000E+03	5.516756E-16	1.291790E-17
7.500000E+03	5.456097E-16	1.260281E-17
7.510000E+03	5.395343E-16	1.226512E-17
7.520000E+03	5.334773E-16	1.190616E-17
7.530000E+03	5.274478E-16	1.152783E-17
7.540000E+03	5.214526E-16	1.113318E-17
7.550000E+03	5.155116E-16	1.072698E-17
7.560000E+03	5.096117E-16	1.031498E-17
7.570000E+03	5.037610E-16	9.905329E-18
7.580000E+03	4.979660E-16	9.508272E-18
7.590000E+03	4.922241E-16	9.136116E-18
7.600000E+03	4.865311E-16	8.803256E-18
7.610000E+03	4.808894E-16	8.525738E-18
7.620000E+03	4.752861E-16	8.319663E-18
7.630000E+03	4.697231E-16	8.199663E-18
7.640000E+03	4.641895E-16	8.175348E-18
7.650000E+03	4.587008E-16	8.248628E-18
7.660000E+03	4.532554E-16	8.412443E-18
7.670000E+03	4.478616E-16	8.654330E-18
7.680000E+03	4.425343E-16	8.959795E-18
7.690000E+03	4.372740E-16	9.314172E-18
7.700000E+03	4.320874E-16	9.704339E-18
7.710000E+03	4.269864E-16	1.011937E-17
7.720000E+03	4.219688E-16	1.055021E-17
7.730000E+03	4.170445E-16	1.099019E-17
7.740000E+03	4.122096E-16	1.143412E-17
7.750000E+03	4.074655E-16	1.187849E-17
7.760000E+03	4.028133E-16	1.232104E-17
