#wls	flux	fluxerr
1.600000E+03	2.053993E-16	1.643642E-16
1.640000E+03	2.085589E-16	1.656243E-16
1.680000E+03	2.117349E-16	1.668213E-16
1.720000E+03	2.149591E-16	1.679775E-16
1.760000E+03	2.182256E-16	1.690849E-16
1.800000E+03	2.215678E-16	1.701657E-16
1.840000E+03	2.249797E-16	1.712111E-16
1.880000E+03	2.284956E-16	1.722428E-16
1.920000E+03	2.321090E-16	1.732511E-16
1.960000E+03	2.358547E-16	1.742563E-16
2.000000E+03	2.397252E-16	1.752472E-16
2.040000E+03	2.437976E-16	1.762735E-16
2.080000E+03	2.480209E-16	1.772907E-16
2.120000E+03	2.525152E-16	1.783764E-16
2.160000E+03	2.572268E-16	1.794829E-16
2.200000E+03	2.622314E-16	1.806530E-16
2.240000E+03	2.674702E-16	1.818352E-16
2.280000E+03	2.729255E-16	1.830071E-16
2.320000E+03	2.785762E-16	1.841447E-16
2.360000E+03	2.843983E-16	1.852225E-16
2.400000E+03	2.903643E-16	1.862135E-16
2.440000E+03	2.963528E-16	1.870323E-16
2.480000E+03	3.024204E-16	1.877093E-16
2.520000E+03	3.084393E-16	1.881595E-16
2.560000E+03	3.143698E-16	1.883568E-16
2.600000E+03	3.202152E-16	1.883018E-16
2.640000E+03	3.258408E-16	1.879159E-16
2.680000E+03	3.312907E-16	1.872282E-16
2.720000E+03	3.365167E-16	1.862148E-16
2.760000E+03	3.414253E-16	1.848303E-16
2.800000E+03	3.459676E-16	1.830578E-16
2.840000E+03	3.500949E-16	1.808839E-16
2.880000E+03	3.536748E-16	1.782559E-16
2.920000E+03	3.566649E-16	1.751733E-16
2.960000E+03	3.590260E-16	1.716400E-16
3.000000E+03	3.608025E-16	1.677024E-16
3.010000E+03	3.611572E-16	1.666585E-16
3.020000E+03	3.614552E-16	1.655820E-16
3.030000E+03	3.617356E-16	1.644914E-16
3.040000E+03	3.619584E-16	1.633687E-16
3.050000E+03	3.622014E-16	1.622494E-16
3.060000E+03	3.623469E-16	1.610811E-16
3.070000E+03	3.625108E-16	1.599159E-16
3.080000E+03	3.626153E-16	1.587196E-16
3.090000E+03	3.626982E-16	1.575093E-16
3.100000E+03	3.627589E-16	1.562850E-16
3.110000E+03	3.627964E-16	1.550466E-16
3.120000E+03	3.628102E-16	1.537941E-16
3.130000E+03	3.627994E-16	1.525275E-16
3.140000E+03	3.627266E-16	1.512316E-16
3.150000E+03	3.627015E-16	1.499522E-16
3.160000E+03	3.626130E-16	1.486436E-16
3.170000E+03	3.625333E-16	1.473358E-16
3.180000E+03	3.624253E-16	1.460137E-16
3.190000E+03	3.622882E-16	1.446776E-16
3.200000E+03	3.621921E-16	1.433554E-16
3.210000E+03	3.620648E-16	1.420185E-16
3.220000E+03	3.619403E-16	1.406805E-16
3.230000E+03	3.617831E-16	1.393279E-16
3.240000E+03	3.616607E-16	1.379868E-16
3.250000E+03	3.615373E-16	1.366433E-16
3.260000E+03	3.614450E-16	1.353097E-16
3.270000E+03	3.613485E-16	1.339725E-16
3.280000E+03	3.612464E-16	1.326314E-16
3.290000E+03	3.612030E-16	1.313099E-16
3.300000E+03	3.611504E-16	1.299831E-16
3.310000E+03	3.611518E-16	1.286736E-16
3.320000E+03	3.611404E-16	1.273574E-16
3.330000E+03	3.612098E-16	1.260675E-16
3.340000E+03	3.612937E-16	1.247800E-16
3.350000E+03	3.614210E-16	1.235050E-16
3.360000E+03	3.615888E-16	1.222409E-16
3.370000E+03	3.618248E-16	1.209968E-16
3.380000E+03	3.621251E-16	1.197707E-16
3.390000E+03	3.624564E-16	1.185511E-16
3.400000E+03	3.628748E-16	1.173559E-16
3.410000E+03	3.633467E-16	1.161736E-16
3.420000E+03	3.638684E-16	1.150026E-16
3.430000E+03	3.644935E-16	1.138590E-16
3.440000E+03	3.652168E-16	1.127404E-16
3.450000E+03	3.660050E-16	1.116356E-16
3.460000E+03	3.668537E-16	1.105428E-16
3.470000E+03	3.678409E-16	1.094845E-16
3.480000E+03	3.688785E-16	1.084336E-16
3.490000E+03	3.700424E-16	1.074116E-16
3.500000E+03	3.712997E-16	1.064078E-16
3.510000E+03	3.726445E-16	1.054198E-16
3.520000E+03	3.740968E-16	1.044523E-16
3.530000E+03	3.756503E-16	1.035026E-16
3.540000E+03	3.772986E-16	1.025680E-16
3.550000E+03	3.790601E-16	1.016526E-16
3.560000E+03	3.809034E-16	1.007469E-16
3.570000E+03	3.828466E-16	9.985517E-17
3.580000E+03	3.848829E-16	9.897461E-17
3.590000E+03	3.870294E-16	9.810879E-17
3.600000E+03	3.892318E-16	9.724319E-17
3.610000E+03	3.915077E-16	9.638178E-17
3.620000E+03	3.938738E-16	9.552803E-17
3.630000E+03	3.963006E-16	9.467420E-17
3.640000E+03	3.987821E-16	9.381851E-17
3.650000E+03	4.013347E-16	9.296442E-17
3.660000E+03	4.039302E-16	9.210507E-17
3.670000E+03	4.065632E-16	9.123911E-17
3.680000E+03	4.092287E-16	9.036532E-17
3.690000E+03	4.119425E-16	8.948712E-17
3.700000E+03	4.146782E-16	8.859877E-17
3.710000E+03	4.174315E-16	8.769944E-17
3.720000E+03	4.201977E-16	8.678841E-17
3.730000E+03	4.229925E-16	8.586908E-17
3.740000E+03	4.257526E-16	8.492898E-17
3.750000E+03	4.285334E-16	8.397973E-17
3.760000E+03	4.312927E-16	8.301341E-17
3.770000E+03	4.340465E-16	8.203374E-17
3.780000E+03	4.367731E-16	8.103722E-17
3.790000E+03	4.394885E-16	8.002749E-17
3.800000E+03	4.421540E-16	7.899829E-17
3.810000E+03	4.448039E-16	7.795657E-17
3.820000E+03	4.473836E-16	7.689365E-17
3.830000E+03	4.499445E-16	7.581939E-17
3.840000E+03	4.524507E-16	7.472859E-17
3.850000E+03	4.548853E-16	7.361958E-17
3.860000E+03	4.572816E-16	7.249887E-17
3.870000E+03	4.596065E-16	7.136223E-17
3.880000E+03	4.618608E-16	7.021103E-17
3.890000E+03	4.640611E-16	6.904895E-17
3.900000E+03	4.661926E-16	6.787487E-17
3.910000E+03	4.682261E-16	6.668582E-17
3.920000E+03	4.702092E-16	6.548989E-17
3.930000E+03	4.720988E-16	6.428216E-17
3.940000E+03	4.739123E-16	6.306633E-17
3.950000E+03	4.756380E-16	6.184205E-17
3.960000E+03	4.772934E-16	6.061277E-17
3.970000E+03	4.788534E-16	5.937648E-17
3.980000E+03	4.803360E-16	5.813658E-17
3.990000E+03	4.817314E-16	5.689299E-17
4.000000E+03	4.830440E-16	5.564731E-17
4.010000E+03	4.842654E-16	5.439959E-17
4.020000E+03	4.854138E-16	5.315285E-17
4.030000E+03	4.864686E-16	5.190573E-17
4.040000E+03	4.874483E-16	5.066109E-17
4.050000E+03	4.883463E-16	4.941896E-17
4.060000E+03	4.891688E-16	4.818070E-17
4.070000E+03	4.899221E-16	4.694751E-17
4.080000E+03	4.906007E-16	4.571939E-17
4.090000E+03	4.912232E-16	4.449851E-17
4.100000E+03	4.917616E-16	4.328270E-17
4.110000E+03	4.922575E-16	4.207601E-17
4.120000E+03	4.926839E-16	4.087630E-17
4.130000E+03	4.930705E-16	3.968623E-17
4.140000E+03	4.934022E-16	3.850467E-17
4.150000E+03	4.936971E-16	3.733314E-17
4.160000E+03	4.939515E-16	3.617135E-17
4.170000E+03	4.941620E-16	3.501912E-17
4.180000E+03	4.943565E-16	3.387845E-17
4.190000E+03	4.945310E-16	3.274903E-17
4.200000E+03	4.946821E-16	3.163069E-17
4.210000E+03	4.948262E-16	3.052462E-17
4.220000E+03	4.949595E-16	2.943078E-17
4.230000E+03	4.950879E-16	2.834993E-17
4.240000E+03	4.952269E-16	2.728345E-17
4.250000E+03	4.953627E-16	2.623135E-17
4.260000E+03	4.955194E-16	2.519598E-17
4.270000E+03	4.957016E-16	2.417891E-17
4.280000E+03	4.958954E-16	2.318128E-17
4.290000E+03	4.961236E-16	2.220649E-17
4.300000E+03	4.963900E-16	2.125760E-17
4.310000E+03	4.966894E-16	2.033796E-17
4.320000E+03	4.970256E-16	1.945215E-17
4.330000E+03	4.974108E-16	1.860591E-17
4.340000E+03	4.978483E-16	1.780554E-17
4.350000E+03	4.983327E-16	1.705799E-17
4.360000E+03	4.988842E-16	1.637192E-17
4.370000E+03	4.994891E-16	1.575548E-17
4.380000E+03	5.001592E-16	1.521791E-17
4.390000E+03	5.008899E-16	1.476756E-17
4.400000E+03	5.017012E-16	1.441232E-17
4.410000E+03	5.025810E-16	1.415700E-17
4.420000E+03	5.035342E-16	1.400388E-17
4.430000E+03	5.045650E-16	1.395077E-17
4.440000E+03	5.056768E-16	1.399015E-17
4.450000E+03	5.068733E-16	1.411131E-17
4.460000E+03	5.081507E-16	1.430128E-17
4.470000E+03	5.095210E-16	1.454666E-17
4.480000E+03	5.109812E-16	1.483360E-17
4.490000E+03	5.125434E-16	1.514948E-17
4.500000E+03	5.142125E-16	1.548259E-17
4.510000E+03	5.159782E-16	1.582215E-17
4.520000E+03	5.178605E-16	1.615970E-17
4.530000E+03	5.198569E-16	1.648746E-17
4.540000E+03	5.219723E-16	1.679912E-17
4.550000E+03	5.242121E-16	1.708946E-17
4.560000E+03	5.265812E-16	1.735423E-17
4.570000E+03	5.290779E-16	1.758977E-17
4.580000E+03	5.317076E-16	1.779332E-17
4.590000E+03	5.344761E-16	1.796275E-17
4.600000E+03	5.373822E-16	1.809614E-17
4.610000E+03	5.404392E-16	1.819247E-17
4.620000E+03	5.436461E-16	1.825057E-17
4.630000E+03	5.470094E-16	1.826979E-17
4.640000E+03	5.505279E-16	1.824948E-17
4.650000E+03	5.542150E-16	1.818967E-17
4.660000E+03	5.580618E-16	1.808988E-17
4.670000E+03	5.620880E-16	1.795074E-17
4.680000E+03	5.662831E-16	1.777216E-17
4.690000E+03	5.706576E-16	1.755496E-17
4.700000E+03	5.752059E-16	1.729982E-17
4.710000E+03	5.799284E-16	1.700802E-17
4.720000E+03	5.848235E-16	1.668132E-17
4.730000E+03	5.898950E-16	1.632232E-17
4.740000E+03	5.951232E-16	1.593382E-17
4.750000E+03	6.005078E-16	1.552026E-17
4.760000E+03	6.060322E-16	1.508698E-17
4.770000E+03	6.116852E-16	1.464112E-17
4.780000E+03	6.174541E-16	1.419170E-17
4.790000E+03	6.233243E-16	1.374994E-17
4.800000E+03	6.292731E-16	1.332925E-17
4.810000E+03	6.352914E-16	1.294576E-17
4.820000E+03	6.413550E-16	1.261718E-17
4.830000E+03	6.474546E-16	1.236249E-17
4.840000E+03	6.535739E-16	1.219975E-17
4.850000E+03	6.596977E-16	1.214403E-17
4.860000E+03	6.658202E-16	1.220487E-17
4.870000E+03	6.719159E-16	1.238050E-17
4.880000E+03	6.779933E-16	1.266011E-17
4.890000E+03	6.840463E-16	1.302740E-17
4.900000E+03	6.900612E-16	1.346327E-17
4.910000E+03	6.960393E-16	1.394848E-17
4.920000E+03	7.019723E-16	1.446484E-17
4.930000E+03	7.078580E-16	1.499644E-17
4.940000E+03	7.136753E-16	1.552961E-17
4.950000E+03	7.194082E-16	1.605337E-17
4.960000E+03	7.250457E-16	1.655935E-17
4.970000E+03	7.305659E-16	1.704117E-17
4.980000E+03	7.359363E-16	1.749409E-17
4.990000E+03	7.411469E-16	1.791550E-17
5.000000E+03	7.461626E-16	1.830351E-17
5.010000E+03	7.509564E-16	1.865744E-17
5.020000E+03	7.555114E-16	1.897759E-17
5.030000E+03	7.598052E-16	1.926465E-17
5.040000E+03	7.638110E-16	1.951946E-17
5.050000E+03	7.675241E-16	1.974349E-17
5.060000E+03	7.709374E-16	1.993806E-17
5.070000E+03	7.740588E-16	2.010462E-17
5.080000E+03	7.768859E-16	2.024403E-17
5.090000E+03	7.794313E-16	2.035711E-17
5.100000E+03	7.817215E-16	2.044459E-17
5.110000E+03	7.837710E-16	2.050649E-17
5.120000E+03	7.856235E-16	2.054317E-17
5.130000E+03	7.872916E-16	2.055386E-17
5.140000E+03	7.888148E-16	2.053824E-17
5.150000E+03	7.902247E-16	2.049560E-17
5.160000E+03	7.915614E-16	2.042532E-17
5.170000E+03	7.928475E-16	2.032631E-17
5.180000E+03	7.941128E-16	2.019767E-17
5.190000E+03	7.953859E-16	2.003852E-17
5.200000E+03	7.967107E-16	1.984843E-17
5.210000E+03	7.980879E-16	1.962600E-17
5.220000E+03	7.995583E-16	1.937094E-17
5.230000E+03	8.011450E-16	1.908261E-17
5.240000E+03	8.028697E-16	1.876051E-17
5.250000E+03	8.047528E-16	1.840432E-17
5.260000E+03	8.068054E-16	1.801379E-17
5.270000E+03	8.090539E-16	1.758946E-17
5.280000E+03	8.115154E-16	1.713229E-17
5.290000E+03	8.141970E-16	1.664398E-17
5.300000E+03	8.171301E-16	1.612798E-17
5.310000E+03	8.203190E-16	1.558901E-17
5.320000E+03	8.237664E-16	1.503411E-17
5.330000E+03	8.274979E-16	1.447383E-17
5.340000E+03	8.315028E-16	1.392185E-17
5.350000E+03	8.357917E-16	1.339673E-17
5.360000E+03	8.403703E-16	1.292172E-17
5.370000E+03	8.452120E-16	1.252398E-17
5.380000E+03	8.503062E-16	1.223364E-17
5.390000E+03	8.556304E-16	1.208000E-17
5.400000E+03	8.611213E-16	1.208630E-17
5.410000E+03	8.667151E-16	1.226107E-17
5.420000E+03	8.723034E-16	1.259108E-17
5.430000E+03	8.777691E-16	1.305214E-17
5.440000E+03	8.829566E-16	1.361423E-17
5.450000E+03	8.877391E-16	1.424673E-17
5.460000E+03	8.919614E-16	1.492053E-17
5.470000E+03	8.954894E-16	1.561024E-17
5.480000E+03	8.981786E-16	1.629424E-17
5.490000E+03	8.999058E-16	1.695501E-17
5.500000E+03	9.005726E-16	1.757894E-17
5.510000E+03	9.000911E-16	1.815549E-17
5.520000E+03	8.983959E-16	1.867707E-17
5.530000E+03	8.954380E-16	1.913840E-17
5.540000E+03	8.912138E-16	1.953679E-17
5.550000E+03	8.857310E-16	1.987107E-17
5.560000E+03	8.790623E-16	2.014250E-17
5.570000E+03	8.712570E-16	2.035252E-17
5.580000E+03	8.624366E-16	2.050471E-17
5.590000E+03	8.527139E-16	2.060279E-17
5.600000E+03	8.422675E-16	2.065221E-17
5.610000E+03	8.312438E-16	2.065773E-17
5.620000E+03	8.198456E-16	2.062555E-17
5.630000E+03	8.082683E-16	2.056162E-17
5.640000E+03	7.966957E-16	2.047163E-17
5.650000E+03	7.853435E-16	2.036202E-17
5.660000E+03	7.744066E-16	2.023868E-17
5.670000E+03	7.640639E-16	2.010707E-17
5.680000E+03	7.544907E-16	1.997253E-17
5.690000E+03	7.458559E-16	1.984018E-17
5.700000E+03	7.383051E-16	1.971449E-17
5.710000E+03	7.319600E-16	1.959923E-17
5.720000E+03	7.269321E-16	1.949779E-17
5.730000E+03	7.233221E-16	1.941318E-17
5.740000E+03	7.212051E-16	1.934762E-17
5.750000E+03	7.206305E-16	1.930256E-17
5.760000E+03	7.216435E-16	1.927926E-17
5.770000E+03	7.242628E-16	1.927822E-17
5.780000E+03	7.284801E-16	1.929925E-17
5.790000E+03	7.342734E-16	1.934183E-17
5.800000E+03	7.416059E-16	1.940522E-17
5.810000E+03	7.504029E-16	1.948784E-17
5.820000E+03	7.605801E-16	1.958814E-17
5.830000E+03	7.720199E-16	1.970403E-17
5.840000E+03	7.845706E-16	1.983297E-17
5.850000E+03	7.980613E-16	1.997231E-17
5.860000E+03	8.122943E-16	2.011917E-17
5.870000E+03	8.270474E-16	2.027040E-17
5.880000E+03	8.420844E-16	2.042284E-17
5.890000E+03	8.571349E-16	2.057264E-17
5.900000E+03	8.719152E-16	2.071566E-17
5.910000E+03	8.861603E-16	2.084812E-17
5.920000E+03	8.995725E-16	2.096516E-17
5.930000E+03	9.118890E-16	2.106230E-17
5.940000E+03	9.228553E-16	2.113472E-17
5.950000E+03	9.322241E-16	2.117706E-17
5.960000E+03	9.398160E-16	2.118476E-17
5.970000E+03	9.454719E-16	2.115293E-17
5.980000E+03	9.490559E-16	2.107647E-17
5.990000E+03	9.504946E-16	2.095100E-17
6.000000E+03	9.497775E-16	2.077303E-17
6.010000E+03	9.468906E-16	2.053865E-17
6.020000E+03	9.418965E-16	2.024556E-17
6.030000E+03	9.348830E-16	1.989210E-17
6.040000E+03	9.259583E-16	1.947745E-17
6.050000E+03	9.152632E-16	1.900206E-17
6.060000E+03	9.029554E-16	1.846759E-17
6.070000E+03	8.891871E-16	1.787665E-17
6.080000E+03	8.741435E-16	1.723387E-17
6.090000E+03	8.579859E-16	1.654496E-17
6.100000E+03	8.408999E-16	1.581797E-17
6.110000E+03	8.230342E-16	1.506235E-17
6.120000E+03	8.045567E-16	1.429023E-17
6.130000E+03	7.856279E-16	1.351609E-17
6.140000E+03	7.663780E-16	1.275641E-17
6.150000E+03	7.469451E-16	1.203025E-17
6.160000E+03	7.274675E-16	1.135851E-17
6.170000E+03	7.080544E-16	1.076245E-17
6.180000E+03	6.888236E-16	1.026236E-17
6.190000E+03	6.698933E-16	9.874816E-18
6.200000E+03	6.513751E-16	9.609709E-18
6.210000E+03	6.333737E-16	9.464700E-18
6.220000E+03	6.160108E-16	9.423617E-18
6.230000E+03	5.993683E-16	9.464901E-18
6.240000E+03	5.835391E-16	9.566616E-18
6.250000E+03	5.686062E-16	9.708892E-18
6.260000E+03	5.546318E-16	9.875238E-18
6.270000E+03	5.416748E-16	1.005327E-17
6.280000E+03	5.297895E-16	1.023445E-17
6.290000E+03	5.190102E-16	1.041325E-17
6.300000E+03	5.093626E-16	1.058661E-17
6.310000E+03	5.008738E-16	1.075357E-17
6.320000E+03	4.935525E-16	1.091431E-17
6.330000E+03	4.874046E-16	1.106997E-17
6.340000E+03	4.824185E-16	1.122204E-17
6.350000E+03	4.785903E-16	1.137263E-17
6.360000E+03	4.758986E-16	1.152368E-17
6.370000E+03	4.743197E-16	1.167716E-17
6.380000E+03	4.738128E-16	1.183459E-17
6.390000E+03	4.743440E-16	1.199754E-17
6.400000E+03	4.758574E-16	1.216687E-17
6.410000E+03	4.783046E-16	1.234343E-17
6.420000E+03	4.816155E-16	1.252732E-17
6.430000E+03	4.857239E-16	1.271857E-17
6.440000E+03	4.905533E-16	1.291682E-17
6.450000E+03	4.960335E-16	1.312178E-17
6.460000E+03	5.020700E-16	1.333244E-17
6.470000E+03	5.085874E-16	1.354825E-17
6.480000E+03	5.154985E-16	1.376831E-17
6.490000E+03	5.227163E-16	1.399168E-17
6.500000E+03	5.301544E-16	1.421739E-17
6.510000E+03	5.377400E-16	1.444473E-17
6.520000E+03	5.453796E-16	1.467235E-17
6.530000E+03	5.530002E-16	1.489935E-17
6.540000E+03	5.605267E-16	1.512462E-17
6.550000E+03	5.678869E-16	1.534704E-17
6.560000E+03	5.750127E-16	1.556547E-17
6.570000E+03	5.818452E-16	1.577893E-17
6.580000E+03	5.883097E-16	1.598590E-17
6.590000E+03	5.943537E-16	1.618537E-17
6.600000E+03	5.999279E-16	1.637634E-17
6.610000E+03	6.049731E-16	1.655741E-17
6.620000E+03	6.094404E-16	1.672734E-17
6.630000E+03	6.132920E-16	1.688509E-17
6.640000E+03	6.164889E-16	1.702941E-17
6.650000E+03	6.189910E-16	1.715891E-17
6.660000E+03	6.207866E-16	1.727284E-17
6.670000E+03	6.218443E-16	1.736979E-17
6.680000E+03	6.221702E-16	1.744930E-17
6.690000E+03	6.217586E-16	1.751050E-17
6.700000E+03	6.206285E-16	1.755320E-17
6.710000E+03	6.187948E-16	1.757702E-17
6.720000E+03	6.163037E-16	1.758254E-17
6.730000E+03	6.131821E-16	1.756978E-17
6.740000E+03	6.094944E-16	1.753988E-17
6.750000E+03	6.052910E-16	1.749363E-17
6.760000E+03	6.006428E-16	1.743250E-17
6.770000E+03	5.956119E-16	1.735771E-17
6.780000E+03	5.902785E-16	1.727111E-17
6.790000E+03	5.847108E-16	1.717421E-17
6.800000E+03	5.789996E-16	1.706926E-17
6.810000E+03	5.732143E-16	1.695788E-17
6.820000E+03	5.674299E-16	1.684192E-17
6.830000E+03	5.617191E-16	1.672315E-17
6.840000E+03	5.561580E-16	1.660352E-17
6.850000E+03	5.508046E-16	1.648444E-17
6.860000E+03	5.457188E-16	1.636743E-17
6.870000E+03	5.409680E-16	1.625427E-17
6.880000E+03	5.365803E-16	1.614561E-17
6.890000E+03	5.326169E-16	1.604311E-17
6.900000E+03	5.290992E-16	1.594729E-17
6.910000E+03	5.260610E-16	1.585906E-17
6.920000E+03	5.235225E-16	1.577898E-17
6.930000E+03	5.214969E-16	1.570741E-17
6.940000E+03	5.199898E-16	1.564457E-17
6.950000E+03	5.189936E-16	1.559031E-17
6.960000E+03	5.185135E-16	1.554496E-17
6.970000E+03	5.185220E-16	1.550793E-17
6.980000E+03	5.190053E-16	1.547910E-17
6.990000E+03	5.199375E-16	1.545809E-17
7.000000E+03	5.212877E-16	1.544440E-17
7.010000E+03	5.230142E-16	1.543730E-17
7.020000E+03	5.250848E-16	1.543636E-17
7.030000E+03	5.274583E-16	1.544089E-17
7.040000E+03	5.300847E-16	1.544998E-17
7.050000E+03	5.329269E-16	1.546307E-17
7.060000E+03	5.359409E-16	1.547940E-17
7.070000E+03	5.390700E-16	1.549780E-17
7.080000E+03	5.422865E-16	1.551793E-17
7.090000E+03	5.455445E-16	1.553884E-17
7.100000E+03	5.488079E-16	1.555983E-17
7.110000E+03	5.520436E-16	1.558022E-17
7.120000E+03	5.552152E-16	1.559916E-17
7.130000E+03	5.583038E-16	1.561620E-17
7.140000E+03	5.612869E-16	1.563068E-17
7.150000E+03	5.641379E-16	1.564174E-17
7.160000E+03	5.668329E-16	1.564849E-17
7.170000E+03	5.693647E-16	1.565039E-17
7.180000E+03	5.717205E-16	1.564669E-17
7.190000E+03	5.738814E-16	1.563642E-17
7.200000E+03	5.758360E-16	1.561883E-17
7.210000E+03	5.775731E-16	1.559319E-17
7.220000E+03	5.790733E-16	1.555866E-17
7.230000E+03	5.803317E-16	1.551489E-17
7.240000E+03	5.813197E-16	1.546108E-17
7.250000E+03	5.820233E-16	1.539700E-17
7.260000E+03	5.824279E-16	1.532257E-17
7.270000E+03	5.825185E-16	1.523793E-17
7.280000E+03	5.822658E-16	1.514301E-17
7.290000E+03	5.816716E-16	1.503871E-17
7.300000E+03	5.807015E-16	1.492511E-17
7.310000E+03	5.793539E-16	1.480321E-17
7.320000E+03	5.776150E-16	1.467371E-17
7.330000E+03	5.754749E-16	1.453735E-17
7.340000E+03	5.729351E-16	1.439502E-17
7.350000E+03	5.699943E-16	1.424733E-17
7.360000E+03	5.666634E-16	1.409489E-17
7.370000E+03	5.629506E-16	1.393790E-17
7.380000E+03	5.588690E-16	1.377627E-17
7.390000E+03	5.544358E-16	1.360954E-17
7.400000E+03	5.496796E-16	1.343709E-17
7.410000E+03	5.446321E-16	1.325793E-17
7.420000E+03	5.393130E-16	1.307035E-17
7.430000E+03	5.337579E-16	1.287271E-17
7.440000E+03	5.280031E-16	1.266312E-17
7.450000E+03	5.220845E-16	1.243955E-17
7.460000E+03	5.160435E-16	1.220012E-17
7.470000E+03	5.099128E-16	1.194282E-17
7.480000E+03	5.037222E-16	1.166587E-17
7.490000E+03	4.975121E-16	1.136810E-17
7.500000E+03	4.913057E-16	1.104847E-17
7.510000E+03	4.851226E-16	1.070653E-17
7.520000E+03	4.789917E-16	1.034289E-17
7.530000E+03	4.729250E-16	9.958737E-18
7.540000E+03	4.669310E-16	9.556438E-18
7.550000E+03	4.610214E-16	9.139875E-18
7.560000E+03	4.551983E-16	8.714501E-18
7.570000E+03	4.494733E-16	8.288064E-18
7.580000E+03	4.438313E-16	7.870281E-18
7.590000E+03	4.382857E-16	7.474174E-18
7.600000E+03	4.328244E-16	7.115163E-18
7.610000E+03	4.274406E-16	6.811199E-18
7.620000E+03	4.221336E-16	6.581449E-18
7.630000E+03	4.168918E-16	6.443616E-18
7.640000E+03	4.117277E-16	6.411216E-18
7.650000E+03	4.066216E-16	6.487034E-18
7.660000E+03	4.015843E-16	6.661987E-18
7.670000E+03	3.966222E-16	6.921036E-18
7.680000E+03	3.917211E-16	7.246454E-18
7.690000E+03	3.869003E-16	7.621462E-18
7.700000E+03	3.821629E-16	8.031036E-18
7.710000E+03	3.775012E-16	8.462614E-18
7.720000E+03	3.729234E-16	8.906686E-18
7.730000E+03	3.684372E-16	9.356217E-18
7.740000E+03	3.640389E-16	9.805983E-18
7.750000E+03	3.597299E-16	1.025255E-17
7.760000E+03	3.555107E-16	1.069380E-17
