#wls	flux	fluxerr
1.600000E+03	1.458037E-16	1.182286E-16
1.640000E+03	1.483410E-16	1.194511E-16
1.680000E+03	1.509244E-16	1.206578E-16
1.720000E+03	1.535207E-16	1.218198E-16
1.760000E+03	1.561835E-16	1.229774E-16
1.800000E+03	1.588490E-16	1.240776E-16
1.840000E+03	1.616020E-16	1.251843E-16
1.880000E+03	1.643459E-16	1.262198E-16
1.920000E+03	1.671668E-16	1.272478E-16
1.960000E+03	1.699959E-16	1.282129E-16
2.000000E+03	1.728894E-16	1.291549E-16
2.040000E+03	1.758079E-16	1.300412E-16
2.080000E+03	1.787425E-16	1.308627E-16
2.120000E+03	1.817502E-16	1.316581E-16
2.160000E+03	1.847551E-16	1.323693E-16
2.200000E+03	1.878472E-16	1.330578E-16
2.240000E+03	1.909138E-16	1.336405E-16
2.280000E+03	1.940444E-16	1.341776E-16
2.320000E+03	1.972262E-16	1.346566E-16
2.360000E+03	2.004102E-16	1.350407E-16
2.400000E+03	2.036152E-16	1.353401E-16
2.440000E+03	2.068940E-16	1.355866E-16
2.480000E+03	2.101585E-16	1.357190E-16
2.520000E+03	2.134585E-16	1.357671E-16
2.560000E+03	2.168076E-16	1.357361E-16
2.600000E+03	2.201475E-16	1.355863E-16
2.640000E+03	2.235572E-16	1.353638E-16
2.680000E+03	2.269744E-16	1.350272E-16
2.720000E+03	2.304383E-16	1.345969E-16
2.760000E+03	2.339503E-16	1.340701E-16
2.800000E+03	2.375086E-16	1.334424E-16
2.840000E+03	2.411081E-16	1.327072E-16
2.880000E+03	2.447727E-16	1.318744E-16
2.920000E+03	2.485212E-16	1.309496E-16
2.960000E+03	2.523662E-16	1.299347E-16
3.000000E+03	2.563141E-16	1.288279E-16
3.010000E+03	2.573383E-16	1.285467E-16
3.020000E+03	2.583502E-16	1.282499E-16
3.030000E+03	2.593490E-16	1.279373E-16
3.040000E+03	2.603955E-16	1.276387E-16
3.050000E+03	2.614267E-16	1.273229E-16
3.060000E+03	2.624723E-16	1.270045E-16
3.070000E+03	2.635007E-16	1.266681E-16
3.080000E+03	2.645713E-16	1.263423E-16
3.090000E+03	2.656524E-16	1.260114E-16
3.100000E+03	2.667129E-16	1.256609E-16
3.110000E+03	2.678113E-16	1.253182E-16
3.120000E+03	2.689162E-16	1.249684E-16
3.130000E+03	2.700263E-16	1.246108E-16
3.140000E+03	2.711403E-16	1.242447E-16
3.150000E+03	2.722858E-16	1.238826E-16
3.160000E+03	2.734034E-16	1.234974E-16
3.170000E+03	2.745780E-16	1.231275E-16
3.180000E+03	2.757221E-16	1.227332E-16
3.190000E+03	2.769194E-16	1.223519E-16
3.200000E+03	2.780834E-16	1.219451E-16
3.210000E+03	2.792969E-16	1.215491E-16
3.220000E+03	2.805021E-16	1.211385E-16
3.230000E+03	2.817250E-16	1.207245E-16
3.240000E+03	2.829639E-16	1.203061E-16
3.250000E+03	2.842167E-16	1.198825E-16
3.260000E+03	2.854815E-16	1.194525E-16
3.270000E+03	2.867565E-16	1.190154E-16
3.280000E+03	2.880398E-16	1.185702E-16
3.290000E+03	2.893556E-16	1.181267E-16
3.300000E+03	2.906755E-16	1.176731E-16
3.310000E+03	2.919976E-16	1.172086E-16
3.320000E+03	2.933456E-16	1.167426E-16
3.330000E+03	2.946916E-16	1.162639E-16
3.340000E+03	2.960590E-16	1.157815E-16
3.350000E+03	2.974452E-16	1.152944E-16
3.360000E+03	2.988480E-16	1.148014E-16
3.370000E+03	3.002647E-16	1.143014E-16
3.380000E+03	3.017173E-16	1.138024E-16
3.390000E+03	3.031547E-16	1.132852E-16
3.400000E+03	3.045989E-16	1.127579E-16
3.410000E+03	3.060948E-16	1.122370E-16
3.420000E+03	3.075687E-16	1.116952E-16
3.430000E+03	3.090883E-16	1.111571E-16
3.440000E+03	3.106043E-16	1.106047E-16
3.450000E+03	3.121371E-16	1.100452E-16
3.460000E+03	3.136838E-16	1.094774E-16
3.470000E+03	3.152417E-16	1.089004E-16
3.480000E+03	3.168080E-16	1.083130E-16
3.490000E+03	3.184018E-16	1.077216E-16
3.500000E+03	3.199980E-16	1.071177E-16
3.510000E+03	3.216155E-16	1.065073E-16
3.520000E+03	3.232298E-16	1.058824E-16
3.530000E+03	3.248801E-16	1.052558E-16
3.540000E+03	3.265420E-16	1.046191E-16
3.550000E+03	3.281921E-16	1.039650E-16
3.560000E+03	3.298682E-16	1.033054E-16
3.570000E+03	3.315668E-16	1.026391E-16
3.580000E+03	3.332645E-16	1.019587E-16
3.590000E+03	3.349781E-16	1.012692E-16
3.600000E+03	3.367041E-16	1.005696E-16
3.610000E+03	3.384201E-16	9.985320E-17
3.620000E+03	3.401613E-16	9.913033E-17
3.630000E+03	3.419052E-16	9.839434E-17
3.640000E+03	3.436670E-16	9.764962E-17
3.650000E+03	3.454250E-16	9.688990E-17
3.660000E+03	3.471942E-16	9.611947E-17
3.670000E+03	3.489713E-16	9.533733E-17
3.680000E+03	3.507528E-16	9.454256E-17
3.690000E+03	3.525355E-16	9.373433E-17
3.700000E+03	3.543334E-16	9.291635E-17
3.710000E+03	3.561093E-16	9.207889E-17
3.720000E+03	3.579106E-16	9.123439E-17
3.730000E+03	3.597006E-16	9.037342E-17
3.740000E+03	3.615091E-16	8.950353E-17
3.750000E+03	3.633004E-16	8.861590E-17
3.760000E+03	3.650879E-16	8.771402E-17
3.770000E+03	3.668843E-16	8.680102E-17
3.780000E+03	3.686710E-16	8.587254E-17
3.790000E+03	3.704606E-16	8.493167E-17
3.800000E+03	3.722353E-16	8.397440E-17
3.810000E+03	3.740074E-16	8.300377E-17
3.820000E+03	3.757745E-16	8.201930E-17
3.830000E+03	3.775339E-16	8.102060E-17
3.840000E+03	3.792834E-16	8.000733E-17
3.850000E+03	3.810210E-16	7.897925E-17
3.860000E+03	3.827445E-16	7.793616E-17
3.870000E+03	3.844659E-16	7.688065E-17
3.880000E+03	3.861696E-16	7.580976E-17
3.890000E+03	3.878542E-16	7.472350E-17
3.900000E+03	3.895314E-16	7.362436E-17
3.910000E+03	3.911870E-16	7.250983E-17
3.920000E+03	3.928328E-16	7.138234E-17
3.930000E+03	3.944550E-16	7.023965E-17
3.940000E+03	3.960534E-16	6.908199E-17
3.950000E+03	3.976396E-16	6.791170E-17
3.960000E+03	3.992014E-16	6.672686E-17
3.970000E+03	4.007505E-16	6.552974E-17
3.980000E+03	4.022637E-16	6.431681E-17
3.990000E+03	4.037647E-16	6.309221E-17
4.000000E+03	4.052427E-16	6.185444E-17
4.010000E+03	4.066875E-16	6.060227E-17
4.020000E+03	4.081115E-16	5.933792E-17
4.030000E+03	4.095054E-16	5.806031E-17
4.040000E+03	4.108711E-16	5.677006E-17
4.050000E+03	4.122211E-16	5.546919E-17
4.060000E+03	4.135366E-16	5.415548E-17
4.070000E+03	4.148207E-16	5.282968E-17
4.080000E+03	4.160862E-16	5.149380E-17
4.090000E+03	4.173163E-16	5.014604E-17
4.100000E+03	4.185147E-16	4.878728E-17
4.110000E+03	4.196947E-16	4.741944E-17
4.120000E+03	4.208411E-16	4.604113E-17
4.130000E+03	4.219583E-16	4.465327E-17
4.140000E+03	4.230418E-16	4.325583E-17
4.150000E+03	4.241054E-16	4.185067E-17
4.160000E+03	4.251361E-16	4.043696E-17
4.170000E+03	4.261392E-16	3.901573E-17
4.180000E+03	4.271203E-16	3.758802E-17
4.190000E+03	4.280676E-16	3.615338E-17
4.200000E+03	4.289874E-16	3.471306E-17
4.210000E+03	4.298855E-16	3.326825E-17
4.220000E+03	4.307598E-16	3.181957E-17
4.230000E+03	4.316084E-16	3.036780E-17
4.240000E+03	4.324295E-16	2.891391E-17
4.250000E+03	4.332297E-16	2.745960E-17
4.260000E+03	4.340150E-16	2.600666E-17
4.270000E+03	4.347760E-16	2.455622E-17
4.280000E+03	4.355112E-16	2.311031E-17
4.290000E+03	4.362340E-16	2.167222E-17
4.300000E+03	4.369420E-16	2.024491E-17
4.310000E+03	4.376327E-16	1.883221E-17
4.320000E+03	4.383030E-16	1.743907E-17
4.330000E+03	4.389636E-16	1.607247E-17
4.340000E+03	4.396095E-16	1.474086E-17
4.350000E+03	4.402417E-16	1.345581E-17
4.360000E+03	4.408598E-16	1.223289E-17
4.370000E+03	4.414614E-16	1.109315E-17
4.380000E+03	4.420419E-16	1.006482E-17
4.390000E+03	4.426012E-16	9.184760E-18
4.400000E+03	4.431360E-16	8.497397E-18
4.410000E+03	4.436333E-16	8.049063E-18
4.420000E+03	4.440836E-16	7.875952E-18
4.430000E+03	4.444953E-16	7.981703E-18
4.440000E+03	4.448819E-16	8.326063E-18
4.450000E+03	4.452772E-16	8.851799E-18
4.460000E+03	4.456926E-16	9.501579E-18
4.470000E+03	4.461372E-16	1.022708E-17
4.480000E+03	4.466175E-16	1.099110E-17
4.490000E+03	4.471444E-16	1.176635E-17
4.500000E+03	4.477026E-16	1.253245E-17
4.510000E+03	4.483120E-16	1.327542E-17
4.520000E+03	4.489548E-16	1.398416E-17
4.530000E+03	4.496425E-16	1.465114E-17
4.540000E+03	4.503618E-16	1.527007E-17
4.550000E+03	4.511223E-16	1.583678E-17
4.560000E+03	4.519155E-16	1.634757E-17
4.570000E+03	4.527495E-16	1.680012E-17
4.580000E+03	4.536149E-16	1.719205E-17
4.590000E+03	4.545131E-16	1.752187E-17
4.600000E+03	4.554454E-16	1.778847E-17
4.610000E+03	4.564123E-16	1.799104E-17
4.620000E+03	4.574144E-16	1.812903E-17
4.630000E+03	4.584462E-16	1.820192E-17
4.640000E+03	4.595129E-16	1.820984E-17
4.650000E+03	4.606143E-16	1.815292E-17
4.660000E+03	4.617440E-16	1.803128E-17
4.670000E+03	4.629013E-16	1.784551E-17
4.680000E+03	4.640904E-16	1.759666E-17
4.690000E+03	4.653047E-16	1.728563E-17
4.700000E+03	4.665482E-16	1.691412E-17
4.710000E+03	4.678191E-16	1.648399E-17
4.720000E+03	4.691102E-16	1.599745E-17
4.730000E+03	4.704196E-16	1.545754E-17
4.740000E+03	4.717504E-16	1.486830E-17
4.750000E+03	4.730949E-16	1.423448E-17
4.760000E+03	4.744506E-16	1.356239E-17
4.770000E+03	4.758256E-16	1.286052E-17
4.780000E+03	4.772062E-16	1.213924E-17
4.790000E+03	4.785998E-16	1.141285E-17
4.800000E+03	4.799978E-16	1.069972E-17
4.810000E+03	4.814018E-16	1.002425E-17
4.820000E+03	4.828076E-16	9.417722E-18
4.830000E+03	4.842109E-16	8.918812E-18
4.840000E+03	4.856120E-16	8.571762E-18
4.850000E+03	4.870111E-16	8.420544E-18
4.860000E+03	4.884080E-16	8.497835E-18
4.870000E+03	4.897945E-16	8.801250E-18
4.880000E+03	4.911858E-16	9.299566E-18
4.890000E+03	4.925700E-16	9.952352E-18
4.900000E+03	4.939563E-16	1.071985E-17
4.910000E+03	4.953426E-16	1.156717E-17
4.920000E+03	4.967322E-16	1.246602E-17
4.930000E+03	4.981225E-16	1.339404E-17
4.940000E+03	4.995164E-16	1.433393E-17
4.950000E+03	5.009057E-16	1.527198E-17
4.960000E+03	5.022927E-16	1.619759E-17
4.970000E+03	5.036800E-16	1.710238E-17
4.980000E+03	5.050590E-16	1.797919E-17
4.990000E+03	5.064321E-16	1.882245E-17
5.000000E+03	5.077960E-16	1.962730E-17
5.010000E+03	5.091476E-16	2.038961E-17
5.020000E+03	5.104892E-16	2.110603E-17
5.030000E+03	5.118122E-16	2.177321E-17
5.040000E+03	5.131134E-16	2.238841E-17
5.050000E+03	5.143951E-16	2.294939E-17
5.060000E+03	5.156595E-16	2.345424E-17
5.070000E+03	5.168928E-16	2.390051E-17
5.080000E+03	5.180917E-16	2.428645E-17
5.090000E+03	5.192641E-16	2.461101E-17
5.100000E+03	5.204069E-16	2.487282E-17
5.110000E+03	5.215061E-16	2.507014E-17
5.120000E+03	5.225695E-16	2.520243E-17
5.130000E+03	5.235888E-16	2.526855E-17
5.140000E+03	5.245662E-16	2.526802E-17
5.150000E+03	5.254933E-16	2.520001E-17
5.160000E+03	5.263670E-16	2.506412E-17
5.170000E+03	5.271953E-16	2.486063E-17
5.180000E+03	5.279641E-16	2.458900E-17
5.190000E+03	5.286760E-16	2.424963E-17
5.200000E+03	5.293278E-16	2.384293E-17
5.210000E+03	5.299110E-16	2.336926E-17
5.220000E+03	5.304335E-16	2.283002E-17
5.230000E+03	5.308868E-16	2.222619E-17
5.240000E+03	5.312677E-16	2.155935E-17
5.250000E+03	5.315732E-16	2.083155E-17
5.260000E+03	5.318057E-16	2.004553E-17
5.270000E+03	5.319565E-16	1.920429E-17
5.280000E+03	5.320282E-16	1.831206E-17
5.290000E+03	5.320121E-16	1.737373E-17
5.300000E+03	5.319108E-16	1.639597E-17
5.310000E+03	5.317158E-16	1.538697E-17
5.320000E+03	5.314351E-16	1.435798E-17
5.330000E+03	5.310551E-16	1.332316E-17
5.340000E+03	5.305785E-16	1.230212E-17
5.350000E+03	5.300029E-16	1.132116E-17
5.360000E+03	5.293311E-16	1.041584E-17
5.370000E+03	5.285504E-16	9.632518E-18
5.380000E+03	5.276696E-16	9.028878E-18
5.390000E+03	5.266870E-16	8.667334E-18
5.400000E+03	5.255908E-16	8.600627E-18
5.410000E+03	5.243919E-16	8.844482E-18
5.420000E+03	5.230884E-16	9.362410E-18
5.430000E+03	5.216892E-16	1.009664E-17
5.440000E+03	5.201932E-16	1.098770E-17
5.450000E+03	5.186102E-16	1.198485E-17
5.460000E+03	5.169395E-16	1.304836E-17
5.470000E+03	5.151860E-16	1.414868E-17
5.480000E+03	5.133599E-16	1.526428E-17
5.490000E+03	5.114614E-16	1.637914E-17
5.500000E+03	5.095008E-16	1.748171E-17
5.510000E+03	5.074735E-16	1.856294E-17
5.520000E+03	5.053952E-16	1.961664E-17
5.530000E+03	5.032664E-16	2.063772E-17
5.540000E+03	5.010978E-16	2.162264E-17
5.550000E+03	4.988852E-16	2.256818E-17
5.560000E+03	4.966441E-16	2.347268E-17
5.570000E+03	4.943753E-16	2.433438E-17
5.580000E+03	4.920842E-16	2.515219E-17
5.590000E+03	4.897764E-16	2.592538E-17
5.600000E+03	4.874572E-16	2.665351E-17
5.610000E+03	4.851318E-16	2.733638E-17
5.620000E+03	4.828053E-16	2.797400E-17
5.630000E+03	4.804824E-16	2.856653E-17
5.640000E+03	4.781678E-16	2.911425E-17
5.650000E+03	4.758611E-16	2.961726E-17
5.660000E+03	4.735663E-16	3.007603E-17
5.670000E+03	4.712920E-16	3.049137E-17
5.680000E+03	4.690368E-16	3.086358E-17
5.690000E+03	4.668085E-16	3.119354E-17
5.700000E+03	4.646006E-16	3.148128E-17
5.710000E+03	4.624201E-16	3.172771E-17
5.720000E+03	4.602689E-16	3.193346E-17
5.730000E+03	4.581442E-16	3.209882E-17
5.740000E+03	4.560471E-16	3.222438E-17
5.750000E+03	4.539830E-16	3.231101E-17
5.760000E+03	4.519433E-16	3.235864E-17
5.770000E+03	4.499371E-16	3.236838E-17
5.780000E+03	4.479550E-16	3.234010E-17
5.790000E+03	4.460011E-16	3.227456E-17
5.800000E+03	4.440698E-16	3.217185E-17
5.810000E+03	4.421642E-16	3.203269E-17
5.820000E+03	4.402742E-16	3.185680E-17
5.830000E+03	4.384066E-16	3.164518E-17
5.840000E+03	4.365508E-16	3.139752E-17
5.850000E+03	4.347090E-16	3.111447E-17
5.860000E+03	4.328745E-16	3.079604E-17
5.870000E+03	4.310491E-16	3.044287E-17
5.880000E+03	4.292263E-16	3.005499E-17
5.890000E+03	4.274034E-16	2.963276E-17
5.900000E+03	4.255780E-16	2.917657E-17
5.910000E+03	4.237477E-16	2.868685E-17
5.920000E+03	4.219058E-16	2.816380E-17
5.930000E+03	4.200544E-16	2.760821E-17
5.940000E+03	4.181912E-16	2.702069E-17
5.950000E+03	4.163103E-16	2.640162E-17
5.960000E+03	4.144100E-16	2.575177E-17
5.970000E+03	4.124927E-16	2.507225E-17
5.980000E+03	4.105571E-16	2.436400E-17
5.990000E+03	4.085942E-16	2.362764E-17
6.000000E+03	4.066112E-16	2.286488E-17
6.010000E+03	4.046076E-16	2.207710E-17
6.020000E+03	4.025791E-16	2.126567E-17
6.030000E+03	4.005296E-16	2.043261E-17
6.040000E+03	3.984593E-16	1.958000E-17
6.050000E+03	3.963686E-16	1.871023E-17
6.060000E+03	3.942621E-16	1.782628E-17
6.070000E+03	3.921405E-16	1.693143E-17
6.080000E+03	3.900009E-16	1.602939E-17
6.090000E+03	3.878558E-16	1.512535E-17
6.100000E+03	3.856986E-16	1.422469E-17
6.110000E+03	3.835380E-16	1.333472E-17
6.120000E+03	3.813714E-16	1.246405E-17
6.130000E+03	3.792033E-16	1.162374E-17
6.140000E+03	3.770347E-16	1.082753E-17
6.150000E+03	3.748661E-16	1.009249E-17
6.160000E+03	3.726941E-16	9.439301E-18
6.170000E+03	3.705188E-16	8.892193E-18
6.180000E+03	3.683323E-16	8.477096E-18
6.190000E+03	3.661449E-16	8.218931E-18
6.200000E+03	3.639480E-16	8.135763E-18
6.210000E+03	3.617502E-16	8.230533E-18
6.220000E+03	3.595573E-16	8.486224E-18
6.230000E+03	3.573719E-16	8.876899E-18
6.240000E+03	3.552027E-16	9.374260E-18
6.250000E+03	3.530508E-16	9.951399E-18
6.260000E+03	3.509165E-16	1.058512E-17
6.270000E+03	3.488032E-16	1.125662E-17
6.280000E+03	3.467174E-16	1.195128E-17
6.290000E+03	3.446510E-16	1.265734E-17
6.300000E+03	3.426130E-16	1.336636E-17
6.310000E+03	3.406016E-16	1.407165E-17
6.320000E+03	3.386145E-16	1.476807E-17
6.330000E+03	3.366564E-16	1.545201E-17
6.340000E+03	3.347278E-16	1.612068E-17
6.350000E+03	3.328258E-16	1.677181E-17
6.360000E+03	3.309507E-16	1.740387E-17
6.370000E+03	3.291091E-16	1.801611E-17
6.380000E+03	3.272942E-16	1.860742E-17
6.390000E+03	3.255088E-16	1.917748E-17
6.400000E+03	3.237558E-16	1.972621E-17
6.410000E+03	3.220312E-16	2.025330E-17
6.420000E+03	3.203407E-16	2.075920E-17
6.430000E+03	3.186834E-16	2.124403E-17
6.440000E+03	3.170617E-16	2.170825E-17
6.450000E+03	3.154709E-16	2.215193E-17
6.460000E+03	3.139199E-16	2.257611E-17
6.470000E+03	3.124073E-16	2.298120E-17
6.480000E+03	3.109354E-16	2.336788E-17
6.490000E+03	3.095059E-16	2.373689E-17
6.500000E+03	3.081209E-16	2.408897E-17
6.510000E+03	3.067726E-16	2.442411E-17
6.520000E+03	3.054664E-16	2.474335E-17
6.530000E+03	3.041912E-16	2.504639E-17
6.540000E+03	3.029526E-16	2.533427E-17
6.550000E+03	3.017397E-16	2.560667E-17
6.560000E+03	3.005550E-16	2.586435E-17
6.570000E+03	2.993912E-16	2.610722E-17
6.580000E+03	2.982541E-16	2.633631E-17
6.590000E+03	2.971366E-16	2.655154E-17
6.600000E+03	2.960414E-16	2.675365E-17
6.610000E+03	2.949650E-16	2.694281E-17
6.620000E+03	2.939071E-16	2.711947E-17
6.630000E+03	2.928674E-16	2.728408E-17
6.640000E+03	2.918492E-16	2.743739E-17
6.650000E+03	2.908492E-16	2.757953E-17
6.660000E+03	2.898676E-16	2.771095E-17
6.670000E+03	2.889078E-16	2.783237E-17
6.680000E+03	2.879700E-16	2.794424E-17
6.690000E+03	2.870513E-16	2.804664E-17
6.700000E+03	2.861587E-16	2.814062E-17
6.710000E+03	2.852861E-16	2.822595E-17
6.720000E+03	2.844373E-16	2.830333E-17
6.730000E+03	2.836160E-16	2.837345E-17
6.740000E+03	2.828196E-16	2.843638E-17
6.750000E+03	2.820520E-16	2.849278E-17
6.760000E+03	2.813136E-16	2.854300E-17
6.770000E+03	2.806018E-16	2.858703E-17
6.780000E+03	2.799238E-16	2.862583E-17
6.790000E+03	2.792767E-16	2.865937E-17
6.800000E+03	2.786611E-16	2.868792E-17
6.810000E+03	2.780774E-16	2.871173E-17
6.820000E+03	2.775292E-16	2.873136E-17
6.830000E+03	2.770169E-16	2.874701E-17
6.840000E+03	2.765374E-16	2.875856E-17
6.850000E+03	2.760973E-16	2.876681E-17
6.860000E+03	2.756901E-16	2.877124E-17
6.870000E+03	2.753191E-16	2.877229E-17
6.880000E+03	2.749873E-16	2.877038E-17
6.890000E+03	2.746878E-16	2.876490E-17
6.900000E+03	2.744266E-16	2.875655E-17
6.910000E+03	2.742032E-16	2.874532E-17
6.920000E+03	2.740135E-16	2.873086E-17
6.930000E+03	2.738566E-16	2.871309E-17
6.940000E+03	2.737347E-16	2.869228E-17
6.950000E+03	2.736467E-16	2.866831E-17
6.960000E+03	2.735877E-16	2.864068E-17
6.970000E+03	2.735597E-16	2.860957E-17
6.980000E+03	2.735608E-16	2.857476E-17
6.990000E+03	2.735860E-16	2.853568E-17
7.000000E+03	2.736398E-16	2.849276E-17
7.010000E+03	2.737134E-16	2.844500E-17
7.020000E+03	2.738079E-16	2.839245E-17
7.030000E+03	2.739241E-16	2.833510E-17
7.040000E+03	2.740528E-16	2.827189E-17
7.050000E+03	2.741979E-16	2.820312E-17
7.060000E+03	2.743499E-16	2.812769E-17
7.070000E+03	2.745125E-16	2.804585E-17
7.080000E+03	2.746794E-16	2.795679E-17
7.090000E+03	2.748474E-16	2.786006E-17
7.100000E+03	2.750133E-16	2.775514E-17
7.110000E+03	2.751772E-16	2.764190E-17
7.120000E+03	2.753323E-16	2.751948E-17
7.130000E+03	2.754752E-16	2.738733E-17
7.140000E+03	2.756061E-16	2.724530E-17
7.150000E+03	2.757180E-16	2.709248E-17
7.160000E+03	2.758110E-16	2.692870E-17
7.170000E+03	2.758818E-16	2.675341E-17
7.180000E+03	2.759234E-16	2.656575E-17
7.190000E+03	2.759362E-16	2.636552E-17
7.200000E+03	2.759133E-16	2.615188E-17
7.210000E+03	2.758588E-16	2.592500E-17
7.220000E+03	2.757624E-16	2.568371E-17
7.230000E+03	2.756284E-16	2.542821E-17
7.240000E+03	2.754504E-16	2.515773E-17
7.250000E+03	2.752259E-16	2.487183E-17
7.260000E+03	2.749522E-16	2.457012E-17
7.270000E+03	2.746307E-16	2.425256E-17
7.280000E+03	2.742556E-16	2.391849E-17
7.290000E+03	2.738250E-16	2.356763E-17
7.300000E+03	2.733443E-16	2.320032E-17
7.310000E+03	2.728048E-16	2.281574E-17
7.320000E+03	2.722052E-16	2.241373E-17
7.330000E+03	2.715514E-16	2.199475E-17
7.340000E+03	2.708355E-16	2.155814E-17
7.350000E+03	2.700566E-16	2.110390E-17
7.360000E+03	2.692181E-16	2.063237E-17
7.370000E+03	2.683159E-16	2.014337E-17
7.380000E+03	2.673538E-16	1.963735E-17
7.390000E+03	2.663247E-16	1.911405E-17
7.400000E+03	2.652291E-16	1.857382E-17
7.410000E+03	2.640712E-16	1.801734E-17
7.420000E+03	2.628448E-16	1.744466E-17
7.430000E+03	2.615544E-16	1.685664E-17
7.440000E+03	2.601943E-16	1.625360E-17
7.450000E+03	2.587764E-16	1.563707E-17
7.460000E+03	2.572952E-16	1.500765E-17
7.470000E+03	2.557560E-16	1.436671E-17
7.480000E+03	2.541606E-16	1.371561E-17
7.490000E+03	2.525143E-16	1.305612E-17
7.500000E+03	2.508191E-16	1.239009E-17
7.510000E+03	2.490737E-16	1.171953E-17
7.520000E+03	2.472836E-16	1.104725E-17
7.530000E+03	2.454476E-16	1.037627E-17
7.540000E+03	2.435682E-16	9.710490E-18
7.550000E+03	2.416508E-16	9.054874E-18
7.560000E+03	2.396946E-16	8.415315E-18
7.570000E+03	2.377052E-16	7.799518E-18
7.580000E+03	2.356784E-16	7.216846E-18
7.590000E+03	2.336200E-16	6.679423E-18
7.600000E+03	2.315323E-16	6.201960E-18
7.610000E+03	2.294179E-16	5.801685E-18
7.620000E+03	2.272761E-16	5.497073E-18
7.630000E+03	2.251095E-16	5.305367E-18
7.640000E+03	2.229237E-16	5.238632E-18
7.650000E+03	2.207186E-16	5.298134E-18
7.660000E+03	2.184976E-16	5.472871E-18
7.670000E+03	2.162671E-16	5.745098E-18
7.680000E+03	2.140244E-16	6.094476E-18
7.690000E+03	2.117759E-16	6.501857E-18
7.700000E+03	2.095277E-16	6.950845E-18
7.710000E+03	2.072770E-16	7.427973E-18
7.720000E+03	2.050296E-16	7.923029E-18
7.730000E+03	2.027884E-16	8.428188E-18
7.740000E+03	2.005561E-16	8.937584E-18
7.750000E+03	1.983377E-16	9.446981E-18
7.760000E+03	1.961302E-16	9.952897E-18
