#wls	flux	fluxerr
1.600000E+03	1.326942E-16	1.080449E-16
1.640000E+03	1.352608E-16	1.093877E-16
1.680000E+03	1.378788E-16	1.107217E-16
1.720000E+03	1.405449E-16	1.120418E-16
1.760000E+03	1.432552E-16	1.133423E-16
1.800000E+03	1.460318E-16	1.146381E-16
1.840000E+03	1.488438E-16	1.159019E-16
1.880000E+03	1.517129E-16	1.171482E-16
1.920000E+03	1.546340E-16	1.183698E-16
1.960000E+03	1.576010E-16	1.195593E-16
2.000000E+03	1.606071E-16	1.207085E-16
2.040000E+03	1.636738E-16	1.218306E-16
2.080000E+03	1.667936E-16	1.229166E-16
2.120000E+03	1.699581E-16	1.239572E-16
2.160000E+03	1.731878E-16	1.249637E-16
2.200000E+03	1.764426E-16	1.259041E-16
2.240000E+03	1.797718E-16	1.268101E-16
2.280000E+03	1.831024E-16	1.276268E-16
2.320000E+03	1.865131E-16	1.284061E-16
2.360000E+03	1.899902E-16	1.291342E-16
2.400000E+03	1.934870E-16	1.297757E-16
2.440000E+03	1.970488E-16	1.303578E-16
2.480000E+03	2.006256E-16	1.308437E-16
2.520000E+03	2.042915E-16	1.312782E-16
2.560000E+03	2.079929E-16	1.316226E-16
2.600000E+03	2.117372E-16	1.318780E-16
2.640000E+03	2.155294E-16	1.320439E-16
2.680000E+03	2.193719E-16	1.321181E-16
2.720000E+03	2.232956E-16	1.321149E-16
2.760000E+03	2.272657E-16	1.320095E-16
2.800000E+03	2.312754E-16	1.317942E-16
2.840000E+03	2.353449E-16	1.314770E-16
2.880000E+03	2.395194E-16	1.310785E-16
2.920000E+03	2.437191E-16	1.305505E-16
2.960000E+03	2.480087E-16	1.299242E-16
3.000000E+03	2.523865E-16	1.291937E-16
3.010000E+03	2.534971E-16	1.289954E-16
3.020000E+03	2.546204E-16	1.287939E-16
3.030000E+03	2.557272E-16	1.285743E-16
3.040000E+03	2.568446E-16	1.283502E-16
3.050000E+03	2.579715E-16	1.281211E-16
3.060000E+03	2.591066E-16	1.278861E-16
3.070000E+03	2.602486E-16	1.276446E-16
3.080000E+03	2.613964E-16	1.273959E-16
3.090000E+03	2.625487E-16	1.271393E-16
3.100000E+03	2.637043E-16	1.268741E-16
3.110000E+03	2.648618E-16	1.265997E-16
3.120000E+03	2.660201E-16	1.263154E-16
3.130000E+03	2.671778E-16	1.260206E-16
3.140000E+03	2.683603E-16	1.257273E-16
3.150000E+03	2.695658E-16	1.254342E-16
3.160000E+03	2.707402E-16	1.251161E-16
3.170000E+03	2.719347E-16	1.247969E-16
3.180000E+03	2.731476E-16	1.244755E-16
3.190000E+03	2.743515E-16	1.241394E-16
3.200000E+03	2.755706E-16	1.237995E-16
3.210000E+03	2.767778E-16	1.234435E-16
3.220000E+03	2.780222E-16	1.230934E-16
3.230000E+03	2.792516E-16	1.227257E-16
3.240000E+03	2.804896E-16	1.223508E-16
3.250000E+03	2.817344E-16	1.219681E-16
3.260000E+03	2.829842E-16	1.215765E-16
3.270000E+03	2.842617E-16	1.211857E-16
3.280000E+03	2.855163E-16	1.207740E-16
3.290000E+03	2.867948E-16	1.203612E-16
3.300000E+03	2.880712E-16	1.199364E-16
3.310000E+03	2.893672E-16	1.195084E-16
3.320000E+03	2.906574E-16	1.190667E-16
3.330000E+03	2.919632E-16	1.186200E-16
3.340000E+03	2.932595E-16	1.181581E-16
3.350000E+03	2.945675E-16	1.176894E-16
3.360000E+03	2.958849E-16	1.172130E-16
3.370000E+03	2.972097E-16	1.167280E-16
3.380000E+03	2.985398E-16	1.162335E-16
3.390000E+03	2.998949E-16	1.157370E-16
3.400000E+03	3.012290E-16	1.152207E-16
3.410000E+03	3.025837E-16	1.147006E-16
3.420000E+03	3.039351E-16	1.141675E-16
3.430000E+03	3.053024E-16	1.136286E-16
3.440000E+03	3.066621E-16	1.130750E-16
3.450000E+03	3.080330E-16	1.125137E-16
3.460000E+03	3.094334E-16	1.119512E-16
3.470000E+03	3.108194E-16	1.113716E-16
3.480000E+03	3.122095E-16	1.107814E-16
3.490000E+03	3.136015E-16	1.101799E-16
3.500000E+03	3.150126E-16	1.095731E-16
3.510000E+03	3.164208E-16	1.089532E-16
3.520000E+03	3.178237E-16	1.083195E-16
3.530000E+03	3.192384E-16	1.076777E-16
3.540000E+03	3.206623E-16	1.070270E-16
3.550000E+03	3.220929E-16	1.063663E-16
3.560000E+03	3.235276E-16	1.056949E-16
3.570000E+03	3.249822E-16	1.050177E-16
3.580000E+03	3.264177E-16	1.043222E-16
3.590000E+03	3.278681E-16	1.036193E-16
3.600000E+03	3.293130E-16	1.029025E-16
3.610000E+03	3.307677E-16	1.021766E-16
3.620000E+03	3.322296E-16	1.014408E-16
3.630000E+03	3.336961E-16	1.006942E-16
3.640000E+03	3.351647E-16	9.993599E-17
3.650000E+03	3.366331E-16	9.916562E-17
3.660000E+03	3.381155E-16	9.838720E-17
3.670000E+03	3.395928E-16	9.759516E-17
3.680000E+03	3.410791E-16	9.679357E-17
3.690000E+03	3.425559E-16	9.597722E-17
3.700000E+03	3.440370E-16	9.515009E-17
3.710000E+03	3.455355E-16	9.431574E-17
3.720000E+03	3.470182E-16	9.346509E-17
3.730000E+03	3.485136E-16	9.260595E-17
3.740000E+03	3.500042E-16	9.173370E-17
3.750000E+03	3.515030E-16	9.085175E-17
3.760000E+03	3.530076E-16	8.995949E-17
3.770000E+03	3.545015E-16	8.905282E-17
3.780000E+03	3.560115E-16	8.813853E-17
3.790000E+03	3.575071E-16	8.720915E-17
3.800000E+03	3.590147E-16	8.627121E-17
3.810000E+03	3.605185E-16	8.532097E-17
3.820000E+03	3.620304E-16	8.436133E-17
3.830000E+03	3.635352E-16	8.338885E-17
3.840000E+03	3.650446E-16	8.240636E-17
3.850000E+03	3.665443E-16	8.141075E-17
3.860000E+03	3.680585E-16	8.040756E-17
3.870000E+03	3.695603E-16	7.939101E-17
3.880000E+03	3.710737E-16	7.836644E-17
3.890000E+03	3.725850E-16	7.733104E-17
3.900000E+03	3.740812E-16	7.628238E-17
3.910000E+03	3.755974E-16	7.522784E-17
3.920000E+03	3.770970E-16	7.416022E-17
3.930000E+03	3.786029E-16	7.308434E-17
3.940000E+03	3.801141E-16	7.200019E-17
3.950000E+03	3.816077E-16	7.090369E-17
3.960000E+03	3.831168E-16	6.980136E-17
3.970000E+03	3.846189E-16	6.868929E-17
3.980000E+03	3.861139E-16	6.756789E-17
3.990000E+03	3.876125E-16	6.643941E-17
4.000000E+03	3.891043E-16	6.530241E-17
4.010000E+03	3.905997E-16	6.415911E-17
4.020000E+03	3.920988E-16	6.300992E-17
4.030000E+03	3.935819E-16	6.185214E-17
4.040000E+03	3.950695E-16	6.068965E-17
4.050000E+03	3.965524E-16	5.952151E-17
4.060000E+03	3.980312E-16	5.834850E-17
4.070000E+03	3.995068E-16	5.717142E-17
4.080000E+03	4.009800E-16	5.599111E-17
4.090000E+03	4.024426E-16	5.480722E-17
4.100000E+03	4.039050E-16	5.362206E-17
4.110000E+03	4.053592E-16	5.243549E-17
4.120000E+03	4.068153E-16	5.124981E-17
4.130000E+03	4.082570E-16	5.006403E-17
4.140000E+03	4.096860E-16	4.887963E-17
4.150000E+03	4.111123E-16	4.769911E-17
4.160000E+03	4.125206E-16	4.652207E-17
4.170000E+03	4.139293E-16	4.535214E-17
4.180000E+03	4.153150E-16	4.418837E-17
4.190000E+03	4.166881E-16	4.303369E-17
4.200000E+03	4.180502E-16	4.189018E-17
4.210000E+03	4.193951E-16	4.075928E-17
4.220000E+03	4.207169E-16	3.964266E-17
4.230000E+03	4.220253E-16	3.854366E-17
4.240000E+03	4.232994E-16	3.746291E-17
4.250000E+03	4.245563E-16	3.640474E-17
4.260000E+03	4.257833E-16	3.537091E-17
4.270000E+03	4.269823E-16	3.436468E-17
4.280000E+03	4.281484E-16	3.338885E-17
4.290000E+03	4.292767E-16	3.244638E-17
4.300000E+03	4.303626E-16	3.154039E-17
4.310000E+03	4.314156E-16	3.067504E-17
4.320000E+03	4.324174E-16	2.985249E-17
4.330000E+03	4.333710E-16	2.907636E-17
4.340000E+03	4.342727E-16	2.834963E-17
4.350000E+03	4.351187E-16	2.767506E-17
4.360000E+03	4.359061E-16	2.705505E-17
4.370000E+03	4.366317E-16	2.649158E-17
4.380000E+03	4.372865E-16	2.598567E-17
4.390000E+03	4.378747E-16	2.553844E-17
4.400000E+03	4.383816E-16	2.514915E-17
4.410000E+03	4.388182E-16	2.481770E-17
4.420000E+03	4.391767E-16	2.454203E-17
4.430000E+03	4.394498E-16	2.431923E-17
4.440000E+03	4.396367E-16	2.414589E-17
4.450000E+03	4.397486E-16	2.401851E-17
4.460000E+03	4.397728E-16	2.393167E-17
4.470000E+03	4.397207E-16	2.388084E-17
4.480000E+03	4.395978E-16	2.386084E-17
4.490000E+03	4.394092E-16	2.386632E-17
4.500000E+03	4.391546E-16	2.389163E-17
4.510000E+03	4.388450E-16	2.393184E-17
4.520000E+03	4.384910E-16	2.398223E-17
4.530000E+03	4.380864E-16	2.403747E-17
4.540000E+03	4.376417E-16	2.409349E-17
4.550000E+03	4.371618E-16	2.414632E-17
4.560000E+03	4.366566E-16	2.419272E-17
4.570000E+03	4.361250E-16	2.422930E-17
4.580000E+03	4.355767E-16	2.425370E-17
4.590000E+03	4.350154E-16	2.426372E-17
4.600000E+03	4.344448E-16	2.425758E-17
4.610000E+03	4.338633E-16	2.423366E-17
4.620000E+03	4.332845E-16	2.419160E-17
4.630000E+03	4.327060E-16	2.413056E-17
4.640000E+03	4.321307E-16	2.405039E-17
4.650000E+03	4.315660E-16	2.395157E-17
4.660000E+03	4.310140E-16	2.383464E-17
4.670000E+03	4.304817E-16	2.370077E-17
4.680000E+03	4.299656E-16	2.355087E-17
4.690000E+03	4.294721E-16	2.338674E-17
4.700000E+03	4.290072E-16	2.321043E-17
4.710000E+03	4.285765E-16	2.302427E-17
4.720000E+03	4.281854E-16	2.283085E-17
4.730000E+03	4.278391E-16	2.263296E-17
4.740000E+03	4.275472E-16	2.243387E-17
4.750000E+03	4.273191E-16	2.223699E-17
4.760000E+03	4.271685E-16	2.204609E-17
4.770000E+03	4.271136E-16	2.186529E-17
4.780000E+03	4.271628E-16	2.169818E-17
4.790000E+03	4.273055E-16	2.154743E-17
4.800000E+03	4.275358E-16	2.141586E-17
4.810000E+03	4.278290E-16	2.130522E-17
4.820000E+03	4.281796E-16	2.121798E-17
4.830000E+03	4.285816E-16	2.115630E-17
4.840000E+03	4.290201E-16	2.112144E-17
4.850000E+03	4.294985E-16	2.111512E-17
4.860000E+03	4.300061E-16	2.113776E-17
4.870000E+03	4.305418E-16	2.118958E-17
4.880000E+03	4.311086E-16	2.127033E-17
4.890000E+03	4.317002E-16	2.137872E-17
4.900000E+03	4.323104E-16	2.151290E-17
4.910000E+03	4.329467E-16	2.167124E-17
4.920000E+03	4.336023E-16	2.185101E-17
4.930000E+03	4.342800E-16	2.204961E-17
4.940000E+03	4.349729E-16	2.226374E-17
4.950000E+03	4.356833E-16	2.249038E-17
4.960000E+03	4.364134E-16	2.272643E-17
4.970000E+03	4.371562E-16	2.296828E-17
4.980000E+03	4.379180E-16	2.321305E-17
4.990000E+03	4.386917E-16	2.345722E-17
5.000000E+03	4.394743E-16	2.369762E-17
5.010000E+03	4.402674E-16	2.393142E-17
5.020000E+03	4.410725E-16	2.415598E-17
5.030000E+03	4.418864E-16	2.436860E-17
5.040000E+03	4.427012E-16	2.456649E-17
5.050000E+03	4.435226E-16	2.474781E-17
5.060000E+03	4.443424E-16	2.491017E-17
5.070000E+03	4.451617E-16	2.505190E-17
5.080000E+03	4.459767E-16	2.517125E-17
5.090000E+03	4.467835E-16	2.526672E-17
5.100000E+03	4.475828E-16	2.533725E-17
5.110000E+03	4.483660E-16	2.538149E-17
5.120000E+03	4.491337E-16	2.539883E-17
5.130000E+03	4.498817E-16	2.538860E-17
5.140000E+03	4.506058E-16	2.535038E-17
5.150000E+03	4.513065E-16	2.528423E-17
5.160000E+03	4.519749E-16	2.518994E-17
5.170000E+03	4.526067E-16	2.506780E-17
5.180000E+03	4.532024E-16	2.491863E-17
5.190000E+03	4.537577E-16	2.474324E-17
5.200000E+03	4.542638E-16	2.454250E-17
5.210000E+03	4.547258E-16	2.431832E-17
5.220000E+03	4.551260E-16	2.407167E-17
5.230000E+03	4.554742E-16	2.380535E-17
5.240000E+03	4.557621E-16	2.352148E-17
5.250000E+03	4.559813E-16	2.322256E-17
5.260000E+03	4.561330E-16	2.291192E-17
5.270000E+03	4.562138E-16	2.259300E-17
5.280000E+03	4.562208E-16	2.226957E-17
5.290000E+03	4.561509E-16	2.194576E-17
5.300000E+03	4.559969E-16	2.162577E-17
5.310000E+03	4.557611E-16	2.131450E-17
5.320000E+03	4.554412E-16	2.101682E-17
5.330000E+03	4.550308E-16	2.073749E-17
5.340000E+03	4.545330E-16	2.048172E-17
5.350000E+03	4.539463E-16	2.025433E-17
5.360000E+03	4.532698E-16	2.005989E-17
5.370000E+03	4.525028E-16	1.990250E-17
5.380000E+03	4.516449E-16	1.978565E-17
5.390000E+03	4.506959E-16	1.971206E-17
5.400000E+03	4.496606E-16	1.968370E-17
5.410000E+03	4.485395E-16	1.970127E-17
5.420000E+03	4.473379E-16	1.976441E-17
5.430000E+03	4.460571E-16	1.987158E-17
5.440000E+03	4.447028E-16	2.002055E-17
5.450000E+03	4.432811E-16	2.020839E-17
5.460000E+03	4.417982E-16	2.043157E-17
5.470000E+03	4.402605E-16	2.068619E-17
5.480000E+03	4.386703E-16	2.096791E-17
5.490000E+03	4.370341E-16	2.127249E-17
5.500000E+03	4.353545E-16	2.159550E-17
5.510000E+03	4.336384E-16	2.193285E-17
5.520000E+03	4.318757E-16	2.227977E-17
5.530000E+03	4.300778E-16	2.263283E-17
5.540000E+03	4.282436E-16	2.298820E-17
5.550000E+03	4.263679E-16	2.334211E-17
5.560000E+03	4.244540E-16	2.369157E-17
5.570000E+03	4.225055E-16	2.403385E-17
5.580000E+03	4.205176E-16	2.436607E-17
5.590000E+03	4.184984E-16	2.468635E-17
5.600000E+03	4.164474E-16	2.499257E-17
5.610000E+03	4.143687E-16	2.528313E-17
5.620000E+03	4.122659E-16	2.555664E-17
5.630000E+03	4.101432E-16	2.581192E-17
5.640000E+03	4.079962E-16	2.604750E-17
5.650000E+03	4.058409E-16	2.626332E-17
5.660000E+03	4.036730E-16	2.645822E-17
5.670000E+03	4.014963E-16	2.663168E-17
5.680000E+03	3.993184E-16	2.678357E-17
5.690000E+03	3.971387E-16	2.691334E-17
5.700000E+03	3.949605E-16	2.702078E-17
5.710000E+03	3.927911E-16	2.710604E-17
5.720000E+03	3.906332E-16	2.716908E-17
5.730000E+03	3.884860E-16	2.720965E-17
5.740000E+03	3.863557E-16	2.722808E-17
5.750000E+03	3.842410E-16	2.722421E-17
5.760000E+03	3.821480E-16	2.719847E-17
5.770000E+03	3.800784E-16	2.715104E-17
5.780000E+03	3.780342E-16	2.708215E-17
5.790000E+03	3.760130E-16	2.699178E-17
5.800000E+03	3.740200E-16	2.688047E-17
5.810000E+03	3.720563E-16	2.674853E-17
5.820000E+03	3.701228E-16	2.659628E-17
5.830000E+03	3.682165E-16	2.642382E-17
5.840000E+03	3.663419E-16	2.623180E-17
5.850000E+03	3.645028E-16	2.602089E-17
5.860000E+03	3.626888E-16	2.579076E-17
5.870000E+03	3.609107E-16	2.554265E-17
5.880000E+03	3.591616E-16	2.527658E-17
5.890000E+03	3.574485E-16	2.499361E-17
5.900000E+03	3.557607E-16	2.469359E-17
5.910000E+03	3.541086E-16	2.437791E-17
5.920000E+03	3.524815E-16	2.404656E-17
5.930000E+03	3.508896E-16	2.370103E-17
5.940000E+03	3.493223E-16	2.334144E-17
5.950000E+03	3.477862E-16	2.296918E-17
5.960000E+03	3.462776E-16	2.258502E-17
5.970000E+03	3.447964E-16	2.219004E-17
5.980000E+03	3.433422E-16	2.178543E-17
5.990000E+03	3.419149E-16	2.137250E-17
6.000000E+03	3.405108E-16	2.095244E-17
6.010000E+03	3.391298E-16	2.052682E-17
6.020000E+03	3.377752E-16	2.009754E-17
6.030000E+03	3.364399E-16	1.966605E-17
6.040000E+03	3.351273E-16	1.923455E-17
6.050000E+03	3.338338E-16	1.880504E-17
6.060000E+03	3.325560E-16	1.837971E-17
6.070000E+03	3.312969E-16	1.796129E-17
6.080000E+03	3.300499E-16	1.755215E-17
6.090000E+03	3.288179E-16	1.715539E-17
6.100000E+03	3.275973E-16	1.677387E-17
6.110000E+03	3.263846E-16	1.641061E-17
6.120000E+03	3.251795E-16	1.606889E-17
6.130000E+03	3.239781E-16	1.575181E-17
6.140000E+03	3.227800E-16	1.546262E-17
6.150000E+03	3.215910E-16	1.520470E-17
6.160000E+03	3.204039E-16	1.498056E-17
6.170000E+03	3.192338E-16	1.479340E-17
6.180000E+03	3.180892E-16	1.464563E-17
6.190000E+03	3.169626E-16	1.453833E-17
6.200000E+03	3.158402E-16	1.447166E-17
6.210000E+03	3.147208E-16	1.444558E-17
6.220000E+03	3.136000E-16	1.445907E-17
6.230000E+03	3.124733E-16	1.451041E-17
6.240000E+03	3.113457E-16	1.459771E-17
6.250000E+03	3.102095E-16	1.471803E-17
6.260000E+03	3.090695E-16	1.486864E-17
6.270000E+03	3.079274E-16	1.504643E-17
6.280000E+03	3.067755E-16	1.524770E-17
6.290000E+03	3.056218E-16	1.546951E-17
6.300000E+03	3.044615E-16	1.570833E-17
6.310000E+03	3.032936E-16	1.596095E-17
6.320000E+03	3.021196E-16	1.622446E-17
6.330000E+03	3.009383E-16	1.649602E-17
6.340000E+03	2.997485E-16	1.677300E-17
6.350000E+03	2.985492E-16	1.705301E-17
6.360000E+03	2.973392E-16	1.733390E-17
6.370000E+03	2.961176E-16	1.761375E-17
6.380000E+03	2.948865E-16	1.789103E-17
6.390000E+03	2.936392E-16	1.816388E-17
6.400000E+03	2.923811E-16	1.843137E-17
6.410000E+03	2.911055E-16	1.869201E-17
6.420000E+03	2.898181E-16	1.894522E-17
6.430000E+03	2.885095E-16	1.918961E-17
6.440000E+03	2.871885E-16	1.942511E-17
6.450000E+03	2.858461E-16	1.965057E-17
6.460000E+03	2.844853E-16	1.986577E-17
6.470000E+03	2.831064E-16	2.007038E-17
6.480000E+03	2.817068E-16	2.026394E-17
6.490000E+03	2.802898E-16	2.044653E-17
6.500000E+03	2.788531E-16	2.061784E-17
6.510000E+03	2.774004E-16	2.077808E-17
6.520000E+03	2.759326E-16	2.092731E-17
6.530000E+03	2.744506E-16	2.106563E-17
6.540000E+03	2.729555E-16	2.119318E-17
6.550000E+03	2.714513E-16	2.131040E-17
6.560000E+03	2.699394E-16	2.141750E-17
6.570000E+03	2.684211E-16	2.151474E-17
6.580000E+03	2.669035E-16	2.160287E-17
6.590000E+03	2.653882E-16	2.168221E-17
6.600000E+03	2.638737E-16	2.175283E-17
6.610000E+03	2.623701E-16	2.181577E-17
6.620000E+03	2.608734E-16	2.187090E-17
6.630000E+03	2.593907E-16	2.191904E-17
6.640000E+03	2.579237E-16	2.196053E-17
6.650000E+03	2.564739E-16	2.199571E-17
6.660000E+03	2.550456E-16	2.202516E-17
6.670000E+03	2.536376E-16	2.204895E-17
6.680000E+03	2.522570E-16	2.206790E-17
6.690000E+03	2.509052E-16	2.208231E-17
6.700000E+03	2.495809E-16	2.209222E-17
6.710000E+03	2.482880E-16	2.209816E-17
6.720000E+03	2.470280E-16	2.210038E-17
6.730000E+03	2.458020E-16	2.209914E-17
6.740000E+03	2.446168E-16	2.209517E-17
6.750000E+03	2.434679E-16	2.208817E-17
6.760000E+03	2.423590E-16	2.207861E-17
6.770000E+03	2.412910E-16	2.206665E-17
6.780000E+03	2.402648E-16	2.205246E-17
6.790000E+03	2.392838E-16	2.203646E-17
6.800000E+03	2.383459E-16	2.201851E-17
6.810000E+03	2.374543E-16	2.199899E-17
6.820000E+03	2.366068E-16	2.197776E-17
6.830000E+03	2.358091E-16	2.195541E-17
6.840000E+03	2.350559E-16	2.193150E-17
6.850000E+03	2.343528E-16	2.190661E-17
6.860000E+03	2.336942E-16	2.188027E-17
6.870000E+03	2.330855E-16	2.185304E-17
6.880000E+03	2.325235E-16	2.182467E-17
6.890000E+03	2.320078E-16	2.179517E-17
6.900000E+03	2.315406E-16	2.176480E-17
6.910000E+03	2.311184E-16	2.173327E-17
6.920000E+03	2.307404E-16	2.170056E-17
6.930000E+03	2.304083E-16	2.166688E-17
6.940000E+03	2.301182E-16	2.163191E-17
6.950000E+03	2.298715E-16	2.159583E-17
6.960000E+03	2.296641E-16	2.155831E-17
6.970000E+03	2.294972E-16	2.151950E-17
6.980000E+03	2.293690E-16	2.147928E-17
6.990000E+03	2.292720E-16	2.143701E-17
7.000000E+03	2.292128E-16	2.139331E-17
7.010000E+03	2.291834E-16	2.134752E-17
7.020000E+03	2.291817E-16	2.129945E-17
7.030000E+03	2.292052E-16	2.124890E-17
7.040000E+03	2.292542E-16	2.119595E-17
7.050000E+03	2.293232E-16	2.114010E-17
7.060000E+03	2.294124E-16	2.108137E-17
7.070000E+03	2.295161E-16	2.101927E-17
7.080000E+03	2.296284E-16	2.095325E-17
7.090000E+03	2.297520E-16	2.088356E-17
7.100000E+03	2.298810E-16	2.080966E-17
7.110000E+03	2.300123E-16	2.073123E-17
7.120000E+03	2.301426E-16	2.064796E-17
7.130000E+03	2.302658E-16	2.055927E-17
7.140000E+03	2.303816E-16	2.046509E-17
7.150000E+03	2.304866E-16	2.036506E-17
7.160000E+03	2.305748E-16	2.025860E-17
7.170000E+03	2.306428E-16	2.014535E-17
7.180000E+03	2.306904E-16	2.002522E-17
7.190000E+03	2.307115E-16	1.989759E-17
7.200000E+03	2.307030E-16	1.976213E-17
7.210000E+03	2.306589E-16	1.961823E-17
7.220000E+03	2.305823E-16	1.946608E-17
7.230000E+03	2.304645E-16	1.930484E-17
7.240000E+03	2.303058E-16	1.913446E-17
7.250000E+03	2.301007E-16	1.895441E-17
7.260000E+03	2.298469E-16	1.876442E-17
7.270000E+03	2.295453E-16	1.856450E-17
7.280000E+03	2.291880E-16	1.835395E-17
7.290000E+03	2.287792E-16	1.813309E-17
7.300000E+03	2.283116E-16	1.790130E-17
7.310000E+03	2.277869E-16	1.765874E-17
7.320000E+03	2.272013E-16	1.740512E-17
7.330000E+03	2.265569E-16	1.714070E-17
7.340000E+03	2.258505E-16	1.686531E-17
7.350000E+03	2.250850E-16	1.657930E-17
7.360000E+03	2.242546E-16	1.628244E-17
7.370000E+03	2.233628E-16	1.597522E-17
7.380000E+03	2.224104E-16	1.565799E-17
7.390000E+03	2.213984E-16	1.533116E-17
7.400000E+03	2.203225E-16	1.499487E-17
7.410000E+03	2.191872E-16	1.464994E-17
7.420000E+03	2.179916E-16	1.429689E-17
7.430000E+03	2.167350E-16	1.393639E-17
7.440000E+03	2.154199E-16	1.356940E-17
7.450000E+03	2.140518E-16	1.319719E-17
7.460000E+03	2.126335E-16	1.282096E-17
7.470000E+03	2.111678E-16	1.244208E-17
7.480000E+03	2.096607E-16	1.206222E-17
7.490000E+03	2.081125E-16	1.168290E-17
7.500000E+03	2.065265E-16	1.130599E-17
7.510000E+03	2.049087E-16	1.093371E-17
7.520000E+03	2.032625E-16	1.056833E-17
7.530000E+03	2.015885E-16	1.021222E-17
7.540000E+03	1.998925E-16	9.868248E-18
7.550000E+03	1.981780E-16	9.539357E-18
7.560000E+03	1.964480E-16	9.228706E-18
7.570000E+03	1.947055E-16	8.939617E-18
7.580000E+03	1.929537E-16	8.675519E-18
7.590000E+03	1.911952E-16	8.439849E-18
7.600000E+03	1.894354E-16	8.236041E-18
7.610000E+03	1.876716E-16	8.066927E-18
7.620000E+03	1.859113E-16	7.935328E-18
7.630000E+03	1.841566E-16	7.843218E-18
7.640000E+03	1.824070E-16	7.791689E-18
7.650000E+03	1.806666E-16	7.781079E-18
7.660000E+03	1.789370E-16	7.810598E-18
7.670000E+03	1.772170E-16	7.878509E-18
7.680000E+03	1.755126E-16	7.982699E-18
7.690000E+03	1.738200E-16	8.120118E-18
7.700000E+03	1.721425E-16	8.287701E-18
7.710000E+03	1.704831E-16	8.482243E-18
7.720000E+03	1.688377E-16	8.700203E-18
7.730000E+03	1.672115E-16	8.938610E-18
7.740000E+03	1.656027E-16	9.194349E-18
7.750000E+03	1.640117E-16	9.464668E-18
7.760000E+03	1.624387E-16	9.747086E-18
