#wls	flux	fluxerr
1.600000E+03	1.054382E-16	8.662489E-17
1.640000E+03	1.079130E-16	8.807910E-17
1.680000E+03	1.104561E-16	8.954460E-17
1.720000E+03	1.130663E-16	9.101769E-17
1.760000E+03	1.157420E-16	9.249432E-17
1.800000E+03	1.185016E-16	9.398626E-17
1.840000E+03	1.213229E-16	9.547275E-17
1.880000E+03	1.242031E-16	9.694847E-17
1.920000E+03	1.271817E-16	9.844111E-17
1.960000E+03	1.302131E-16	9.991160E-17
2.000000E+03	1.333372E-16	1.013872E-16
2.040000E+03	1.365280E-16	1.028443E-16
2.080000E+03	1.398035E-16	1.042928E-16
2.120000E+03	1.431591E-16	1.057249E-16
2.160000E+03	1.465890E-16	1.071324E-16
2.200000E+03	1.501106E-16	1.085238E-16
2.240000E+03	1.536929E-16	1.098722E-16
2.280000E+03	1.573766E-16	1.112023E-16
2.320000E+03	1.611286E-16	1.124860E-16
2.360000E+03	1.649638E-16	1.137293E-16
2.400000E+03	1.688717E-16	1.149198E-16
2.440000E+03	1.728654E-16	1.160621E-16
2.480000E+03	1.769321E-16	1.171423E-16
2.520000E+03	1.810830E-16	1.181630E-16
2.560000E+03	1.853021E-16	1.191087E-16
2.600000E+03	1.895717E-16	1.199635E-16
2.640000E+03	1.939511E-16	1.207600E-16
2.680000E+03	1.983667E-16	1.214470E-16
2.720000E+03	2.028479E-16	1.220384E-16
2.760000E+03	2.073957E-16	1.225302E-16
2.800000E+03	2.120088E-16	1.229168E-16
2.840000E+03	2.166570E-16	1.231766E-16
2.880000E+03	2.213600E-16	1.233170E-16
2.920000E+03	2.260820E-16	1.233147E-16
2.960000E+03	2.308110E-16	1.231605E-16
3.000000E+03	2.355827E-16	1.228712E-16
3.010000E+03	2.367778E-16	1.227751E-16
3.020000E+03	2.379674E-16	1.226661E-16
3.030000E+03	2.391759E-16	1.225569E-16
3.040000E+03	2.403520E-16	1.224209E-16
3.050000E+03	2.415455E-16	1.222839E-16
3.060000E+03	2.427556E-16	1.221451E-16
3.070000E+03	2.439310E-16	1.219788E-16
3.080000E+03	2.451215E-16	1.218100E-16
3.090000E+03	2.463258E-16	1.216380E-16
3.100000E+03	2.474934E-16	1.214377E-16
3.110000E+03	2.486982E-16	1.212456E-16
3.120000E+03	2.498646E-16	1.210248E-16
3.130000E+03	2.510661E-16	1.208109E-16
3.140000E+03	2.522279E-16	1.205678E-16
3.150000E+03	2.534226E-16	1.203304E-16
3.160000E+03	2.545761E-16	1.200635E-16
3.170000E+03	2.557604E-16	1.198011E-16
3.180000E+03	2.569261E-16	1.195200E-16
3.190000E+03	2.580963E-16	1.192311E-16
3.200000E+03	2.592461E-16	1.189228E-16
3.210000E+03	2.604222E-16	1.186168E-16
3.220000E+03	2.615760E-16	1.182907E-16
3.230000E+03	2.627066E-16	1.179444E-16
3.240000E+03	2.638603E-16	1.175987E-16
3.250000E+03	2.649888E-16	1.172322E-16
3.260000E+03	2.661379E-16	1.168651E-16
3.270000E+03	2.672599E-16	1.164766E-16
3.280000E+03	2.683771E-16	1.160765E-16
3.290000E+03	2.694884E-16	1.156644E-16
3.300000E+03	2.705927E-16	1.152400E-16
3.310000E+03	2.717114E-16	1.148125E-16
3.320000E+03	2.727982E-16	1.143623E-16
3.330000E+03	2.738970E-16	1.139080E-16
3.340000E+03	2.749620E-16	1.134306E-16
3.350000E+03	2.760366E-16	1.129484E-16
3.360000E+03	2.770974E-16	1.124517E-16
3.370000E+03	2.781433E-16	1.119403E-16
3.380000E+03	2.791950E-16	1.114227E-16
3.390000E+03	2.802295E-16	1.108897E-16
3.400000E+03	2.812458E-16	1.103413E-16
3.410000E+03	2.822640E-16	1.097854E-16
3.420000E+03	2.832827E-16	1.092216E-16
3.430000E+03	2.842587E-16	1.086335E-16
3.440000E+03	2.852537E-16	1.080448E-16
3.450000E+03	2.862246E-16	1.074394E-16
3.460000E+03	2.871706E-16	1.068172E-16
3.470000E+03	2.881110E-16	1.061856E-16
3.480000E+03	2.890445E-16	1.055444E-16
3.490000E+03	2.899696E-16	1.048933E-16
3.500000E+03	2.908852E-16	1.042318E-16
3.510000E+03	2.917703E-16	1.035528E-16
3.520000E+03	2.926435E-16	1.028633E-16
3.530000E+03	2.935037E-16	1.021630E-16
3.540000E+03	2.943495E-16	1.014517E-16
3.550000E+03	2.951799E-16	1.007294E-16
3.560000E+03	2.960125E-16	1.000022E-16
3.570000E+03	2.968083E-16	9.925728E-17
3.580000E+03	2.975853E-16	9.850096E-17
3.590000E+03	2.983607E-16	9.773923E-17
3.600000E+03	2.991148E-16	9.696586E-17
3.610000E+03	2.998467E-16	9.618088E-17
3.620000E+03	3.005553E-16	9.538434E-17
3.630000E+03	3.012575E-16	9.458187E-17
3.640000E+03	3.019343E-16	9.376781E-17
3.650000E+03	3.025850E-16	9.294232E-17
3.660000E+03	3.032258E-16	9.211075E-17
3.670000E+03	3.038556E-16	9.127300E-17
3.680000E+03	3.044564E-16	9.042397E-17
3.690000E+03	3.050275E-16	8.956394E-17
3.700000E+03	3.055848E-16	8.869795E-17
3.710000E+03	3.061272E-16	8.782600E-17
3.720000E+03	3.066536E-16	8.694812E-17
3.730000E+03	3.071474E-16	8.605992E-17
3.740000E+03	3.076237E-16	8.516615E-17
3.750000E+03	3.080818E-16	8.426693E-17
3.760000E+03	3.085210E-16	8.336240E-17
3.770000E+03	3.089251E-16	8.244869E-17
3.780000E+03	3.093243E-16	8.153422E-17
3.790000E+03	3.096876E-16	8.061118E-17
3.800000E+03	3.100297E-16	7.968391E-17
3.810000E+03	3.103501E-16	7.875267E-17
3.820000E+03	3.106484E-16	7.781779E-17
3.830000E+03	3.109243E-16	7.687958E-17
3.840000E+03	3.111775E-16	7.593840E-17
3.850000E+03	3.114216E-16	7.499797E-17
3.860000E+03	3.116286E-16	7.405193E-17
3.870000E+03	3.118124E-16	7.310411E-17
3.880000E+03	3.119730E-16	7.215495E-17
3.890000E+03	3.121104E-16	7.120491E-17
3.900000E+03	3.122378E-16	7.025738E-17
3.910000E+03	3.123291E-16	6.930693E-17
3.920000E+03	3.123978E-16	6.835705E-17
3.930000E+03	3.124567E-16	6.741098E-17
3.940000E+03	3.124810E-16	6.646375E-17
3.950000E+03	3.124837E-16	6.551869E-17
3.960000E+03	3.124775E-16	6.457884E-17
3.970000E+03	3.124387E-16	6.363972E-17
3.980000E+03	3.123799E-16	6.270445E-17
3.990000E+03	3.123021E-16	6.177361E-17
4.000000E+03	3.122059E-16	6.084780E-17
4.010000E+03	3.120808E-16	5.992542E-17
4.020000E+03	3.119504E-16	5.901148E-17
4.030000E+03	3.117932E-16	5.810230E-17
4.040000E+03	3.116215E-16	5.720064E-17
4.050000E+03	3.114256E-16	5.630517E-17
4.060000E+03	3.112069E-16	5.541666E-17
4.070000E+03	3.109880E-16	5.453952E-17
4.080000E+03	3.107386E-16	5.366886E-17
4.090000E+03	3.104810E-16	5.280903E-17
4.100000E+03	3.102066E-16	5.195895E-17
4.110000E+03	3.099071E-16	5.111771E-17
4.120000E+03	3.096041E-16	5.028934E-17
4.130000E+03	3.092893E-16	4.947286E-17
4.140000E+03	3.089550E-16	4.866745E-17
4.150000E+03	3.086127E-16	4.787540E-17
4.160000E+03	3.082642E-16	4.709734E-17
4.170000E+03	3.079022E-16	4.633255E-17
4.180000E+03	3.075287E-16	4.558176E-17
4.190000E+03	3.071460E-16	4.484570E-17
4.200000E+03	3.067562E-16	4.412505E-17
4.210000E+03	3.063615E-16	4.342048E-17
4.220000E+03	3.059639E-16	4.273263E-17
4.230000E+03	3.055571E-16	4.206093E-17
4.240000E+03	3.051434E-16	4.140606E-17
4.250000E+03	3.047336E-16	4.076975E-17
4.260000E+03	3.043132E-16	4.015036E-17
4.270000E+03	3.038930E-16	3.954958E-17
4.280000E+03	3.034751E-16	3.896791E-17
4.290000E+03	3.030539E-16	3.840482E-17
4.300000E+03	3.026396E-16	3.786179E-17
4.310000E+03	3.022188E-16	3.733727E-17
4.320000E+03	3.018092E-16	3.683356E-17
4.330000E+03	3.013979E-16	3.634912E-17
4.340000E+03	3.009947E-16	3.588515E-17
4.350000E+03	3.005942E-16	3.544097E-17
4.360000E+03	3.001987E-16	3.501674E-17
4.370000E+03	2.998033E-16	3.461175E-17
4.380000E+03	2.994244E-16	3.422767E-17
4.390000E+03	2.990498E-16	3.386279E-17
4.400000E+03	2.986885E-16	3.351776E-17
4.410000E+03	2.983288E-16	3.319079E-17
4.420000E+03	2.979864E-16	3.288311E-17
4.430000E+03	2.976496E-16	3.259279E-17
4.440000E+03	2.973271E-16	3.232010E-17
4.450000E+03	2.970207E-16	3.206444E-17
4.460000E+03	2.967255E-16	3.182446E-17
4.470000E+03	2.964370E-16	3.159879E-17
4.480000E+03	2.961698E-16	3.138807E-17
4.490000E+03	2.959128E-16	3.119017E-17
4.500000E+03	2.956738E-16	3.100499E-17
4.510000E+03	2.954545E-16	3.083173E-17
4.520000E+03	2.952500E-16	3.066895E-17
4.530000E+03	2.950617E-16	3.051588E-17
4.540000E+03	2.948911E-16	3.037177E-17
4.550000E+03	2.947393E-16	3.023592E-17
4.560000E+03	2.946077E-16	3.010764E-17
4.570000E+03	2.944913E-16	2.998568E-17
4.580000E+03	2.943972E-16	2.987005E-17
4.590000E+03	2.943263E-16	2.976021E-17
4.600000E+03	2.942737E-16	2.965507E-17
4.610000E+03	2.942402E-16	2.955419E-17
4.620000E+03	2.942265E-16	2.945720E-17
4.630000E+03	2.942391E-16	2.936434E-17
4.640000E+03	2.942728E-16	2.927478E-17
4.650000E+03	2.943282E-16	2.918830E-17
4.660000E+03	2.944056E-16	2.910473E-17
4.670000E+03	2.944998E-16	2.902344E-17
4.680000E+03	2.946223E-16	2.894546E-17
4.690000E+03	2.947676E-16	2.887023E-17
4.700000E+03	2.949359E-16	2.879781E-17
4.710000E+03	2.951217E-16	2.872773E-17
4.720000E+03	2.953304E-16	2.866066E-17
4.730000E+03	2.955673E-16	2.859727E-17
4.740000E+03	2.958213E-16	2.853671E-17
4.750000E+03	2.960975E-16	2.847971E-17
4.760000E+03	2.963956E-16	2.842647E-17
4.770000E+03	2.967151E-16	2.837725E-17
4.780000E+03	2.970554E-16	2.833227E-17
4.790000E+03	2.974159E-16	2.829175E-17
4.800000E+03	2.977960E-16	2.825590E-17
4.810000E+03	2.981949E-16	2.822489E-17
4.820000E+03	2.986118E-16	2.819886E-17
4.830000E+03	2.990510E-16	2.817837E-17
4.840000E+03	2.995064E-16	2.816295E-17
4.850000E+03	2.999770E-16	2.815255E-17
4.860000E+03	3.004616E-16	2.814701E-17
4.870000E+03	3.009645E-16	2.814659E-17
4.880000E+03	3.014845E-16	2.815098E-17
4.890000E+03	3.020151E-16	2.815927E-17
4.900000E+03	3.025602E-16	2.817148E-17
4.910000E+03	3.031186E-16	2.818705E-17
4.920000E+03	3.036837E-16	2.820489E-17
4.930000E+03	3.042644E-16	2.822532E-17
4.940000E+03	3.048487E-16	2.824669E-17
4.950000E+03	3.054455E-16	2.826924E-17
4.960000E+03	3.060479E-16	2.829177E-17
4.970000E+03	3.066542E-16	2.831355E-17
4.980000E+03	3.072626E-16	2.833384E-17
4.990000E+03	3.078764E-16	2.835240E-17
5.000000E+03	3.084884E-16	2.836804E-17
5.010000E+03	3.090968E-16	2.838008E-17
5.020000E+03	3.097096E-16	2.838880E-17
5.030000E+03	3.103144E-16	2.839263E-17
5.040000E+03	3.109143E-16	2.839145E-17
5.050000E+03	3.115018E-16	2.838426E-17
5.060000E+03	3.120849E-16	2.837147E-17
5.070000E+03	3.126509E-16	2.835171E-17
5.080000E+03	3.132027E-16	2.832504E-17
5.090000E+03	3.137428E-16	2.829158E-17
5.100000E+03	3.142587E-16	2.825013E-17
5.110000E+03	3.147579E-16	2.820137E-17
5.120000E+03	3.152280E-16	2.814425E-17
5.130000E+03	3.156765E-16	2.807958E-17
5.140000E+03	3.160958E-16	2.800689E-17
5.150000E+03	3.164885E-16	2.792669E-17
5.160000E+03	3.168420E-16	2.783821E-17
5.170000E+03	3.171640E-16	2.774255E-17
5.180000E+03	3.174469E-16	2.763956E-17
5.190000E+03	3.176885E-16	2.752960E-17
5.200000E+03	3.178914E-16	2.741355E-17
5.210000E+03	3.180483E-16	2.729150E-17
5.220000E+03	3.181621E-16	2.716450E-17
5.230000E+03	3.182207E-16	2.703235E-17
5.240000E+03	3.182321E-16	2.689667E-17
5.250000E+03	3.181893E-16	2.675787E-17
5.260000E+03	3.180957E-16	2.661724E-17
5.270000E+03	3.179444E-16	2.647533E-17
5.280000E+03	3.177341E-16	2.633311E-17
5.290000E+03	3.174633E-16	2.619163E-17
5.300000E+03	3.171308E-16	2.605196E-17
5.310000E+03	3.167405E-16	2.591555E-17
5.320000E+03	3.162865E-16	2.578307E-17
5.330000E+03	3.157681E-16	2.565555E-17
5.340000E+03	3.151847E-16	2.553398E-17
5.350000E+03	3.145360E-16	2.541926E-17
5.360000E+03	3.138218E-16	2.531221E-17
5.370000E+03	3.130470E-16	2.521393E-17
5.380000E+03	3.122023E-16	2.512415E-17
5.390000E+03	3.112977E-16	2.504406E-17
5.400000E+03	3.103242E-16	2.497306E-17
5.410000E+03	3.092927E-16	2.491192E-17
5.420000E+03	3.081944E-16	2.485968E-17
5.430000E+03	3.070405E-16	2.481672E-17
5.440000E+03	3.058276E-16	2.478212E-17
5.450000E+03	3.045529E-16	2.475479E-17
5.460000E+03	3.032277E-16	2.473472E-17
5.470000E+03	3.018495E-16	2.472064E-17
5.480000E+03	3.004203E-16	2.471159E-17
5.490000E+03	2.989427E-16	2.470661E-17
5.500000E+03	2.974190E-16	2.470469E-17
5.510000E+03	2.958518E-16	2.470485E-17
5.520000E+03	2.942483E-16	2.470652E-17
5.530000E+03	2.926066E-16	2.470838E-17
5.540000E+03	2.909296E-16	2.470955E-17
5.550000E+03	2.892200E-16	2.470922E-17
5.560000E+03	2.874851E-16	2.470699E-17
5.570000E+03	2.857233E-16	2.470178E-17
5.580000E+03	2.839376E-16	2.469298E-17
5.590000E+03	2.821351E-16	2.468039E-17
5.600000E+03	2.803189E-16	2.466353E-17
5.610000E+03	2.784872E-16	2.464158E-17
5.620000E+03	2.766473E-16	2.461457E-17
5.630000E+03	2.748019E-16	2.458218E-17
5.640000E+03	2.729538E-16	2.454418E-17
5.650000E+03	2.711013E-16	2.449999E-17
5.660000E+03	2.692555E-16	2.445023E-17
5.670000E+03	2.674148E-16	2.439442E-17
5.680000E+03	2.655814E-16	2.433251E-17
5.690000E+03	2.637578E-16	2.426447E-17
5.700000E+03	2.619462E-16	2.419033E-17
5.710000E+03	2.601528E-16	2.411049E-17
5.720000E+03	2.583757E-16	2.402467E-17
5.730000E+03	2.566166E-16	2.393294E-17
5.740000E+03	2.548814E-16	2.383581E-17
5.750000E+03	2.531717E-16	2.373339E-17
5.760000E+03	2.514852E-16	2.362547E-17
5.770000E+03	2.498271E-16	2.351258E-17
5.780000E+03	2.481987E-16	2.339489E-17
5.790000E+03	2.466012E-16	2.327258E-17
5.800000E+03	2.450318E-16	2.314548E-17
5.810000E+03	2.434952E-16	2.301415E-17
5.820000E+03	2.419960E-16	2.287918E-17
5.830000E+03	2.405273E-16	2.274004E-17
5.840000E+03	2.390934E-16	2.259733E-17
5.850000E+03	2.376985E-16	2.245163E-17
5.860000E+03	2.363354E-16	2.230247E-17
5.870000E+03	2.350082E-16	2.215046E-17
5.880000E+03	2.337207E-16	2.199618E-17
5.890000E+03	2.324692E-16	2.183957E-17
5.900000E+03	2.312537E-16	2.168088E-17
5.910000E+03	2.300703E-16	2.152006E-17
5.920000E+03	2.289299E-16	2.135843E-17
5.930000E+03	2.278213E-16	2.119527E-17
5.940000E+03	2.267477E-16	2.103123E-17
5.950000E+03	2.257123E-16	2.086697E-17
5.960000E+03	2.247110E-16	2.070252E-17
5.970000E+03	2.237432E-16	2.053821E-17
5.980000E+03	2.228085E-16	2.037443E-17
5.990000E+03	2.219060E-16	2.021156E-17
6.000000E+03	2.210351E-16	2.005001E-17
6.010000E+03	2.201949E-16	1.989019E-17
6.020000E+03	2.193882E-16	1.973286E-17
6.030000E+03	2.186070E-16	1.957784E-17
6.040000E+03	2.178573E-16	1.942620E-17
6.050000E+03	2.171346E-16	1.927813E-17
6.060000E+03	2.164343E-16	1.913378E-17
6.070000E+03	2.157622E-16	1.899429E-17
6.080000E+03	2.151102E-16	1.885952E-17
6.090000E+03	2.144838E-16	1.873060E-17
6.100000E+03	2.138784E-16	1.860770E-17
6.110000E+03	2.132890E-16	1.849102E-17
6.120000E+03	2.127176E-16	1.838132E-17
6.130000E+03	2.121662E-16	1.827934E-17
6.140000E+03	2.116263E-16	1.818488E-17
6.150000E+03	2.110996E-16	1.809860E-17
6.160000E+03	2.105845E-16	1.802081E-17
6.170000E+03	2.100759E-16	1.795144E-17
6.180000E+03	2.095788E-16	1.789124E-17
6.190000E+03	2.090846E-16	1.783968E-17
6.200000E+03	2.085949E-16	1.779704E-17
6.210000E+03	2.081078E-16	1.776317E-17
6.220000E+03	2.076215E-16	1.773784E-17
6.230000E+03	2.071341E-16	1.772073E-17
6.240000E+03	2.066403E-16	1.771113E-17
6.250000E+03	2.061418E-16	1.770883E-17
6.260000E+03	2.056367E-16	1.771328E-17
6.270000E+03	2.051233E-16	1.772387E-17
6.280000E+03	2.045998E-16	1.773996E-17
6.290000E+03	2.040612E-16	1.776059E-17
6.300000E+03	2.035127E-16	1.778567E-17
6.310000E+03	2.029461E-16	1.781392E-17
6.320000E+03	2.023632E-16	1.784497E-17
6.330000E+03	2.017627E-16	1.787814E-17
6.340000E+03	2.011435E-16	1.791279E-17
6.350000E+03	2.005045E-16	1.794831E-17
6.360000E+03	1.998447E-16	1.798410E-17
6.370000E+03	1.991665E-16	1.801992E-17
6.380000E+03	1.984626E-16	1.805463E-17
6.390000E+03	1.977358E-16	1.808806E-17
6.400000E+03	1.969890E-16	1.812008E-17
6.410000E+03	1.962153E-16	1.814968E-17
6.420000E+03	1.954211E-16	1.817712E-17
6.430000E+03	1.946065E-16	1.820208E-17
6.440000E+03	1.937650E-16	1.822368E-17
6.450000E+03	1.929036E-16	1.824230E-17
6.460000E+03	1.920227E-16	1.825776E-17
6.470000E+03	1.911197E-16	1.826959E-17
6.480000E+03	1.901953E-16	1.827767E-17
6.490000E+03	1.892537E-16	1.828225E-17
6.500000E+03	1.882958E-16	1.828326E-17
6.510000E+03	1.873228E-16	1.828071E-17
6.520000E+03	1.863327E-16	1.827428E-17
6.530000E+03	1.853301E-16	1.826433E-17
6.540000E+03	1.843163E-16	1.825092E-17
6.550000E+03	1.832930E-16	1.823415E-17
6.560000E+03	1.822616E-16	1.821412E-17
6.570000E+03	1.812271E-16	1.819128E-17
6.580000E+03	1.801847E-16	1.816511E-17
6.590000E+03	1.791426E-16	1.813643E-17
6.600000E+03	1.780993E-16	1.810506E-17
6.610000E+03	1.770567E-16	1.807118E-17
6.620000E+03	1.760197E-16	1.803530E-17
6.630000E+03	1.749900E-16	1.799758E-17
6.640000E+03	1.739664E-16	1.795789E-17
6.650000E+03	1.729506E-16	1.791643E-17
6.660000E+03	1.719475E-16	1.787369E-17
6.670000E+03	1.709617E-16	1.783017E-17
6.680000E+03	1.699889E-16	1.778542E-17
6.690000E+03	1.690305E-16	1.773962E-17
6.700000E+03	1.680943E-16	1.769355E-17
6.710000E+03	1.671786E-16	1.764707E-17
6.720000E+03	1.662849E-16	1.760033E-17
6.730000E+03	1.654144E-16	1.755348E-17
6.740000E+03	1.645713E-16	1.750696E-17
6.750000E+03	1.637508E-16	1.746027E-17
6.760000E+03	1.629600E-16	1.741415E-17
6.770000E+03	1.621968E-16	1.736840E-17
6.780000E+03	1.614650E-16	1.732342E-17
6.790000E+03	1.607625E-16	1.727899E-17
6.800000E+03	1.600898E-16	1.723516E-17
6.810000E+03	1.594506E-16	1.719232E-17
6.820000E+03	1.588451E-16	1.715053E-17
6.830000E+03	1.582709E-16	1.710948E-17
6.840000E+03	1.577311E-16	1.706954E-17
6.850000E+03	1.572229E-16	1.703040E-17
6.860000E+03	1.567492E-16	1.699238E-17
6.870000E+03	1.563100E-16	1.695547E-17
6.880000E+03	1.559020E-16	1.691933E-17
6.890000E+03	1.555281E-16	1.688426E-17
6.900000E+03	1.551876E-16	1.685020E-17
6.910000E+03	1.548800E-16	1.681710E-17
6.920000E+03	1.546019E-16	1.678460E-17
6.930000E+03	1.543554E-16	1.675292E-17
6.940000E+03	1.541396E-16	1.672197E-17
6.950000E+03	1.539506E-16	1.669136E-17
6.960000E+03	1.537902E-16	1.666129E-17
6.970000E+03	1.536573E-16	1.663164E-17
6.980000E+03	1.535507E-16	1.660228E-17
6.990000E+03	1.534659E-16	1.657275E-17
7.000000E+03	1.534045E-16	1.654324E-17
7.010000E+03	1.533619E-16	1.651326E-17
7.020000E+03	1.533424E-16	1.648327E-17
7.030000E+03	1.533354E-16	1.645217E-17
7.040000E+03	1.533449E-16	1.642039E-17
7.050000E+03	1.533690E-16	1.638774E-17
7.060000E+03	1.534028E-16	1.635371E-17
7.070000E+03	1.534472E-16	1.631840E-17
7.080000E+03	1.534971E-16	1.628130E-17
7.090000E+03	1.535505E-16	1.624219E-17
7.100000E+03	1.536079E-16	1.620115E-17
7.110000E+03	1.536644E-16	1.615765E-17
7.120000E+03	1.537175E-16	1.611147E-17
7.130000E+03	1.537650E-16	1.606237E-17
7.140000E+03	1.538046E-16	1.601013E-17
7.150000E+03	1.538341E-16	1.595452E-17
7.160000E+03	1.538511E-16	1.589533E-17
7.170000E+03	1.538534E-16	1.583232E-17
7.180000E+03	1.538388E-16	1.576529E-17
7.190000E+03	1.538052E-16	1.569403E-17
7.200000E+03	1.537474E-16	1.561804E-17
7.210000E+03	1.536635E-16	1.553714E-17
7.220000E+03	1.535573E-16	1.545177E-17
7.230000E+03	1.534212E-16	1.536115E-17
7.240000E+03	1.532534E-16	1.526517E-17
7.250000E+03	1.530522E-16	1.516369E-17
7.260000E+03	1.528192E-16	1.505692E-17
7.270000E+03	1.525499E-16	1.494450E-17
7.280000E+03	1.522432E-16	1.482637E-17
7.290000E+03	1.518980E-16	1.470251E-17
7.300000E+03	1.515135E-16	1.457294E-17
7.310000E+03	1.510917E-16	1.443799E-17
7.320000E+03	1.506235E-16	1.429688E-17
7.330000E+03	1.501172E-16	1.415057E-17
7.340000E+03	1.495697E-16	1.399892E-17
7.350000E+03	1.489781E-16	1.384187E-17
7.360000E+03	1.483454E-16	1.367990E-17
7.370000E+03	1.476693E-16	1.351302E-17
7.380000E+03	1.469530E-16	1.334182E-17
7.390000E+03	1.461946E-16	1.316638E-17
7.400000E+03	1.453976E-16	1.298738E-17
7.410000E+03	1.445604E-16	1.280500E-17
7.420000E+03	1.436841E-16	1.261974E-17
7.430000E+03	1.427729E-16	1.243238E-17
7.440000E+03	1.418254E-16	1.224327E-17
7.450000E+03	1.408434E-16	1.205303E-17
7.460000E+03	1.398284E-16	1.186233E-17
7.470000E+03	1.387850E-16	1.167212E-17
7.480000E+03	1.377097E-16	1.148269E-17
7.490000E+03	1.366097E-16	1.129528E-17
7.500000E+03	1.354844E-16	1.111049E-17
7.510000E+03	1.343331E-16	1.092894E-17
7.520000E+03	1.331631E-16	1.075195E-17
7.530000E+03	1.319739E-16	1.058017E-17
7.540000E+03	1.307675E-16	1.041451E-17
7.550000E+03	1.295434E-16	1.025563E-17
7.560000E+03	1.283086E-16	1.010482E-17
7.570000E+03	1.270626E-16	9.962719E-18
7.580000E+03	1.258048E-16	9.829920E-18
7.590000E+03	1.245420E-16	9.707555E-18
7.600000E+03	1.232710E-16	9.595892E-18
7.610000E+03	1.219961E-16	9.495692E-18
7.620000E+03	1.207188E-16	9.407408E-18
7.630000E+03	1.194409E-16	9.331372E-18
7.640000E+03	1.181636E-16	9.267780E-18
7.650000E+03	1.168885E-16	9.216690E-18
7.660000E+03	1.156168E-16	9.178024E-18
7.670000E+03	1.143474E-16	9.151392E-18
7.680000E+03	1.130862E-16	9.136841E-18
7.690000E+03	1.118295E-16	9.133583E-18
7.700000E+03	1.105806E-16	9.141303E-18
7.710000E+03	1.093405E-16	9.159442E-18
7.720000E+03	1.081077E-16	9.187209E-18
7.730000E+03	1.068873E-16	9.224346E-18
7.740000E+03	1.056758E-16	9.269834E-18
7.750000E+03	1.044758E-16	9.323212E-18
7.760000E+03	1.032878E-16	9.383845E-18
