#wls	flux	fluxerr
1.600000E+03	2.341971E-14	6.025692E-15
1.640000E+03	1.817446E-14	4.292496E-15
1.680000E+03	1.389055E-14	2.989902E-15
1.720000E+03	1.044888E-14	2.033038E-15
1.760000E+03	7.731951E-15	1.347335E-15
1.800000E+03	5.626509E-15	8.689329E-16
1.840000E+03	4.024748E-15	5.444723E-16
1.880000E+03	2.831283E-15	3.313257E-16
1.920000E+03	1.960649E-15	1.960355E-16
1.960000E+03	1.339675E-15	1.133756E-16
2.000000E+03	9.072124E-16	6.495862E-17
2.040000E+03	6.136424E-16	3.785919E-17
2.080000E+03	4.195639E-16	2.329535E-17
2.120000E+03	2.945752E-16	1.558141E-17
2.160000E+03	2.163086E-16	1.139591E-17
2.200000E+03	1.694775E-16	9.098264E-18
2.240000E+03	1.444761E-16	7.988097E-18
2.280000E+03	1.359295E-16	7.794552E-18
2.320000E+03	1.416950E-16	8.449665E-18
2.360000E+03	1.625799E-16	1.003400E-17
2.400000E+03	2.025641E-16	1.278073E-17
2.440000E+03	2.693036E-16	1.708002E-17
2.480000E+03	3.747670E-16	2.348761E-17
2.520000E+03	5.352869E-16	3.277686E-17
2.560000E+03	7.703491E-16	4.618867E-17
2.600000E+03	1.099028E-15	6.597598E-17
2.640000E+03	1.534261E-15	9.580437E-17
2.680000E+03	2.075370E-15	1.398110E-16
2.720000E+03	2.702888E-15	2.003806E-16
2.760000E+03	3.379318E-15	2.763493E-16
2.800000E+03	4.055247E-15	3.626179E-16
2.840000E+03	4.678641E-15	4.510989E-16
2.880000E+03	5.204441E-15	5.325250E-16
2.920000E+03	5.600857E-15	5.983802E-16
2.960000E+03	5.853274E-15	6.425670E-16
3.000000E+03	5.962275E-15	6.620786E-16
3.010000E+03	5.968604E-15	6.630739E-16
3.020000E+03	5.966951E-15	6.625425E-16
3.030000E+03	5.957620E-15	6.605218E-16
3.040000E+03	5.941203E-15	6.570862E-16
3.050000E+03	5.917899E-15	6.522725E-16
3.060000E+03	5.888056E-15	6.461389E-16
3.070000E+03	5.852151E-15	6.387622E-16
3.080000E+03	5.810413E-15	6.301959E-16
3.090000E+03	5.763198E-15	6.205112E-16
3.100000E+03	5.711098E-15	6.098074E-16
3.110000E+03	5.654214E-15	5.981336E-16
3.120000E+03	5.593002E-15	5.855790E-16
3.130000E+03	5.527675E-15	5.722087E-16
3.140000E+03	5.458875E-15	5.581337E-16
3.150000E+03	5.386571E-15	5.433959E-16
3.160000E+03	5.311161E-15	5.280820E-16
3.170000E+03	5.233015E-15	5.122760E-16
3.180000E+03	5.152382E-15	4.960490E-16
3.190000E+03	5.069308E-15	4.794529E-16
3.200000E+03	4.984305E-15	4.625832E-16
3.210000E+03	4.897392E-15	4.454881E-16
3.220000E+03	4.808856E-15	4.282400E-16
3.230000E+03	4.718793E-15	4.108928E-16
3.240000E+03	4.627462E-15	3.935138E-16
3.250000E+03	4.535019E-15	3.761600E-16
3.260000E+03	4.441613E-15	3.588864E-16
3.270000E+03	4.347313E-15	3.417402E-16
3.280000E+03	4.252332E-15	3.247790E-16
3.290000E+03	4.156799E-15	3.080520E-16
3.300000E+03	4.060777E-15	2.916020E-16
3.310000E+03	3.964461E-15	2.754803E-16
3.320000E+03	3.867917E-15	2.597271E-16
3.330000E+03	3.771337E-15	2.443896E-16
3.340000E+03	3.674797E-15	2.295055E-16
3.350000E+03	3.578441E-15	2.151149E-16
3.360000E+03	3.482420E-15	2.012563E-16
3.370000E+03	3.386892E-15	1.879661E-16
3.380000E+03	3.292028E-15	1.752782E-16
3.390000E+03	3.197967E-15	1.632218E-16
3.400000E+03	3.104957E-15	1.518273E-16
3.410000E+03	3.013132E-15	1.411145E-16
3.420000E+03	2.922824E-15	1.311066E-16
3.430000E+03	2.834221E-15	1.218125E-16
3.440000E+03	2.747625E-15	1.132375E-16
3.450000E+03	2.663375E-15	1.053777E-16
3.460000E+03	2.581808E-15	9.821769E-17
3.470000E+03	2.503372E-15	9.173400E-17
3.480000E+03	2.428478E-15	8.588960E-17
3.490000E+03	2.357572E-15	8.063825E-17
3.500000E+03	2.291158E-15	7.592862E-17
3.510000E+03	2.229735E-15	7.170576E-17
3.520000E+03	2.173875E-15	6.791745E-17
3.530000E+03	2.124050E-15	6.451189E-17
3.540000E+03	2.080858E-15	6.144694E-17
3.550000E+03	2.044850E-15	5.868573E-17
3.560000E+03	2.016581E-15	5.619832E-17
3.570000E+03	1.996584E-15	5.396117E-17
3.580000E+03	1.985434E-15	5.195813E-17
3.590000E+03	1.983703E-15	5.017657E-17
3.600000E+03	1.991905E-15	4.860753E-17
3.610000E+03	2.010679E-15	4.724937E-17
3.620000E+03	2.040537E-15	4.609794E-17
3.630000E+03	2.082003E-15	4.515425E-17
3.640000E+03	2.135639E-15	4.442453E-17
3.650000E+03	2.201872E-15	4.390950E-17
3.660000E+03	2.281070E-15	4.361455E-17
3.670000E+03	2.373634E-15	4.355064E-17
3.680000E+03	2.479536E-15	4.371210E-17
3.690000E+03	2.598715E-15	4.409827E-17
3.700000E+03	2.730980E-15	4.471313E-17
3.710000E+03	2.875736E-15	4.554616E-17
3.720000E+03	3.032210E-15	4.659115E-17
3.730000E+03	3.199543E-15	4.784597E-17
3.740000E+03	3.376128E-15	4.927557E-17
3.750000E+03	3.560302E-15	5.084730E-17
3.760000E+03	3.750427E-15	5.253601E-17
3.770000E+03	3.944366E-15	5.429205E-17
3.780000E+03	4.140224E-15	5.607924E-17
3.790000E+03	4.336493E-15	5.787948E-17
3.800000E+03	4.531220E-15	5.964794E-17
3.810000E+03	4.722808E-15	6.135985E-17
3.820000E+03	4.910518E-15	6.302083E-17
3.830000E+03	5.093006E-15	6.460774E-17
3.840000E+03	5.269535E-15	6.612474E-17
3.850000E+03	5.440209E-15	6.760442E-17
3.860000E+03	5.604062E-15	6.902674E-17
3.870000E+03	5.760741E-15	7.039388E-17
3.880000E+03	5.910618E-15	7.173351E-17
3.890000E+03	6.052678E-15	7.301162E-17
3.900000E+03	6.186596E-15	7.421842E-17
3.910000E+03	6.312623E-15	7.536989E-17
3.920000E+03	6.429555E-15	7.641911E-17
3.930000E+03	6.536623E-15	7.734389E-17
3.940000E+03	6.633565E-15	7.815179E-17
3.950000E+03	6.718784E-15	7.879464E-17
3.960000E+03	6.790976E-15	7.925525E-17
3.970000E+03	6.849199E-15	7.955161E-17
3.980000E+03	6.891490E-15	7.965298E-17
3.990000E+03	6.916208E-15	7.956156E-17
4.000000E+03	6.922451E-15	7.931224E-17
4.010000E+03	6.908264E-15	7.887318E-17
4.020000E+03	6.872515E-15	7.824042E-17
4.030000E+03	6.815256E-15	7.744083E-17
4.040000E+03	6.735732E-15	7.643543E-17
4.050000E+03	6.634486E-15	7.522058E-17
4.060000E+03	6.513202E-15	7.382810E-17
4.070000E+03	6.373207E-15	7.224062E-17
4.080000E+03	6.217096E-15	7.047750E-17
4.090000E+03	6.048703E-15	6.859144E-17
4.100000E+03	5.871326E-15	6.658731E-17
4.110000E+03	5.689343E-15	6.450348E-17
4.120000E+03	5.507941E-15	6.240882E-17
4.130000E+03	5.331056E-15	6.032722E-17
4.140000E+03	5.163209E-15	5.831363E-17
4.150000E+03	5.008967E-15	5.644295E-17
4.160000E+03	4.871075E-15	5.473546E-17
4.170000E+03	4.752291E-15	5.322967E-17
4.180000E+03	4.655253E-15	5.197755E-17
4.190000E+03	4.580692E-15	5.097706E-17
4.200000E+03	4.529177E-15	5.023870E-17
4.210000E+03	4.501100E-15	4.978481E-17
4.220000E+03	4.495193E-15	4.959048E-17
4.230000E+03	4.509897E-15	4.964218E-17
4.240000E+03	4.543527E-15	4.993777E-17
4.250000E+03	4.593142E-15	5.042663E-17
4.260000E+03	4.655688E-15	5.106781E-17
4.270000E+03	4.728197E-15	5.183261E-17
4.280000E+03	4.807257E-15	5.265184E-17
4.290000E+03	4.889891E-15	5.347450E-17
4.300000E+03	4.973783E-15	5.427629E-17
4.310000E+03	5.056491E-15	5.500764E-17
4.320000E+03	5.136303E-15	5.565249E-17
4.330000E+03	5.212356E-15	5.623040E-17
4.340000E+03	5.283166E-15	5.672675E-17
4.350000E+03	5.347859E-15	5.715507E-17
4.360000E+03	5.405773E-15	5.754914E-17
4.370000E+03	5.455462E-15	5.789250E-17
4.380000E+03	5.495593E-15	5.818087E-17
4.390000E+03	5.525157E-15	5.842432E-17
4.400000E+03	5.542570E-15	5.858161E-17
4.410000E+03	5.546970E-15	5.863198E-17
4.420000E+03	5.538171E-15	5.857741E-17
4.430000E+03	5.515820E-15	5.837878E-17
4.440000E+03	5.480595E-15	5.803056E-17
4.450000E+03	5.433893E-15	5.755979E-17
4.460000E+03	5.376684E-15	5.695639E-17
4.470000E+03	5.310584E-15	5.624043E-17
4.480000E+03	5.237491E-15	5.545387E-17
4.490000E+03	5.158523E-15	5.459094E-17
4.500000E+03	5.075028E-15	5.366672E-17
4.510000E+03	4.988510E-15	5.271723E-17
4.520000E+03	4.899497E-15	5.173551E-17
4.530000E+03	4.808780E-15	5.073697E-17
4.540000E+03	4.717423E-15	4.975595E-17
4.550000E+03	4.625606E-15	4.878263E-17
4.560000E+03	4.533831E-15	4.782522E-17
4.570000E+03	4.442965E-15	4.690922E-17
4.580000E+03	4.353249E-15	4.602142E-17
4.590000E+03	4.265119E-15	4.516515E-17
4.600000E+03	4.179382E-15	4.436008E-17
4.610000E+03	4.096240E-15	4.358734E-17
4.620000E+03	4.016122E-15	4.284558E-17
4.630000E+03	3.939569E-15	4.214936E-17
4.640000E+03	3.866708E-15	4.148051E-17
4.650000E+03	3.797641E-15	4.083618E-17
4.660000E+03	3.732943E-15	4.023258E-17
4.670000E+03	3.672555E-15	3.965247E-17
4.680000E+03	3.616762E-15	3.909639E-17
4.690000E+03	3.566176E-15	3.858288E-17
4.700000E+03	3.520919E-15	3.810371E-17
4.710000E+03	3.481517E-15	3.767036E-17
4.720000E+03	3.448674E-15	3.730977E-17
4.730000E+03	3.422515E-15	3.701908E-17
4.740000E+03	3.403408E-15	3.680857E-17
4.750000E+03	3.391802E-15	3.669750E-17
4.760000E+03	3.387673E-15	3.667210E-17
4.770000E+03	3.390932E-15	3.672652E-17
4.780000E+03	3.401821E-15	3.686848E-17
4.790000E+03	3.419988E-15	3.707458E-17
4.800000E+03	3.445185E-15	3.733588E-17
4.810000E+03	3.477490E-15	3.766179E-17
4.820000E+03	3.516577E-15	3.803621E-17
4.830000E+03	3.562238E-15	3.845994E-17
4.840000E+03	3.614595E-15	3.895332E-17
4.850000E+03	3.673281E-15	3.950778E-17
4.860000E+03	3.738050E-15	4.012867E-17
4.870000E+03	3.808836E-15	4.083471E-17
4.880000E+03	3.885087E-15	4.160900E-17
4.890000E+03	3.966186E-15	4.244355E-17
4.900000E+03	4.051595E-15	4.334375E-17
4.910000E+03	4.140069E-15	4.427927E-17
4.920000E+03	4.230388E-15	4.523486E-17
4.930000E+03	4.321241E-15	4.621094E-17
4.940000E+03	4.410795E-15	4.717313E-17
4.950000E+03	4.497359E-15	4.810403E-17
4.960000E+03	4.579325E-15	4.900356E-17
4.970000E+03	4.654955E-15	4.983762E-17
4.980000E+03	4.722780E-15	5.058921E-17
4.990000E+03	4.781803E-15	5.126130E-17
5.000000E+03	4.830887E-15	5.181892E-17
5.010000E+03	4.869493E-15	5.225047E-17
5.020000E+03	4.897317E-15	5.256687E-17
5.030000E+03	4.914005E-15	5.274613E-17
5.040000E+03	4.919655E-15	5.279195E-17
5.050000E+03	4.914666E-15	5.273077E-17
5.060000E+03	4.899331E-15	5.255107E-17
5.070000E+03	4.874398E-15	5.226300E-17
5.080000E+03	4.841042E-15	5.189792E-17
5.090000E+03	4.800089E-15	5.144706E-17
5.100000E+03	4.752804E-15	5.092465E-17
5.110000E+03	4.700783E-15	5.036625E-17
5.120000E+03	4.644852E-15	4.976435E-17
5.130000E+03	4.586181E-15	4.913254E-17
5.140000E+03	4.525788E-15	4.849873E-17
5.150000E+03	4.464205E-15	4.785143E-17
5.160000E+03	4.401868E-15	4.719462E-17
5.170000E+03	4.339339E-15	4.654958E-17
5.180000E+03	4.276660E-15	4.590001E-17
5.190000E+03	4.214013E-15	4.524741E-17
5.200000E+03	4.151865E-15	4.461080E-17
5.210000E+03	4.090378E-15	4.397386E-17
5.220000E+03	4.030130E-15	4.333956E-17
5.230000E+03	3.971755E-15	4.272625E-17
5.240000E+03	3.915737E-15	4.212286E-17
5.250000E+03	3.862710E-15	4.153652E-17
5.260000E+03	3.813423E-15	4.099152E-17
5.270000E+03	3.768039E-15	4.048049E-17
5.280000E+03	3.726900E-15	4.001210E-17
5.290000E+03	3.690280E-15	3.960622E-17
5.300000E+03	3.657871E-15	3.924846E-17
5.310000E+03	3.629326E-15	3.893631E-17
5.320000E+03	3.604376E-15	3.868061E-17
5.330000E+03	3.582072E-15	3.845904E-17
5.340000E+03	3.561595E-15	3.826521E-17
5.350000E+03	3.542239E-15	3.810748E-17
5.360000E+03	3.523122E-15	3.796511E-17
5.370000E+03	3.503516E-15	3.783021E-17
5.380000E+03	3.483225E-15	3.771025E-17
5.390000E+03	3.462052E-15	3.758328E-17
5.400000E+03	3.440239E-15	3.744336E-17
5.410000E+03	3.418344E-15	3.730154E-17
5.420000E+03	3.396950E-15	3.714662E-17
5.430000E+03	3.376896E-15	3.698615E-17
5.440000E+03	3.359032E-15	3.684277E-17
5.450000E+03	3.343965E-15	3.671335E-17
5.460000E+03	3.332189E-15	3.660669E-17
5.470000E+03	3.324191E-15	3.654369E-17
5.480000E+03	3.320066E-15	3.651645E-17
5.490000E+03	3.319607E-15	3.652554E-17
5.500000E+03	3.322578E-15	3.658253E-17
5.510000E+03	3.328171E-15	3.666687E-17
5.520000E+03	3.335544E-15	3.676923E-17
5.530000E+03	3.343629E-15	3.688970E-17
5.540000E+03	3.351182E-15	3.700142E-17
5.550000E+03	3.356973E-15	3.708928E-17
5.560000E+03	3.360039E-15	3.715299E-17
5.570000E+03	3.359250E-15	3.716588E-17
5.580000E+03	3.353847E-15	3.711745E-17
5.590000E+03	3.343371E-15	3.701288E-17
5.600000E+03	3.327448E-15	3.683509E-17
5.610000E+03	3.305942E-15	3.658279E-17
5.620000E+03	3.279072E-15	3.627132E-17
5.630000E+03	3.246889E-15	3.589114E-17
5.640000E+03	3.209611E-15	3.544728E-17
5.650000E+03	3.167616E-15	3.495858E-17
5.660000E+03	3.120874E-15	3.441618E-17
5.670000E+03	3.069502E-15	3.382466E-17
5.680000E+03	3.013686E-15	3.319971E-17
5.690000E+03	2.953250E-15	3.252938E-17
5.700000E+03	2.888136E-15	3.181362E-17
5.710000E+03	2.818421E-15	3.106343E-17
5.720000E+03	2.744049E-15	3.026582E-17
5.730000E+03	2.665068E-15	2.941957E-17
5.740000E+03	2.581885E-15	2.853724E-17
5.750000E+03	2.494767E-15	2.761047E-17
5.760000E+03	2.404257E-15	2.664486E-17
5.770000E+03	2.311232E-15	2.565884E-17
5.780000E+03	2.216484E-15	2.465211E-17
5.790000E+03	2.121032E-15	2.363701E-17
5.800000E+03	2.026139E-15	2.263698E-17
5.810000E+03	1.932952E-15	2.165879E-17
5.820000E+03	1.842690E-15	2.071798E-17
5.830000E+03	1.756721E-15	1.983751E-17
5.840000E+03	1.676113E-15	1.902237E-17
5.850000E+03	1.601955E-15	1.828290E-17
5.860000E+03	1.535297E-15	1.763257E-17
5.870000E+03	1.476731E-15	1.706617E-17
5.880000E+03	1.426871E-15	1.658382E-17
5.890000E+03	1.386222E-15	1.618964E-17
5.900000E+03	1.354931E-15	1.587537E-17
5.910000E+03	1.333147E-15	1.563934E-17
5.920000E+03	1.321026E-15	1.548644E-17
5.930000E+03	1.318444E-15	1.541122E-17
5.940000E+03	1.325259E-15	1.541485E-17
5.950000E+03	1.341404E-15	1.550593E-17
5.960000E+03	1.366600E-15	1.568324E-17
5.970000E+03	1.400537E-15	1.595062E-17
5.980000E+03	1.442847E-15	1.631603E-17
5.990000E+03	1.493007E-15	1.677431E-17
6.000000E+03	1.550314E-15	1.732162E-17
6.010000E+03	1.614086E-15	1.795838E-17
6.020000E+03	1.683363E-15	1.866838E-17
6.030000E+03	1.757153E-15	1.943898E-17
6.040000E+03	1.834455E-15	2.026280E-17
6.050000E+03	1.914181E-15	2.111745E-17
6.060000E+03	1.995300E-15	2.198692E-17
6.070000E+03	2.076806E-15	2.286335E-17
6.080000E+03	2.157853E-15	2.372676E-17
6.090000E+03	2.237595E-15	2.456571E-17
6.100000E+03	2.315446E-15	2.538187E-17
6.110000E+03	2.390769E-15	2.616105E-17
6.120000E+03	2.463051E-15	2.689943E-17
6.130000E+03	2.531915E-15	2.760435E-17
6.140000E+03	2.596954E-15	2.826403E-17
6.150000E+03	2.657804E-15	2.887535E-17
6.160000E+03	2.714229E-15	2.944636E-17
6.170000E+03	2.765962E-15	2.996529E-17
6.180000E+03	2.812735E-15	3.043005E-17
6.190000E+03	2.854540E-15	3.085188E-17
6.200000E+03	2.891263E-15	3.122033E-17
6.210000E+03	2.922991E-15	3.153726E-17
6.220000E+03	2.949928E-15	3.181632E-17
6.230000E+03	2.972136E-15	3.204755E-17
6.240000E+03	2.989893E-15	3.223358E-17
6.250000E+03	3.003553E-15	3.238866E-17
6.260000E+03	3.013267E-15	3.250285E-17
6.270000E+03	3.019254E-15	3.257806E-17
6.280000E+03	3.021870E-15	3.262935E-17
6.290000E+03	3.021102E-15	3.264677E-17
6.300000E+03	3.017016E-15	3.263283E-17
6.310000E+03	3.009811E-15	3.260222E-17
6.320000E+03	2.999376E-15	3.254301E-17
6.330000E+03	2.985636E-15	3.245407E-17
6.340000E+03	2.968747E-15	3.234724E-17
6.350000E+03	2.948662E-15	3.220997E-17
6.360000E+03	2.925436E-15	3.204168E-17
6.370000E+03	2.899444E-15	3.185577E-17
6.380000E+03	2.870835E-15	3.164103E-17
6.390000E+03	2.839952E-15	3.139976E-17
6.400000E+03	2.807319E-15	3.114748E-17
6.410000E+03	2.773381E-15	3.087841E-17
6.420000E+03	2.738591E-15	3.059827E-17
6.430000E+03	2.703620E-15	3.032540E-17
6.440000E+03	2.668825E-15	3.005335E-17
6.450000E+03	2.634598E-15	2.978541E-17
6.460000E+03	2.601377E-15	2.953395E-17
6.470000E+03	2.569288E-15	2.928699E-17
6.480000E+03	2.538478E-15	2.904187E-17
6.490000E+03	2.508965E-15	2.880399E-17
6.500000E+03	2.480677E-15	2.856094E-17
6.510000E+03	2.453484E-15	2.831025E-17
6.520000E+03	2.427255E-15	2.805968E-17
6.530000E+03	2.401772E-15	2.780040E-17
6.540000E+03	2.376859E-15	2.753385E-17
6.550000E+03	2.352438E-15	2.727114E-17
6.560000E+03	2.328325E-15	2.700471E-17
6.570000E+03	2.304489E-15	2.673700E-17
6.580000E+03	2.280924E-15	2.647807E-17
6.590000E+03	2.257545E-15	2.621833E-17
6.600000E+03	2.234399E-15	2.595796E-17
6.610000E+03	2.211577E-15	2.570611E-17
6.620000E+03	2.188998E-15	2.545333E-17
6.630000E+03	2.166731E-15	2.520113E-17
6.640000E+03	2.144833E-15	2.495947E-17
6.650000E+03	2.123320E-15	2.472076E-17
6.660000E+03	2.102134E-15	2.448511E-17
6.670000E+03	2.081353E-15	2.426241E-17
6.680000E+03	2.060953E-15	2.404426E-17
6.690000E+03	2.040948E-15	2.383099E-17
6.700000E+03	2.021387E-15	2.363125E-17
6.710000E+03	2.002223E-15	2.343607E-17
6.720000E+03	1.983516E-15	2.324596E-17
6.730000E+03	1.965322E-15	2.306933E-17
6.740000E+03	1.947635E-15	2.289792E-17
6.750000E+03	1.930407E-15	2.273117E-17
6.760000E+03	1.913793E-15	2.257870E-17
6.770000E+03	1.897680E-15	2.243178E-17
6.780000E+03	1.882152E-15	2.229182E-17
6.790000E+03	1.867214E-15	2.216669E-17
6.800000E+03	1.852842E-15	2.204845E-17
6.810000E+03	1.839033E-15	2.193674E-17
6.820000E+03	1.825806E-15	2.183836E-17
6.830000E+03	1.813118E-15	2.174406E-17
6.840000E+03	1.800910E-15	2.165146E-17
6.850000E+03	1.789252E-15	2.156675E-17
6.860000E+03	1.778002E-15	2.147976E-17
6.870000E+03	1.767209E-15	2.138991E-17
6.880000E+03	1.756886E-15	2.130368E-17
6.890000E+03	1.746992E-15	2.121470E-17
6.900000E+03	1.737514E-15	2.112443E-17
6.910000E+03	1.728589E-15	2.104302E-17
6.920000E+03	1.720089E-15	2.096383E-17
6.930000E+03	1.712130E-15	2.089007E-17
6.940000E+03	1.704697E-15	2.082995E-17
6.950000E+03	1.697717E-15	2.077671E-17
6.960000E+03	1.691179E-15	2.073096E-17
6.970000E+03	1.685032E-15	2.069899E-17
6.980000E+03	1.679133E-15	2.067089E-17
6.990000E+03	1.673363E-15	2.064322E-17
7.000000E+03	1.667633E-15	2.061925E-17
7.010000E+03	1.661743E-15	2.058725E-17
7.020000E+03	1.655493E-15	2.054217E-17
7.030000E+03	1.648822E-15	2.048763E-17
7.040000E+03	1.641425E-15	2.041242E-17
7.050000E+03	1.633240E-15	2.031576E-17
7.060000E+03	1.624074E-15	2.020315E-17
7.070000E+03	1.613859E-15	2.007253E-17
7.080000E+03	1.602505E-15	1.992924E-17
7.090000E+03	1.590039E-15	1.978683E-17
7.100000E+03	1.576485E-15	1.964773E-17
7.110000E+03	1.561863E-15	1.951988E-17
7.120000E+03	1.546368E-15	1.941690E-17
7.130000E+03	1.530060E-15	1.933380E-17
7.140000E+03	1.513132E-15	1.927028E-17
7.150000E+03	1.495796E-15	1.922937E-17
7.160000E+03	1.478130E-15	1.919704E-17
7.170000E+03	1.460303E-15	1.916471E-17
7.180000E+03	1.442419E-15	1.912893E-17
7.190000E+03	1.424598E-15	1.907789E-17
7.200000E+03	1.406883E-15	1.900522E-17
7.210000E+03	1.389320E-15	1.891110E-17
7.220000E+03	1.371923E-15	1.878861E-17
7.230000E+03	1.354682E-15	1.863609E-17
7.240000E+03	1.337567E-15	1.845647E-17
7.250000E+03	1.320499E-15	1.824459E-17
7.260000E+03	1.303412E-15	1.799974E-17
7.270000E+03	1.286255E-15	1.772574E-17
7.280000E+03	1.268921E-15	1.741964E-17
7.290000E+03	1.251274E-15	1.708254E-17
7.300000E+03	1.233300E-15	1.672173E-17
7.310000E+03	1.214851E-15	1.633759E-17
7.320000E+03	1.195808E-15	1.593554E-17
7.330000E+03	1.176132E-15	1.552574E-17
7.340000E+03	1.155652E-15	1.510951E-17
7.350000E+03	1.134294E-15	1.469302E-17
7.360000E+03	1.112031E-15	1.428532E-17
7.370000E+03	1.088759E-15	1.388463E-17
7.380000E+03	1.064491E-15	1.349300E-17
7.390000E+03	1.039225E-15	1.311426E-17
7.400000E+03	1.013027E-15	1.274397E-17
7.410000E+03	9.859594E-16	1.238019E-17
7.420000E+03	9.582122E-16	1.202514E-17
7.430000E+03	9.298479E-16	1.167220E-17
7.440000E+03	9.010072E-16	1.131933E-17
7.450000E+03	8.718793E-16	1.096860E-17
7.460000E+03	8.424657E-16	1.061441E-17
7.470000E+03	8.128730E-16	1.025749E-17
7.480000E+03	7.831314E-16	9.902740E-18
7.490000E+03	7.531783E-16	9.551029E-18
7.500000E+03	7.229519E-16	9.208228E-18
7.510000E+03	6.925125E-16	8.885018E-18
7.520000E+03	6.617565E-16	8.584035E-18
7.530000E+03	6.307448E-16	8.309149E-18
7.540000E+03	5.997179E-16	8.063577E-18
7.550000E+03	5.689000E-16	7.841210E-18
7.560000E+03	5.386624E-16	7.636026E-18
7.570000E+03	5.093776E-16	7.442154E-18
7.580000E+03	4.813226E-16	7.249936E-18
7.590000E+03	4.547391E-16	7.053167E-18
7.600000E+03	4.298142E-16	6.849775E-18
7.610000E+03	4.066764E-16	6.639532E-18
7.620000E+03	3.853952E-16	6.424667E-18
7.630000E+03	3.660340E-16	6.209737E-18
7.640000E+03	3.485740E-16	5.998484E-18
7.650000E+03	3.330127E-16	5.795772E-18
7.660000E+03	3.193003E-16	5.605665E-18
7.670000E+03	3.073780E-16	5.430262E-18
7.680000E+03	2.971582E-16	5.270925E-18
7.690000E+03	2.885871E-16	5.129339E-18
7.700000E+03	2.815746E-16	5.005043E-18
7.710000E+03	2.760490E-16	4.897845E-18
7.720000E+03	2.719523E-16	4.807898E-18
7.730000E+03	2.692247E-16	4.734512E-18
7.740000E+03	2.678205E-16	4.677558E-18
7.750000E+03	2.677008E-16	4.637308E-18
7.760000E+03	2.688410E-16	4.613402E-18
