#wls	flux	fluxerr
1.600000E+03	1.089036E-16	5.127083E-17
1.640000E+03	1.065396E-16	4.820012E-17
1.680000E+03	1.044403E-16	4.533738E-17
1.720000E+03	1.026049E-16	4.267517E-17
1.760000E+03	1.010508E-16	4.021455E-17
1.800000E+03	9.974486E-17	3.793743E-17
1.840000E+03	9.872478E-17	3.585557E-17
1.880000E+03	9.796197E-17	3.395744E-17
1.920000E+03	9.749708E-17	3.225899E-17
1.960000E+03	9.733934E-17	3.076691E-17
2.000000E+03	9.748476E-17	2.948703E-17
2.040000E+03	9.794908E-17	2.843486E-17
2.080000E+03	9.876850E-17	2.763416E-17
2.120000E+03	9.995238E-17	2.710193E-17
2.160000E+03	1.015499E-16	2.686578E-17
2.200000E+03	1.036004E-16	2.694935E-17
2.240000E+03	1.061480E-16	2.737587E-17
2.280000E+03	1.092210E-16	2.816081E-17
2.320000E+03	1.128798E-16	2.932143E-17
2.360000E+03	1.171845E-16	3.086906E-17
2.400000E+03	1.221415E-16	3.279824E-17
2.440000E+03	1.278353E-16	3.512383E-17
2.480000E+03	1.342988E-16	3.784815E-17
2.520000E+03	1.415887E-16	4.098168E-17
2.560000E+03	1.497676E-16	4.453844E-17
2.600000E+03	1.589281E-16	4.854330E-17
2.640000E+03	1.691495E-16	5.301866E-17
2.680000E+03	1.804923E-16	5.798114E-17
2.720000E+03	1.930762E-16	6.346534E-17
2.760000E+03	2.070048E-16	6.950029E-17
2.800000E+03	2.223900E-16	7.611623E-17
2.840000E+03	2.393171E-16	8.333204E-17
2.880000E+03	2.579788E-16	9.120108E-17
2.920000E+03	2.784769E-16	9.974201E-17
2.960000E+03	3.009093E-16	1.089677E-16
3.000000E+03	3.255452E-16	1.189484E-16
3.010000E+03	3.320439E-16	1.215562E-16
3.020000E+03	3.386781E-16	1.242079E-16
3.030000E+03	3.454499E-16	1.269035E-16
3.040000E+03	3.524086E-16	1.296607E-16
3.050000E+03	3.595101E-16	1.324626E-16
3.060000E+03	3.667565E-16	1.353092E-16
3.070000E+03	3.741497E-16	1.382007E-16
3.080000E+03	3.817423E-16	1.411557E-16
3.090000E+03	3.894871E-16	1.441561E-16
3.100000E+03	3.973860E-16	1.472019E-16
3.110000E+03	4.054409E-16	1.502930E-16
3.120000E+03	4.136537E-16	1.534293E-16
3.130000E+03	4.220813E-16	1.566310E-16
3.140000E+03	4.306722E-16	1.598783E-16
3.150000E+03	4.394281E-16	1.631709E-16
3.160000E+03	4.483509E-16	1.665087E-16
3.170000E+03	4.574421E-16	1.698913E-16
3.180000E+03	4.667636E-16	1.733407E-16
3.190000E+03	4.762588E-16	1.768351E-16
3.200000E+03	4.859294E-16	1.803740E-16
3.210000E+03	4.957770E-16	1.839571E-16
3.220000E+03	5.058672E-16	1.876077E-16
3.230000E+03	5.161394E-16	1.913023E-16
3.240000E+03	5.265949E-16	1.950403E-16
3.250000E+03	5.372353E-16	1.988213E-16
3.260000E+03	5.481303E-16	2.026699E-16
3.270000E+03	5.591450E-16	2.065352E-16
3.280000E+03	5.704190E-16	2.104676E-16
3.290000E+03	5.818847E-16	2.144410E-16
3.300000E+03	5.936164E-16	2.184817E-16
3.310000E+03	6.054696E-16	2.225352E-16
3.320000E+03	6.175930E-16	2.266550E-16
3.330000E+03	6.299141E-16	2.308133E-16
3.340000E+03	6.424334E-16	2.350090E-16
3.350000E+03	6.552311E-16	2.392702E-16
3.360000E+03	6.682307E-16	2.435675E-16
3.370000E+03	6.814326E-16	2.478999E-16
3.380000E+03	6.948370E-16	2.522662E-16
3.390000E+03	7.084441E-16	2.566650E-16
3.400000E+03	7.223400E-16	2.611262E-16
3.410000E+03	7.363540E-16	2.655866E-16
3.420000E+03	7.507479E-16	2.701393E-16
3.430000E+03	7.652594E-16	2.746881E-16
3.440000E+03	7.799755E-16	2.792631E-16
3.450000E+03	7.949885E-16	2.838955E-16
3.460000E+03	8.102078E-16	2.885513E-16
3.470000E+03	8.256326E-16	2.932286E-16
3.480000E+03	8.412620E-16	2.979252E-16
3.490000E+03	8.571939E-16	3.026739E-16
3.500000E+03	8.733313E-16	3.074382E-16
3.510000E+03	8.896730E-16	3.122158E-16
3.520000E+03	9.062179E-16	3.170042E-16
3.530000E+03	9.229643E-16	3.218005E-16
3.540000E+03	9.400170E-16	3.266389E-16
3.550000E+03	9.572710E-16	3.314803E-16
3.560000E+03	9.747245E-16	3.363218E-16
3.570000E+03	9.923755E-16	3.411600E-16
3.580000E+03	1.010222E-15	3.459919E-16
3.590000E+03	1.028375E-15	3.508528E-16
3.600000E+03	1.046722E-15	3.557011E-16
3.610000E+03	1.065260E-15	3.605333E-16
3.620000E+03	1.083986E-15	3.653456E-16
3.630000E+03	1.102898E-15	3.701344E-16
3.640000E+03	1.122113E-15	3.749364E-16
3.650000E+03	1.141510E-15	3.797077E-16
3.660000E+03	1.161086E-15	3.844442E-16
3.670000E+03	1.180836E-15	3.891419E-16
3.680000E+03	1.200757E-15	3.937965E-16
3.690000E+03	1.220974E-15	3.984462E-16
3.700000E+03	1.241357E-15	4.030451E-16
3.710000E+03	1.261901E-15	4.075886E-16
3.720000E+03	1.282601E-15	4.120725E-16
3.730000E+03	1.303453E-15	4.164923E-16
3.740000E+03	1.324450E-15	4.208435E-16
3.750000E+03	1.345729E-15	4.251660E-16
3.760000E+03	1.367146E-15	4.294117E-16
3.770000E+03	1.388695E-15	4.335761E-16
3.780000E+03	1.410371E-15	4.376548E-16
3.790000E+03	1.432168E-15	4.416433E-16
3.800000E+03	1.454079E-15	4.455375E-16
3.810000E+03	1.476247E-15	4.493787E-16
3.820000E+03	1.498366E-15	4.530714E-16
3.830000E+03	1.520733E-15	4.567034E-16
3.840000E+03	1.543188E-15	4.602248E-16
3.850000E+03	1.565725E-15	4.636318E-16
3.860000E+03	1.588335E-15	4.669207E-16
3.870000E+03	1.611171E-15	4.701346E-16
3.880000E+03	1.633906E-15	4.731768E-16
3.890000E+03	1.656852E-15	4.761377E-16
3.900000E+03	1.679676E-15	4.789207E-16
3.910000E+03	1.702698E-15	4.816168E-16
3.920000E+03	1.725745E-15	4.841768E-16
3.930000E+03	1.748807E-15	4.865985E-16
3.940000E+03	1.771874E-15	4.888800E-16
3.950000E+03	1.794937E-15	4.910197E-16
3.960000E+03	1.817985E-15	4.930166E-16
3.970000E+03	1.841185E-15	4.949172E-16
3.980000E+03	1.864175E-15	4.966263E-16
3.990000E+03	1.887118E-15	4.981916E-16
4.000000E+03	1.910185E-15	4.996606E-16
4.010000E+03	1.933186E-15	5.009872E-16
4.020000E+03	1.955928E-15	5.021256E-16
4.030000E+03	1.978762E-15	5.031722E-16
4.040000E+03	2.001497E-15	5.040824E-16
4.050000E+03	2.024120E-15	5.048594E-16
4.060000E+03	2.046619E-15	5.055070E-16
4.070000E+03	2.068791E-15	5.059830E-16
4.080000E+03	2.091003E-15	5.063858E-16
4.090000E+03	2.113054E-15	5.066744E-16
4.100000E+03	2.134932E-15	5.068553E-16
4.110000E+03	2.156623E-15	5.069355E-16
4.120000E+03	2.178114E-15	5.069228E-16
4.130000E+03	2.199394E-15	5.068258E-16
4.140000E+03	2.220448E-15	5.066537E-16
4.150000E+03	2.241263E-15	5.064164E-16
4.160000E+03	2.261828E-15	5.061246E-16
4.170000E+03	2.282128E-15	5.057894E-16
4.180000E+03	2.302150E-15	5.054229E-16
4.190000E+03	2.321881E-15	5.050376E-16
4.200000E+03	2.341309E-15	5.046465E-16
4.210000E+03	2.360420E-15	5.042632E-16
4.220000E+03	2.379201E-15	5.039019E-16
4.230000E+03	2.397431E-15	5.035330E-16
4.240000E+03	2.415514E-15	5.032590E-16
4.250000E+03	2.433228E-15	5.030506E-16
4.260000E+03	2.450351E-15	5.028797E-16
4.270000E+03	2.467291E-15	5.028474E-16
4.280000E+03	2.483615E-15	5.028821E-16
4.290000E+03	2.499735E-15	5.030838E-16
4.300000E+03	2.515213E-15	5.033804E-16
4.310000E+03	2.530252E-15	5.038274E-16
4.320000E+03	2.544842E-15	5.044366E-16
4.330000E+03	2.558972E-15	5.052183E-16
4.340000E+03	2.572634E-15	5.061816E-16
4.350000E+03	2.585819E-15	5.073336E-16
4.360000E+03	2.598306E-15	5.086370E-16
4.370000E+03	2.610520E-15	5.101793E-16
4.380000E+03	2.622024E-15	5.118765E-16
4.390000E+03	2.633031E-15	5.137688E-16
4.400000E+03	2.643538E-15	5.158523E-16
4.410000E+03	2.653546E-15	5.181210E-16
4.420000E+03	2.663053E-15	5.205670E-16
4.430000E+03	2.671843E-15	5.231383E-16
4.440000E+03	2.680351E-15	5.259092E-16
4.450000E+03	2.688147E-15	5.287826E-16
4.460000E+03	2.695448E-15	5.317880E-16
4.470000E+03	2.702258E-15	5.349117E-16
4.480000E+03	2.708581E-15	5.381392E-16
4.490000E+03	2.714204E-15	5.414124E-16
4.500000E+03	2.719565E-15	5.448022E-16
4.510000E+03	2.724236E-15	5.482066E-16
4.520000E+03	2.728438E-15	5.516532E-16
4.530000E+03	2.732178E-15	5.551262E-16
4.540000E+03	2.735246E-15	5.585663E-16
4.550000E+03	2.737865E-15	5.620017E-16
4.560000E+03	2.740040E-15	5.654172E-16
4.570000E+03	2.741779E-15	5.687982E-16
4.580000E+03	2.743089E-15	5.721303E-16
4.590000E+03	2.743765E-15	5.753549E-16
4.600000E+03	2.744027E-15	5.785031E-16
4.610000E+03	2.743883E-15	5.815619E-16
4.620000E+03	2.743342E-15	5.845191E-16
4.630000E+03	2.742202E-15	5.873179E-16
4.640000E+03	2.740890E-15	5.900371E-16
4.650000E+03	2.738997E-15	5.925762E-16
4.660000E+03	2.736533E-15	5.949251E-16
4.670000E+03	2.733923E-15	5.971649E-16
4.680000E+03	2.730760E-15	5.991967E-16
4.690000E+03	2.727261E-15	6.010577E-16
4.700000E+03	2.723230E-15	6.026952E-16
4.710000E+03	2.718883E-15	6.041480E-16
4.720000E+03	2.714228E-15	6.054100E-16
4.730000E+03	2.709274E-15	6.064758E-16
4.740000E+03	2.704030E-15	6.073406E-16
4.750000E+03	2.698304E-15	6.079548E-16
4.760000E+03	2.692308E-15	6.083602E-16
4.770000E+03	2.685851E-15	6.085085E-16
4.780000E+03	2.679143E-15	6.084425E-16
4.790000E+03	2.672193E-15	6.081603E-16
4.800000E+03	2.665010E-15	6.076602E-16
4.810000E+03	2.657406E-15	6.068967E-16
4.820000E+03	2.649588E-15	6.059143E-16
4.830000E+03	2.641564E-15	6.047129E-16
4.840000E+03	2.633343E-15	6.032928E-16
4.850000E+03	2.624741E-15	6.016113E-16
4.860000E+03	2.615960E-15	5.997138E-16
4.870000E+03	2.606819E-15	5.975588E-16
4.880000E+03	2.597517E-15	5.951923E-16
4.890000E+03	2.588061E-15	5.926168E-16
4.900000E+03	2.578461E-15	5.898352E-16
4.910000E+03	2.568538E-15	5.868088E-16
4.920000E+03	2.558486E-15	5.835840E-16
4.930000E+03	2.548132E-15	5.801233E-16
4.940000E+03	2.537847E-15	5.765146E-16
4.950000E+03	2.527095E-15	5.726390E-16
4.960000E+03	2.516427E-15	5.686254E-16
4.970000E+03	2.505489E-15	5.643976E-16
4.980000E+03	2.494470E-15	5.600026E-16
4.990000E+03	2.483376E-15	5.554464E-16
5.000000E+03	2.472037E-15	5.506963E-16
5.010000E+03	2.460638E-15	5.457991E-16
5.020000E+03	2.449184E-15	5.407619E-16
5.030000E+03	2.437509E-15	5.355542E-16
5.040000E+03	2.425794E-15	5.302226E-16
5.050000E+03	2.413873E-15	5.247382E-16
5.060000E+03	2.402094E-15	5.191837E-16
5.070000E+03	2.390122E-15	5.134946E-16
5.080000E+03	2.377967E-15	5.076814E-16
5.090000E+03	2.365968E-15	5.018252E-16
5.100000E+03	2.353796E-15	4.958653E-16
5.110000E+03	2.341461E-15	4.898133E-16
5.120000E+03	2.329132E-15	4.837149E-16
5.130000E+03	2.316814E-15	4.775814E-16
5.140000E+03	2.304511E-15	4.714241E-16
5.150000E+03	2.292067E-15	4.652227E-16
5.160000E+03	2.279649E-15	4.590227E-16
5.170000E+03	2.267260E-15	4.528370E-16
5.180000E+03	2.254748E-15	4.466478E-16
5.190000E+03	2.242274E-15	4.405007E-16
5.200000E+03	2.229841E-15	4.344098E-16
5.210000E+03	2.217302E-15	4.283601E-16
5.220000E+03	2.204812E-15	4.223970E-16
5.230000E+03	2.192376E-15	4.165359E-16
5.240000E+03	2.179847E-15	4.107646E-16
5.250000E+03	2.167380E-15	4.051281E-16
5.260000E+03	2.154976E-15	3.996430E-16
5.270000E+03	2.142639E-15	3.943261E-16
5.280000E+03	2.130225E-15	3.891677E-16
5.290000E+03	2.117741E-15	3.841862E-16
5.300000E+03	2.105477E-15	3.794515E-16
5.310000E+03	2.093149E-15	3.749285E-16
5.320000E+03	2.080903E-15	3.706602E-16
5.330000E+03	2.068600E-15	3.666381E-16
5.340000E+03	2.056524E-15	3.629284E-16
5.350000E+03	2.044397E-15	3.594967E-16
5.360000E+03	2.032224E-15	3.563580E-16
5.370000E+03	2.020281E-15	3.535740E-16
5.380000E+03	2.008297E-15	3.511085E-16
5.390000E+03	1.996274E-15	3.489722E-16
5.400000E+03	1.984486E-15	3.472209E-16
5.410000E+03	1.972664E-15	3.458137E-16
5.420000E+03	1.960944E-15	3.447783E-16
5.430000E+03	1.949194E-15	3.440928E-16
5.440000E+03	1.937550E-15	3.437795E-16
5.450000E+03	1.926012E-15	3.438345E-16
5.460000E+03	1.914578E-15	3.442514E-16
5.470000E+03	1.903251E-15	3.450216E-16
5.480000E+03	1.891902E-15	3.461114E-16
5.490000E+03	1.880534E-15	3.475082E-16
5.500000E+03	1.869401E-15	3.492453E-16
5.510000E+03	1.858249E-15	3.512611E-16
5.520000E+03	1.847206E-15	3.535637E-16
5.530000E+03	1.836271E-15	3.561370E-16
5.540000E+03	1.825443E-15	3.589650E-16
5.550000E+03	1.814601E-15	3.620068E-16
5.560000E+03	1.803866E-15	3.652703E-16
5.570000E+03	1.793119E-15	3.687144E-16
5.580000E+03	1.782599E-15	3.723726E-16
5.590000E+03	1.772068E-15	3.761796E-16
5.600000E+03	1.761643E-15	3.801454E-16
5.610000E+03	1.751325E-15	3.842553E-16
5.620000E+03	1.740996E-15	3.884697E-16
5.630000E+03	1.730774E-15	3.928007E-16
5.640000E+03	1.720658E-15	3.972357E-16
5.650000E+03	1.710647E-15	4.017627E-16
5.660000E+03	1.700627E-15	4.063434E-16
5.670000E+03	1.690712E-15	4.109937E-16
5.680000E+03	1.680901E-15	4.157036E-16
5.690000E+03	1.671194E-15	4.204637E-16
5.700000E+03	1.661589E-15	4.252651E-16
5.710000E+03	1.651976E-15	4.300711E-16
5.720000E+03	1.642465E-15	4.349021E-16
5.730000E+03	1.633056E-15	4.397509E-16
5.740000E+03	1.623639E-15	4.445813E-16
5.750000E+03	1.614430E-15	4.494462E-16
5.760000E+03	1.605214E-15	4.542803E-16
5.770000E+03	1.596096E-15	4.591080E-16
5.780000E+03	1.587077E-15	4.639245E-16
5.790000E+03	1.578049E-15	4.686940E-16
5.800000E+03	1.569225E-15	4.734748E-16
5.810000E+03	1.560391E-15	4.782001E-16
5.820000E+03	1.551653E-15	4.828979E-16
5.830000E+03	1.542907E-15	4.875324E-16
5.840000E+03	1.534359E-15	4.921656E-16
5.850000E+03	1.525801E-15	4.967294E-16
5.860000E+03	1.517337E-15	5.012540E-16
5.870000E+03	1.508964E-15	5.057373E-16
5.880000E+03	1.500683E-15	5.101773E-16
5.890000E+03	1.492492E-15	5.145722E-16
5.900000E+03	1.484290E-15	5.188859E-16
5.910000E+03	1.476277E-15	5.231860E-16
5.920000E+03	1.468253E-15	5.274015E-16
5.930000E+03	1.460315E-15	5.315661E-16
5.940000E+03	1.452367E-15	5.356430E-16
5.950000E+03	1.444602E-15	5.397026E-16
5.960000E+03	1.436825E-15	5.436724E-16
5.970000E+03	1.429228E-15	5.476242E-16
5.980000E+03	1.421618E-15	5.514844E-16
5.990000E+03	1.414090E-15	5.552890E-16
6.000000E+03	1.406550E-15	5.590003E-16
6.010000E+03	1.399184E-15	5.626924E-16
6.020000E+03	1.391897E-15	5.663281E-16
6.030000E+03	1.384596E-15	5.698692E-16
6.040000E+03	1.377374E-15	5.733530E-16
6.050000E+03	1.370229E-15	5.767798E-16
6.060000E+03	1.363160E-15	5.801495E-16
6.070000E+03	1.356166E-15	5.834621E-16
6.080000E+03	1.349247E-15	5.867180E-16
6.090000E+03	1.342311E-15	5.898775E-16
6.100000E+03	1.335448E-15	5.929802E-16
6.110000E+03	1.328747E-15	5.960662E-16
6.120000E+03	1.322028E-15	5.990560E-16
6.130000E+03	1.315380E-15	6.019897E-16
6.140000E+03	1.308800E-15	6.048677E-16
6.150000E+03	1.302290E-15	6.076903E-16
6.160000E+03	1.295760E-15	6.104169E-16
6.170000E+03	1.289385E-15	6.131298E-16
6.180000E+03	1.282989E-15	6.157470E-16
6.190000E+03	1.276658E-15	6.183101E-16
6.200000E+03	1.270479E-15	6.208613E-16
6.210000E+03	1.264277E-15	6.233178E-16
6.220000E+03	1.258138E-15	6.257214E-16
6.230000E+03	1.252062E-15	6.280728E-16
6.240000E+03	1.246047E-15	6.303725E-16
6.250000E+03	1.240009E-15	6.325782E-16
6.260000E+03	1.234115E-15	6.347757E-16
6.270000E+03	1.228196E-15	6.368800E-16
6.280000E+03	1.222419E-15	6.389773E-16
6.290000E+03	1.216618E-15	6.409822E-16
6.300000E+03	1.210873E-15	6.429381E-16
6.310000E+03	1.205266E-15	6.448891E-16
6.320000E+03	1.199632E-15	6.467488E-16
6.330000E+03	1.194054E-15	6.485611E-16
6.340000E+03	1.188529E-15	6.503265E-16
6.350000E+03	1.182978E-15	6.520014E-16
6.360000E+03	1.177559E-15	6.536746E-16
6.370000E+03	1.172192E-15	6.553026E-16
6.380000E+03	1.166797E-15	6.568413E-16
6.390000E+03	1.161532E-15	6.583802E-16
6.400000E+03	1.156237E-15	6.598307E-16
6.410000E+03	1.151071E-15	6.612828E-16
6.420000E+03	1.145874E-15	6.626472E-16
6.430000E+03	1.140803E-15	6.640145E-16
6.440000E+03	1.135702E-15	6.652949E-16
6.450000E+03	1.130648E-15	6.665341E-16
6.460000E+03	1.125639E-15	6.677326E-16
6.470000E+03	1.120676E-15	6.688908E-16
6.480000E+03	1.115758E-15	6.700094E-16
6.490000E+03	1.110883E-15	6.710887E-16
6.500000E+03	1.106053E-15	6.721294E-16
6.510000E+03	1.101265E-15	6.731319E-16
6.520000E+03	1.096444E-15	6.740506E-16
6.530000E+03	1.091741E-15	6.749781E-16
6.540000E+03	1.087079E-15	6.758689E-16
6.550000E+03	1.082383E-15	6.766772E-16
6.560000E+03	1.077801E-15	6.774959E-16
6.570000E+03	1.073259E-15	6.782795E-16
6.580000E+03	1.068682E-15	6.789817E-16
6.590000E+03	1.064217E-15	6.796961E-16
6.600000E+03	1.059718E-15	6.803299E-16
6.610000E+03	1.055256E-15	6.809302E-16
6.620000E+03	1.050903E-15	6.815443E-16
6.630000E+03	1.046515E-15	6.820791E-16
6.640000E+03	1.042163E-15	6.825817E-16
6.650000E+03	1.037848E-15	6.830526E-16
6.660000E+03	1.033638E-15	6.835395E-16
6.670000E+03	1.029392E-15	6.839485E-16
6.680000E+03	1.025180E-15	6.843271E-16
6.690000E+03	1.021003E-15	6.846759E-16
6.700000E+03	1.016859E-15	6.849952E-16
6.710000E+03	1.012747E-15	6.852855E-16
6.720000E+03	1.008669E-15	6.855471E-16
6.730000E+03	1.004623E-15	6.857806E-16
6.740000E+03	1.000608E-15	6.859863E-16
6.750000E+03	9.966252E-16	6.861647E-16
6.760000E+03	9.926042E-16	6.862685E-16
6.770000E+03	9.886830E-16	6.863934E-16
6.780000E+03	9.847920E-16	6.864921E-16
6.790000E+03	9.809309E-16	6.865652E-16
6.800000E+03	9.770993E-16	6.866129E-16
6.810000E+03	9.732290E-16	6.865879E-16
6.820000E+03	9.694555E-16	6.865862E-16
6.830000E+03	9.657105E-16	6.865603E-16
6.840000E+03	9.619264E-16	6.864629E-16
6.850000E+03	9.582375E-16	6.863899E-16
6.860000E+03	9.545093E-16	6.862460E-16
6.870000E+03	9.508751E-16	6.861274E-16
6.880000E+03	9.472015E-16	6.859386E-16
6.890000E+03	9.436209E-16	6.857759E-16
6.900000E+03	9.400007E-16	6.855437E-16
6.910000E+03	9.364724E-16	6.853384E-16
6.920000E+03	9.329044E-16	6.850643E-16
6.930000E+03	9.293622E-16	6.847698E-16
6.940000E+03	9.259104E-16	6.845033E-16
6.950000E+03	9.224187E-16	6.841690E-16
6.960000E+03	9.189519E-16	6.838154E-16
6.970000E+03	9.155098E-16	6.834428E-16
6.980000E+03	9.120922E-16	6.830516E-16
6.990000E+03	9.087628E-16	6.826901E-16
7.000000E+03	9.053931E-16	6.822626E-16
7.010000E+03	9.020472E-16	6.818175E-16
7.020000E+03	8.987248E-16	6.813551E-16
7.030000E+03	8.954256E-16	6.808758E-16
7.040000E+03	8.921495E-16	6.803799E-16
7.050000E+03	8.888961E-16	6.798677E-16
7.060000E+03	8.856655E-16	6.793396E-16
7.070000E+03	8.823947E-16	6.787477E-16
7.080000E+03	8.792088E-16	6.781887E-16
7.090000E+03	8.760449E-16	6.776146E-16
7.100000E+03	8.729028E-16	6.770260E-16
7.110000E+03	8.697205E-16	6.763749E-16
7.120000E+03	8.666217E-16	6.757578E-16
7.130000E+03	8.635441E-16	6.751271E-16
7.140000E+03	8.604263E-16	6.744349E-16
7.150000E+03	8.573908E-16	6.737776E-16
7.160000E+03	8.543152E-16	6.730595E-16
7.170000E+03	8.512604E-16	6.723289E-16
7.180000E+03	8.482870E-16	6.716342E-16
7.190000E+03	8.452734E-16	6.708795E-16
7.200000E+03	8.422803E-16	6.701133E-16
7.210000E+03	8.393074E-16	6.693358E-16
7.220000E+03	8.363546E-16	6.685472E-16
7.230000E+03	8.334815E-16	6.677959E-16
7.240000E+03	8.305087E-16	6.669383E-16
7.250000E+03	8.276154E-16	6.661185E-16
7.260000E+03	8.247416E-16	6.652887E-16
7.270000E+03	8.218872E-16	6.644494E-16
7.280000E+03	8.190521E-16	6.636008E-16
7.290000E+03	8.162361E-16	6.627431E-16
7.300000E+03	8.133805E-16	6.618288E-16
7.310000E+03	8.106025E-16	6.609538E-16
7.320000E+03	8.077850E-16	6.600229E-16
7.330000E+03	8.049864E-16	6.590840E-16
7.340000E+03	8.022647E-16	6.581851E-16
7.350000E+03	7.995035E-16	6.572310E-16
7.360000E+03	7.967608E-16	6.562698E-16
7.370000E+03	7.940367E-16	6.553017E-16
7.380000E+03	7.913309E-16	6.543269E-16
7.390000E+03	7.886433E-16	6.533456E-16
7.400000E+03	7.859739E-16	6.523582E-16
7.410000E+03	7.833225E-16	6.513648E-16
7.420000E+03	7.806321E-16	6.503183E-16
7.430000E+03	7.780166E-16	6.493138E-16
7.440000E+03	7.754188E-16	6.483040E-16
7.450000E+03	7.727822E-16	6.472420E-16
7.460000E+03	7.701634E-16	6.461752E-16
7.470000E+03	7.675622E-16	6.451039E-16
7.480000E+03	7.650347E-16	6.440756E-16
7.490000E+03	7.624686E-16	6.429959E-16
7.500000E+03	7.599198E-16	6.419125E-16
7.510000E+03	7.573328E-16	6.407784E-16
7.520000E+03	7.548187E-16	6.396879E-16
7.530000E+03	7.523217E-16	6.385943E-16
7.540000E+03	7.497866E-16	6.374508E-16
7.550000E+03	7.473237E-16	6.363514E-16
7.560000E+03	7.448228E-16	6.352026E-16
7.570000E+03	7.423389E-16	6.340515E-16
7.580000E+03	7.398719E-16	6.328983E-16
7.590000E+03	7.374218E-16	6.317432E-16
7.600000E+03	7.349884E-16	6.305864E-16
7.610000E+03	7.325717E-16	6.294281E-16
7.620000E+03	7.301717E-16	6.282684E-16
7.630000E+03	7.277340E-16	6.270609E-16
7.640000E+03	7.253130E-16	6.258525E-16
7.650000E+03	7.229624E-16	6.246900E-16
7.660000E+03	7.205744E-16	6.234804E-16
7.670000E+03	7.182028E-16	6.222704E-16
7.680000E+03	7.158475E-16	6.210602E-16
7.690000E+03	7.135085E-16	6.198500E-16
7.700000E+03	7.111324E-16	6.185936E-16
7.710000E+03	7.088257E-16	6.173839E-16
7.720000E+03	7.064820E-16	6.161284E-16
7.730000E+03	7.042075E-16	6.149199E-16
7.740000E+03	7.018959E-16	6.136659E-16
7.750000E+03	6.996003E-16	6.124130E-16
7.760000E+03	6.973207E-16	6.111613E-16
