#wls	flux	fluxerr
1.600000E+03	7.854150E-16	2.171228E-17
1.640000E+03	8.040649E-16	2.220676E-17
1.680000E+03	8.224114E-16	2.269133E-17
1.720000E+03	8.404650E-16	2.316626E-17
1.760000E+03	8.583646E-16	2.363534E-17
1.800000E+03	8.758490E-16	2.409134E-17
1.840000E+03	8.930433E-16	2.453770E-17
1.880000E+03	9.097971E-16	2.497026E-17
1.920000E+03	9.260827E-16	2.538824E-17
1.960000E+03	9.418607E-16	2.579056E-17
2.000000E+03	9.572172E-16	2.617957E-17
2.040000E+03	9.720846E-16	2.655341E-17
2.080000E+03	9.865148E-16	2.691350E-17
2.120000E+03	1.000537E-15	2.726061E-17
2.160000E+03	1.014015E-15	2.759105E-17
2.200000E+03	1.026786E-15	2.790042E-17
2.240000E+03	1.038663E-15	2.818363E-17
2.280000E+03	1.049561E-15	2.843845E-17
2.320000E+03	1.059106E-15	2.865480E-17
2.360000E+03	1.067036E-15	2.882577E-17
2.400000E+03	1.072954E-15	2.894080E-17
2.440000E+03	1.076467E-15	2.898952E-17
2.480000E+03	1.077320E-15	2.896532E-17
2.520000E+03	1.075267E-15	2.886198E-17
2.560000E+03	1.069770E-15	2.866541E-17
2.600000E+03	1.060792E-15	2.837516E-17
2.640000E+03	1.048134E-15	2.798637E-17
2.680000E+03	1.031682E-15	2.749654E-17
2.720000E+03	1.011672E-15	2.691260E-17
2.760000E+03	9.879689E-16	2.623152E-17
2.800000E+03	9.609678E-16	2.546439E-17
2.840000E+03	9.308182E-16	2.461577E-17
2.880000E+03	8.977922E-16	2.369344E-17
2.920000E+03	8.623351E-16	2.270969E-17
2.960000E+03	8.250239E-16	2.168020E-17
3.000000E+03	7.865245E-16	2.062288E-17
3.010000E+03	7.767868E-16	2.035614E-17
3.020000E+03	7.670317E-16	2.008918E-17
3.030000E+03	7.573150E-16	1.982346E-17
3.040000E+03	7.475953E-16	1.955789E-17
3.050000E+03	7.378812E-16	1.929270E-17
3.060000E+03	7.281810E-16	1.902811E-17
3.070000E+03	7.185463E-16	1.876548E-17
3.080000E+03	7.089826E-16	1.850493E-17
3.090000E+03	6.994538E-16	1.824553E-17
3.100000E+03	6.900083E-16	1.798854E-17
3.110000E+03	6.806513E-16	1.773410E-17
3.120000E+03	6.713879E-16	1.748233E-17
3.130000E+03	6.622234E-16	1.723337E-17
3.140000E+03	6.531990E-16	1.698830E-17
3.150000E+03	6.442815E-16	1.674623E-17
3.160000E+03	6.354754E-16	1.650730E-17
3.170000E+03	6.268196E-16	1.627249E-17
3.180000E+03	6.183158E-16	1.604186E-17
3.190000E+03	6.099984E-16	1.581628E-17
3.200000E+03	6.018037E-16	1.559410E-17
3.210000E+03	5.937972E-16	1.537702E-17
3.220000E+03	5.859482E-16	1.516423E-17
3.230000E+03	5.782875E-16	1.495651E-17
3.240000E+03	5.708141E-16	1.475385E-17
3.250000E+03	5.635271E-16	1.455620E-17
3.260000E+03	5.564524E-16	1.436424E-17
3.270000E+03	5.495605E-16	1.417717E-17
3.280000E+03	5.428759E-16	1.399565E-17
3.290000E+03	5.363952E-16	1.381955E-17
3.300000E+03	5.301393E-16	1.364942E-17
3.310000E+03	5.240791E-16	1.348450E-17
3.320000E+03	5.182341E-16	1.332528E-17
3.330000E+03	5.125988E-16	1.317160E-17
3.340000E+03	5.071898E-16	1.302389E-17
3.350000E+03	5.019778E-16	1.288138E-17
3.360000E+03	4.969992E-16	1.274500E-17
3.370000E+03	4.922242E-16	1.261397E-17
3.380000E+03	4.876648E-16	1.248860E-17
3.390000E+03	4.833117E-16	1.236862E-17
3.400000E+03	4.791742E-16	1.225427E-17
3.410000E+03	4.752409E-16	1.214525E-17
3.420000E+03	4.714998E-16	1.204124E-17
3.430000E+03	4.679569E-16	1.194239E-17
3.440000E+03	4.646158E-16	1.184878E-17
3.450000E+03	4.614431E-16	1.175954E-17
3.460000E+03	4.584571E-16	1.167513E-17
3.470000E+03	4.556225E-16	1.159465E-17
3.480000E+03	4.529528E-16	1.151843E-17
3.490000E+03	4.504425E-16	1.144633E-17
3.500000E+03	4.480371E-16	1.137694E-17
3.510000E+03	4.457602E-16	1.131087E-17
3.520000E+03	4.435716E-16	1.124709E-17
3.530000E+03	4.414608E-16	1.118533E-17
3.540000E+03	4.393871E-16	1.112455E-17
3.550000E+03	4.373525E-16	1.106481E-17
3.560000E+03	4.352886E-16	1.100437E-17
3.570000E+03	4.331716E-16	1.094263E-17
3.580000E+03	4.309922E-16	1.087937E-17
3.590000E+03	4.286928E-16	1.081313E-17
3.600000E+03	4.262728E-16	1.074390E-17
3.610000E+03	4.236995E-16	1.067087E-17
3.620000E+03	4.209846E-16	1.059435E-17
3.630000E+03	4.181112E-16	1.051392E-17
3.640000E+03	4.150847E-16	1.042971E-17
3.650000E+03	4.119315E-16	1.034242E-17
3.660000E+03	4.086887E-16	1.025297E-17
3.670000E+03	4.053840E-16	1.016207E-17
3.680000E+03	4.020802E-16	1.007128E-17
3.690000E+03	3.988410E-16	9.982219E-18
3.700000E+03	3.957496E-16	9.896949E-18
3.710000E+03	3.928865E-16	9.817480E-18
3.720000E+03	3.903476E-16	9.746191E-18
3.730000E+03	3.882303E-16	9.685493E-18
3.740000E+03	3.866147E-16	9.637359E-18
3.750000E+03	3.855984E-16	9.604188E-18
3.760000E+03	3.852764E-16	9.588309E-18
3.770000E+03	3.857483E-16	9.592158E-18
3.780000E+03	3.870769E-16	9.617245E-18
3.790000E+03	3.893539E-16	9.665793E-18
3.800000E+03	3.926486E-16	9.739461E-18
3.810000E+03	3.970414E-16	9.840181E-18
3.820000E+03	4.025828E-16	9.969134E-18
3.830000E+03	4.093404E-16	1.012792E-17
3.840000E+03	4.173567E-16	1.031750E-17
3.850000E+03	4.266621E-16	1.053857E-17
3.860000E+03	4.372866E-16	1.079176E-17
3.870000E+03	4.492260E-16	1.107690E-17
3.880000E+03	4.624566E-16	1.139331E-17
3.890000E+03	4.769495E-16	1.174020E-17
3.900000E+03	4.926357E-16	1.211578E-17
3.910000E+03	5.094231E-16	1.251772E-17
3.920000E+03	5.272133E-16	1.294352E-17
3.930000E+03	5.458647E-16	1.338965E-17
3.940000E+03	5.652085E-16	1.385190E-17
3.950000E+03	5.850675E-16	1.432589E-17
3.960000E+03	6.052182E-16	1.480611E-17
3.970000E+03	6.254236E-16	1.528675E-17
3.980000E+03	6.454161E-16	1.576127E-17
3.990000E+03	6.649235E-16	1.622304E-17
4.000000E+03	6.836648E-16	1.666522E-17
4.010000E+03	7.013584E-16	1.708102E-17
4.020000E+03	7.177111E-16	1.746337E-17
4.030000E+03	7.324963E-16	1.780685E-17
4.040000E+03	7.454797E-16	1.810586E-17
4.050000E+03	7.564969E-16	1.835653E-17
4.060000E+03	7.654436E-16	1.855647E-17
4.070000E+03	7.722840E-16	1.870495E-17
4.080000E+03	7.770309E-16	1.880241E-17
4.090000E+03	7.797536E-16	1.885069E-17
4.100000E+03	7.805555E-16	1.885240E-17
4.110000E+03	7.795429E-16	1.881025E-17
4.120000E+03	7.768855E-16	1.872845E-17
4.130000E+03	7.727332E-16	1.861073E-17
4.140000E+03	7.672453E-16	1.846101E-17
4.150000E+03	7.605968E-16	1.828361E-17
4.160000E+03	7.529547E-16	1.808261E-17
4.170000E+03	7.445046E-16	1.786253E-17
4.180000E+03	7.354158E-16	1.762750E-17
4.190000E+03	7.258295E-16	1.738094E-17
4.200000E+03	7.159049E-16	1.712669E-17
4.210000E+03	7.057671E-16	1.686777E-17
4.220000E+03	6.955440E-16	1.660726E-17
4.230000E+03	6.853189E-16	1.634713E-17
4.240000E+03	6.751967E-16	1.608991E-17
4.250000E+03	6.652325E-16	1.583689E-17
4.260000E+03	6.555056E-16	1.558995E-17
4.270000E+03	6.460542E-16	1.534999E-17
4.280000E+03	6.369392E-16	1.511843E-17
4.290000E+03	6.282231E-16	1.489673E-17
4.300000E+03	6.199615E-16	1.468618E-17
4.310000E+03	6.122472E-16	1.448895E-17
4.320000E+03	6.051531E-16	1.430672E-17
4.330000E+03	5.988060E-16	1.414245E-17
4.340000E+03	5.932930E-16	1.399814E-17
4.350000E+03	5.887314E-16	1.387650E-17
4.360000E+03	5.852315E-16	1.378005E-17
4.370000E+03	5.828859E-16	1.371090E-17
4.380000E+03	5.817753E-16	1.367087E-17
4.390000E+03	5.819754E-16	1.366164E-17
4.400000E+03	5.835551E-16	1.368473E-17
4.410000E+03	5.865505E-16	1.374090E-17
4.420000E+03	5.909994E-16	1.383093E-17
4.430000E+03	5.969157E-16	1.395502E-17
4.440000E+03	6.043048E-16	1.411322E-17
4.450000E+03	6.131679E-16	1.430544E-17
4.460000E+03	6.235045E-16	1.453155E-17
4.470000E+03	6.353117E-16	1.479140E-17
4.480000E+03	6.485761E-16	1.508455E-17
4.490000E+03	6.632852E-16	1.541061E-17
4.500000E+03	6.794071E-16	1.576875E-17
4.510000E+03	6.969042E-16	1.615797E-17
4.520000E+03	7.156935E-16	1.657627E-17
4.530000E+03	7.356481E-16	1.702061E-17
4.540000E+03	7.566248E-16	1.748759E-17
4.550000E+03	7.784179E-16	1.797240E-17
4.560000E+03	8.007719E-16	1.846908E-17
4.570000E+03	8.233788E-16	1.897050E-17
4.580000E+03	8.458873E-16	1.946855E-17
4.590000E+03	8.678775E-16	1.995359E-17
4.600000E+03	8.889153E-16	2.041568E-17
4.610000E+03	9.084947E-16	2.084329E-17
4.620000E+03	9.261282E-16	2.122536E-17
4.630000E+03	9.412949E-16	2.155009E-17
4.640000E+03	9.535016E-16	2.180640E-17
4.650000E+03	9.622982E-16	2.198421E-17
4.660000E+03	9.673207E-16	2.207547E-17
4.670000E+03	9.682991E-16	2.207431E-17
4.680000E+03	9.650830E-16	2.197759E-17
4.690000E+03	9.576414E-16	2.178491E-17
4.700000E+03	9.461212E-16	2.149992E-17
4.710000E+03	9.307559E-16	2.112822E-17
4.720000E+03	9.119237E-16	2.067867E-17
4.730000E+03	8.900863E-16	2.016197E-17
4.740000E+03	8.658156E-16	1.959129E-17
4.750000E+03	8.397765E-16	1.898183E-17
4.760000E+03	8.126902E-16	1.835000E-17
4.770000E+03	7.853368E-16	1.771347E-17
4.780000E+03	7.584935E-16	1.708978E-17
4.790000E+03	7.328812E-16	1.649510E-17
4.800000E+03	7.091665E-16	1.594434E-17
4.810000E+03	6.879158E-16	1.545008E-17
4.820000E+03	6.696244E-16	1.502326E-17
4.830000E+03	6.546752E-16	1.467224E-17
4.840000E+03	6.434020E-16	1.440426E-17
4.850000E+03	6.360334E-16	1.422416E-17
4.860000E+03	6.327416E-16	1.413551E-17
4.870000E+03	6.336479E-16	1.414073E-17
4.880000E+03	6.387985E-16	1.424055E-17
4.890000E+03	6.481882E-16	1.443456E-17
4.900000E+03	6.617201E-16	1.472029E-17
4.910000E+03	6.791838E-16	1.509279E-17
4.920000E+03	7.002322E-16	1.554407E-17
4.930000E+03	7.243862E-16	1.606327E-17
4.940000E+03	7.509899E-16	1.663563E-17
4.950000E+03	7.792116E-16	1.724258E-17
4.960000E+03	8.080539E-16	1.786198E-17
4.970000E+03	8.363743E-16	1.846855E-17
4.980000E+03	8.629806E-16	1.903604E-17
4.990000E+03	8.866869E-16	1.953843E-17
5.000000E+03	9.064548E-16	1.995309E-17
5.010000E+03	9.215112E-16	2.026328E-17
5.020000E+03	9.313812E-16	2.045890E-17
5.030000E+03	9.359785E-16	2.053843E-17
5.040000E+03	9.356140E-16	2.050903E-17
5.050000E+03	9.308824E-16	2.038408E-17
5.060000E+03	9.226401E-16	2.018261E-17
5.070000E+03	9.118391E-16	1.992565E-17
5.080000E+03	8.994502E-16	1.963458E-17
5.090000E+03	8.863459E-16	1.932853E-17
5.100000E+03	8.732533E-16	1.902339E-17
5.110000E+03	8.607743E-16	1.873224E-17
5.120000E+03	8.493836E-16	1.846538E-17
5.130000E+03	8.394038E-16	1.822972E-17
5.140000E+03	8.310766E-16	1.803042E-17
5.150000E+03	8.245155E-16	1.786983E-17
5.160000E+03	8.197653E-16	1.774881E-17
5.170000E+03	8.168257E-16	1.766721E-17
5.180000E+03	8.156706E-16	1.762438E-17
5.190000E+03	8.162600E-16	1.761931E-17
5.200000E+03	8.185543E-16	1.765105E-17
5.210000E+03	8.224869E-16	1.771805E-17
5.220000E+03	8.280092E-16	1.781917E-17
5.230000E+03	8.350521E-16	1.795281E-17
5.240000E+03	8.435294E-16	1.811704E-17
5.250000E+03	8.533286E-16	1.830934E-17
5.260000E+03	8.643372E-16	1.852724E-17
5.270000E+03	8.764195E-16	1.876775E-17
5.280000E+03	8.894197E-16	1.902747E-17
5.290000E+03	9.031869E-16	1.930312E-17
5.300000E+03	9.175829E-16	1.959173E-17
5.310000E+03	9.324504E-16	1.988989E-17
5.320000E+03	9.476826E-16	2.019530E-17
5.330000E+03	9.631556E-16	2.050533E-17
5.340000E+03	9.787962E-16	2.081839E-17
5.350000E+03	9.945448E-16	2.113323E-17
5.360000E+03	1.010357E-15	2.144891E-17
5.370000E+03	1.026230E-15	2.176534E-17
5.380000E+03	1.042195E-15	2.208321E-17
5.390000E+03	1.058330E-15	2.240419E-17
5.400000E+03	1.074712E-15	2.272988E-17
5.410000E+03	1.091470E-15	2.306301E-17
5.420000E+03	1.108712E-15	2.340585E-17
5.430000E+03	1.126537E-15	2.376046E-17
5.440000E+03	1.144949E-15	2.412689E-17
5.450000E+03	1.163846E-15	2.450297E-17
5.460000E+03	1.182975E-15	2.488336E-17
5.470000E+03	1.201897E-15	2.525883E-17
5.480000E+03	1.219962E-15	2.561575E-17
5.490000E+03	1.236326E-15	2.593647E-17
5.500000E+03	1.250043E-15	2.620125E-17
5.510000E+03	1.260044E-15	2.638789E-17
5.520000E+03	1.265296E-15	2.647492E-17
5.530000E+03	1.264906E-15	2.644401E-17
5.540000E+03	1.258163E-15	2.628054E-17
5.550000E+03	1.244621E-15	2.597559E-17
5.560000E+03	1.224207E-15	2.552797E-17
5.570000E+03	1.197159E-15	2.494301E-17
5.580000E+03	1.164013E-15	2.423219E-17
5.590000E+03	1.125632E-15	2.341379E-17
5.600000E+03	1.083038E-15	2.250928E-17
5.610000E+03	1.037431E-15	2.154380E-17
5.620000E+03	9.900898E-16	2.054402E-17
5.630000E+03	9.423213E-16	1.953709E-17
5.640000E+03	8.953968E-16	1.854937E-17
5.650000E+03	8.505165E-16	1.760562E-17
5.660000E+03	8.087603E-16	1.672808E-17
5.670000E+03	7.710580E-16	1.593578E-17
5.680000E+03	7.381981E-16	1.524481E-17
5.690000E+03	7.108201E-16	1.466811E-17
5.700000E+03	6.894127E-16	1.421549E-17
5.710000E+03	6.743761E-16	1.389490E-17
5.720000E+03	6.660229E-16	1.371247E-17
5.730000E+03	6.645950E-16	1.367286E-17
5.740000E+03	6.702945E-16	1.377992E-17
5.750000E+03	6.832448E-16	1.403586E-17
5.760000E+03	7.034557E-16	1.444055E-17
5.770000E+03	7.307432E-16	1.498991E-17
5.780000E+03	7.645853E-16	1.567293E-17
5.790000E+03	8.040975E-16	1.647122E-17
5.800000E+03	8.480516E-16	1.735942E-17
5.810000E+03	8.948974E-16	1.830565E-17
5.820000E+03	9.428488E-16	1.927328E-17
5.830000E+03	9.900975E-16	2.022537E-17
5.840000E+03	1.035058E-15	2.112959E-17
5.850000E+03	1.076411E-15	2.195914E-17
5.860000E+03	1.113113E-15	2.269294E-17
5.870000E+03	1.144409E-15	2.331578E-17
5.880000E+03	1.169801E-15	2.381779E-17
5.890000E+03	1.189080E-15	2.419493E-17
5.900000E+03	1.202266E-15	2.444787E-17
5.910000E+03	1.209614E-15	2.458204E-17
5.920000E+03	1.211590E-15	2.460712E-17
5.930000E+03	1.208780E-15	2.453521E-17
5.940000E+03	1.201897E-15	2.438096E-17
5.950000E+03	1.191723E-15	2.416034E-17
5.960000E+03	1.179025E-15	2.388905E-17
5.970000E+03	1.164555E-15	2.358238E-17
5.980000E+03	1.148997E-15	2.325422E-17
5.990000E+03	1.132886E-15	2.291543E-17
6.000000E+03	1.116687E-15	2.257544E-17
6.010000E+03	1.100750E-15	2.224130E-17
6.020000E+03	1.085330E-15	2.191817E-17
6.030000E+03	1.070596E-15	2.160938E-17
6.040000E+03	1.056669E-15	2.131740E-17
6.050000E+03	1.043644E-15	2.104411E-17
6.060000E+03	1.031544E-15	2.078991E-17
6.070000E+03	1.020415E-15	2.055570E-17
6.080000E+03	1.010235E-15	2.034103E-17
6.090000E+03	1.000999E-15	2.014577E-17
6.100000E+03	9.927144E-16	1.997001E-17
6.110000E+03	9.853785E-16	1.981368E-17
6.120000E+03	9.790159E-16	1.967725E-17
6.130000E+03	9.736296E-16	1.956075E-17
6.140000E+03	9.692250E-16	1.946426E-17
6.150000E+03	9.657984E-16	1.938769E-17
6.160000E+03	9.632649E-16	1.932931E-17
6.170000E+03	9.614705E-16	1.928601E-17
6.180000E+03	9.601646E-16	1.925275E-17
6.190000E+03	9.590052E-16	1.922266E-17
6.200000E+03	9.575760E-16	1.918740E-17
6.210000E+03	9.553978E-16	1.913738E-17
6.220000E+03	9.520326E-16	1.906384E-17
6.230000E+03	9.470865E-16	1.895892E-17
6.240000E+03	9.403355E-16	1.881815E-17
6.250000E+03	9.316894E-16	1.863975E-17
6.260000E+03	9.213193E-16	1.842718E-17
6.270000E+03	9.095619E-16	1.818719E-17
6.280000E+03	8.968291E-16	1.792801E-17
6.290000E+03	8.836151E-16	1.765954E-17
6.300000E+03	8.703280E-16	1.738992E-17
6.310000E+03	8.573603E-16	1.712699E-17
6.320000E+03	8.449462E-16	1.687540E-17
6.330000E+03	8.332493E-16	1.663842E-17
6.340000E+03	8.223359E-16	1.641733E-17
6.350000E+03	8.121860E-16	1.621174E-17
6.360000E+03	8.027383E-16	1.602039E-17
6.370000E+03	7.938611E-16	1.584065E-17
6.380000E+03	7.854234E-16	1.566989E-17
6.390000E+03	7.772701E-16	1.550500E-17
6.400000E+03	7.692658E-16	1.534328E-17
6.410000E+03	7.613245E-16	1.518300E-17
6.420000E+03	7.533954E-16	1.502315E-17
6.430000E+03	7.455026E-16	1.486419E-17
6.440000E+03	7.377515E-16	1.470823E-17
6.450000E+03	7.302906E-16	1.455822E-17
6.460000E+03	7.233774E-16	1.441928E-17
6.470000E+03	7.172874E-16	1.429690E-17
6.480000E+03	7.123552E-16	1.419774E-17
6.490000E+03	7.089238E-16	1.412863E-17
6.500000E+03	7.073219E-16	1.409611E-17
6.510000E+03	7.078358E-16	1.410587E-17
6.520000E+03	7.106754E-16	1.416210E-17
6.530000E+03	7.159509E-16	1.426699E-17
6.540000E+03	7.236676E-16	1.442065E-17
6.550000E+03	7.337541E-16	1.462165E-17
6.560000E+03	7.460488E-16	1.486678E-17
6.570000E+03	7.603277E-16	1.515157E-17
6.580000E+03	7.762544E-16	1.546935E-17
6.590000E+03	7.934292E-16	1.581214E-17
6.600000E+03	8.113887E-16	1.617072E-17
6.610000E+03	8.296138E-16	1.653476E-17
6.620000E+03	8.475980E-16	1.689418E-17
6.630000E+03	8.648360E-16	1.723889E-17
6.640000E+03	8.808624E-16	1.755964E-17
6.650000E+03	8.952324E-16	1.784756E-17
6.660000E+03	9.075697E-16	1.809513E-17
6.670000E+03	9.175913E-16	1.829672E-17
6.680000E+03	9.250423E-16	1.844723E-17
6.690000E+03	9.297849E-16	1.854390E-17
6.700000E+03	9.317620E-16	1.858557E-17
6.710000E+03	9.309653E-16	1.857206E-17
6.720000E+03	9.274593E-16	1.850463E-17
6.730000E+03	9.213519E-16	1.838542E-17
6.740000E+03	9.127932E-16	1.821738E-17
6.750000E+03	9.019496E-16	1.800383E-17
6.760000E+03	8.890092E-16	1.774848E-17
6.770000E+03	8.742120E-16	1.745610E-17
6.780000E+03	8.578639E-16	1.713278E-17
6.790000E+03	8.402684E-16	1.678454E-17
6.800000E+03	8.218015E-16	1.641890E-17
6.810000E+03	8.029080E-16	1.604470E-17
6.820000E+03	7.840327E-16	1.567083E-17
6.830000E+03	7.657019E-16	1.530780E-17
6.840000E+03	7.484570E-16	1.496644E-17
6.850000E+03	7.329081E-16	1.465896E-17
6.860000E+03	7.196496E-16	1.439727E-17
6.870000E+03	7.092933E-16	1.419363E-17
6.880000E+03	7.023762E-16	1.405883E-17
6.890000E+03	6.993328E-16	1.400163E-17
6.900000E+03	7.005154E-16	1.402913E-17
6.910000E+03	7.061442E-16	1.414583E-17
6.920000E+03	7.162829E-16	1.435307E-17
6.930000E+03	7.308470E-16	1.464925E-17
6.940000E+03	7.495225E-16	1.502814E-17
6.950000E+03	7.717057E-16	1.547775E-17
6.960000E+03	7.965338E-16	1.598082E-17
6.970000E+03	8.228719E-16	1.651464E-17
6.980000E+03	8.493445E-16	1.705165E-17
6.990000E+03	8.744677E-16	1.756206E-17
7.000000E+03	8.968503E-16	1.801790E-17
7.010000E+03	9.153579E-16	1.839633E-17
7.020000E+03	9.291786E-16	1.868095E-17
7.030000E+03	9.379486E-16	1.886435E-17
7.040000E+03	9.416978E-16	1.894702E-17
7.050000E+03	9.407975E-16	1.893633E-17
7.060000E+03	9.359622E-16	1.884655E-17
7.070000E+03	9.280665E-16	1.869520E-17
7.080000E+03	9.181108E-16	1.850236E-17
7.090000E+03	9.071296E-16	1.828884E-17
7.100000E+03	8.960607E-16	1.807352E-17
7.110000E+03	8.857840E-16	1.787415E-17
7.120000E+03	8.769412E-16	1.770370E-17
7.130000E+03	8.700142E-16	1.757194E-17
7.140000E+03	8.652376E-16	1.748366E-17
7.150000E+03	8.627301E-16	1.744133E-17
7.160000E+03	8.624737E-16	1.744463E-17
7.170000E+03	8.643040E-16	1.749032E-17
7.180000E+03	8.680283E-16	1.757456E-17
7.190000E+03	8.733911E-16	1.769222E-17
7.200000E+03	8.801029E-16	1.783752E-17
7.210000E+03	8.878551E-16	1.800422E-17
7.220000E+03	8.963143E-16	1.818562E-17
7.230000E+03	9.051879E-16	1.837579E-17
7.240000E+03	9.141231E-16	1.856760E-17
7.250000E+03	9.228161E-16	1.875487E-17
7.260000E+03	9.309564E-16	1.893130E-17
7.270000E+03	9.382475E-16	1.909084E-17
7.280000E+03	9.444148E-16	1.922787E-17
7.290000E+03	9.492171E-16	1.933744E-17
7.300000E+03	9.524470E-16	1.941529E-17
7.310000E+03	9.540132E-16	1.945949E-17
7.320000E+03	9.538554E-16	1.946874E-17
7.330000E+03	9.520110E-16	1.944376E-17
7.340000E+03	9.486695E-16	1.938835E-17
7.350000E+03	9.440406E-16	1.930673E-17
7.360000E+03	9.383733E-16	1.920394E-17
7.370000E+03	9.319058E-16	1.908483E-17
7.380000E+03	9.248480E-16	1.895364E-17
7.390000E+03	9.173862E-16	1.881419E-17
7.400000E+03	9.096274E-16	1.866863E-17
7.410000E+03	9.016815E-16	1.851922E-17
7.420000E+03	8.935547E-16	1.836607E-17
7.430000E+03	8.852817E-16	1.820987E-17
7.440000E+03	8.768391E-16	1.805014E-17
7.450000E+03	8.681888E-16	1.788609E-17
7.460000E+03	8.592545E-16	1.771611E-17
7.470000E+03	8.499886E-16	1.753921E-17
7.480000E+03	8.403602E-16	1.735474E-17
7.490000E+03	8.303003E-16	1.716124E-17
7.500000E+03	8.198157E-16	1.695882E-17
7.510000E+03	8.088817E-16	1.674695E-17
7.520000E+03	7.975410E-16	1.652647E-17
7.530000E+03	7.858741E-16	1.629901E-17
7.540000E+03	7.740084E-16	1.606719E-17
7.550000E+03	7.620590E-16	1.583339E-17
7.560000E+03	7.501787E-16	1.560075E-17
7.570000E+03	7.385533E-16	1.537315E-17
7.580000E+03	7.273987E-16	1.515508E-17
7.590000E+03	7.169478E-16	1.495141E-17
7.600000E+03	7.074223E-16	1.476681E-17
7.610000E+03	6.990603E-16	1.460630E-17
7.620000E+03	6.920674E-16	1.447423E-17
7.630000E+03	6.866215E-16	1.437441E-17
7.640000E+03	6.828665E-16	1.430994E-17
7.650000E+03	6.808951E-16	1.428287E-17
7.660000E+03	6.807683E-16	1.429459E-17
7.670000E+03	6.825223E-16	1.434597E-17
7.680000E+03	6.860889E-16	1.443569E-17
7.690000E+03	6.913660E-16	1.456172E-17
7.700000E+03	6.981996E-16	1.472092E-17
7.710000E+03	7.063564E-16	1.490848E-17
7.720000E+03	7.155202E-16	1.511780E-17
7.730000E+03	7.253204E-16	1.534112E-17
7.740000E+03	7.353532E-16	1.556992E-17
7.750000E+03	7.451849E-16	1.579503E-17
7.760000E+03	7.543832E-16	1.600728E-17
