#wls	flux	fluxerr
1.600000E+03	9.095764E-16	2.084314E-17
1.640000E+03	9.321702E-16	2.134609E-17
1.680000E+03	9.545747E-16	2.184358E-17
1.720000E+03	9.769428E-16	2.233908E-17
1.760000E+03	9.989874E-16	2.282599E-17
1.800000E+03	1.020844E-15	2.330739E-17
1.840000E+03	1.042344E-15	2.377939E-17
1.880000E+03	1.063603E-15	2.424461E-17
1.920000E+03	1.084269E-15	2.469502E-17
1.960000E+03	1.104579E-15	2.513597E-17
2.000000E+03	1.124448E-15	2.556553E-17
2.040000E+03	1.143920E-15	2.598468E-17
2.080000E+03	1.163012E-15	2.639378E-17
2.120000E+03	1.181406E-15	2.678562E-17
2.160000E+03	1.199357E-15	2.716596E-17
2.200000E+03	1.216620E-15	2.752927E-17
2.240000E+03	1.232916E-15	2.786920E-17
2.280000E+03	1.248212E-15	2.818508E-17
2.320000E+03	1.261997E-15	2.846537E-17
2.360000E+03	1.274014E-15	2.870439E-17
2.400000E+03	1.283694E-15	2.888941E-17
2.440000E+03	1.290732E-15	2.901375E-17
2.480000E+03	1.294676E-15	2.906740E-17
2.520000E+03	1.294834E-15	2.903510E-17
2.560000E+03	1.290819E-15	2.890848E-17
2.600000E+03	1.282290E-15	2.868025E-17
2.640000E+03	1.269077E-15	2.834704E-17
2.680000E+03	1.250774E-15	2.790016E-17
2.720000E+03	1.227403E-15	2.734067E-17
2.760000E+03	1.198993E-15	2.666967E-17
2.800000E+03	1.165703E-15	2.589124E-17
2.840000E+03	1.127675E-15	2.500905E-17
2.880000E+03	1.085304E-15	2.403244E-17
2.920000E+03	1.039267E-15	2.297683E-17
2.960000E+03	9.903238E-16	2.185955E-17
3.000000E+03	9.395154E-16	2.070389E-17
3.010000E+03	9.266614E-16	2.041210E-17
3.020000E+03	9.137567E-16	2.011938E-17
3.030000E+03	9.008125E-16	1.982599E-17
3.040000E+03	8.878872E-16	1.953320E-17
3.050000E+03	8.749427E-16	1.924020E-17
3.060000E+03	8.620805E-16	1.894920E-17
3.070000E+03	8.492177E-16	1.865839E-17
3.080000E+03	8.364089E-16	1.836897E-17
3.090000E+03	8.237037E-16	1.808203E-17
3.100000E+03	8.110673E-16	1.779680E-17
3.110000E+03	7.985475E-16	1.751433E-17
3.120000E+03	7.861497E-16	1.723474E-17
3.130000E+03	7.738797E-16	1.695815E-17
3.140000E+03	7.617075E-16	1.668391E-17
3.150000E+03	7.497461E-16	1.641449E-17
3.160000E+03	7.379281E-16	1.614840E-17
3.170000E+03	7.262921E-16	1.588649E-17
3.180000E+03	7.148411E-16	1.562882E-17
3.190000E+03	7.036095E-16	1.537614E-17
3.200000E+03	6.925676E-16	1.512779E-17
3.210000E+03	6.817479E-16	1.488449E-17
3.220000E+03	6.711510E-16	1.464623E-17
3.230000E+03	6.607778E-16	1.441304E-17
3.240000E+03	6.506559E-16	1.418551E-17
3.250000E+03	6.407838E-16	1.396359E-17
3.260000E+03	6.311856E-16	1.374782E-17
3.270000E+03	6.218329E-16	1.353756E-17
3.280000E+03	6.127487E-16	1.333330E-17
3.290000E+03	6.039295E-16	1.313497E-17
3.300000E+03	5.953948E-16	1.294298E-17
3.310000E+03	5.871176E-16	1.275674E-17
3.320000E+03	5.791376E-16	1.257710E-17
3.330000E+03	5.714480E-16	1.240390E-17
3.340000E+03	5.640223E-16	1.223657E-17
3.350000E+03	5.568948E-16	1.207584E-17
3.360000E+03	5.500389E-16	1.192111E-17
3.370000E+03	5.434851E-16	1.177306E-17
3.380000E+03	5.372063E-16	1.163107E-17
3.390000E+03	5.311950E-16	1.149499E-17
3.400000E+03	5.254777E-16	1.136537E-17
3.410000E+03	5.200276E-16	1.124163E-17
3.420000E+03	5.148519E-16	1.112391E-17
3.430000E+03	5.099406E-16	1.101199E-17
3.440000E+03	5.052835E-16	1.090564E-17
3.450000E+03	5.008699E-16	1.080462E-17
3.460000E+03	4.967027E-16	1.070900E-17
3.470000E+03	4.927528E-16	1.061812E-17
3.480000E+03	4.890193E-16	1.053197E-17
3.490000E+03	4.854714E-16	1.044987E-17
3.500000E+03	4.820905E-16	1.037143E-17
3.510000E+03	4.788445E-16	1.029594E-17
3.520000E+03	4.757269E-16	1.022326E-17
3.530000E+03	4.726922E-16	1.015241E-17
3.540000E+03	4.697207E-16	1.008296E-17
3.550000E+03	4.667809E-16	1.001424E-17
3.560000E+03	4.638408E-16	9.945555E-18
3.570000E+03	4.608921E-16	9.876733E-18
3.580000E+03	4.578723E-16	9.806437E-18
3.590000E+03	4.547778E-16	9.734590E-18
3.600000E+03	4.515859E-16	9.660712E-18
3.610000E+03	4.482711E-16	9.584258E-18
3.620000E+03	4.448306E-16	9.505178E-18
3.630000E+03	4.412702E-16	9.423598E-18
3.640000E+03	4.376225E-16	9.340221E-18
3.650000E+03	4.339021E-16	9.255360E-18
3.660000E+03	4.301514E-16	9.169925E-18
3.670000E+03	4.264219E-16	9.085012E-18
3.680000E+03	4.227664E-16	9.001747E-18
3.690000E+03	4.192633E-16	8.921794E-18
3.700000E+03	4.159724E-16	8.846423E-18
3.710000E+03	4.129876E-16	8.777619E-18
3.720000E+03	4.103903E-16	8.717100E-18
3.730000E+03	4.082722E-16	8.666801E-18
3.740000E+03	4.067259E-16	8.628665E-18
3.750000E+03	4.058368E-16	8.604480E-18
3.760000E+03	4.057036E-16	8.596314E-18
3.770000E+03	4.064060E-16	8.605824E-18
3.780000E+03	4.080220E-16	8.634629E-18
3.790000E+03	4.106409E-16	8.684578E-18
3.800000E+03	4.143357E-16	8.757177E-18
3.810000E+03	4.191626E-16	8.853563E-18
3.820000E+03	4.251943E-16	8.975231E-18
3.830000E+03	4.324884E-16	9.123344E-18
3.840000E+03	4.410894E-16	9.298788E-18
3.850000E+03	4.510399E-16	9.502404E-18
3.860000E+03	4.623617E-16	9.734597E-18
3.870000E+03	4.750552E-16	9.995315E-18
3.880000E+03	4.891104E-16	1.028429E-17
3.890000E+03	5.044951E-16	1.060079E-17
3.900000E+03	5.211391E-16	1.094327E-17
3.910000E+03	5.389496E-16	1.130975E-17
3.920000E+03	5.578249E-16	1.169803E-17
3.930000E+03	5.776215E-16	1.210506E-17
3.940000E+03	5.981778E-16	1.252741E-17
3.950000E+03	6.193040E-16	1.296108E-17
3.960000E+03	6.407828E-16	1.340149E-17
3.970000E+03	6.623596E-16	1.384330E-17
3.980000E+03	6.837628E-16	1.428084E-17
3.990000E+03	7.047084E-16	1.470818E-17
4.000000E+03	7.248844E-16	1.511882E-17
4.010000E+03	7.439870E-16	1.550648E-17
4.020000E+03	7.617424E-16	1.586549E-17
4.030000E+03	7.778888E-16	1.619045E-17
4.040000E+03	7.922042E-16	1.647683E-17
4.050000E+03	8.045108E-16	1.672099E-17
4.060000E+03	8.147163E-16	1.692112E-17
4.070000E+03	8.227769E-16	1.707638E-17
4.080000E+03	8.287052E-16	1.718715E-17
4.090000E+03	8.325663E-16	1.725486E-17
4.100000E+03	8.344621E-16	1.728171E-17
4.110000E+03	8.345329E-16	1.727070E-17
4.120000E+03	8.329071E-16	1.722456E-17
4.130000E+03	8.297484E-16	1.714675E-17
4.140000E+03	8.252311E-16	1.704094E-17
4.150000E+03	8.195441E-16	1.691110E-17
4.160000E+03	8.128463E-16	1.676055E-17
4.170000E+03	8.053149E-16	1.659299E-17
4.180000E+03	7.971308E-16	1.641219E-17
4.190000E+03	7.884345E-16	1.622106E-17
4.200000E+03	7.793756E-16	1.602271E-17
4.210000E+03	7.700996E-16	1.582014E-17
4.220000E+03	7.607080E-16	1.561545E-17
4.230000E+03	7.513072E-16	1.541084E-17
4.240000E+03	7.419909E-16	1.520821E-17
4.250000E+03	7.328360E-16	1.500915E-17
4.260000E+03	7.239031E-16	1.481488E-17
4.270000E+03	7.152487E-16	1.462656E-17
4.280000E+03	7.069422E-16	1.444560E-17
4.290000E+03	6.990396E-16	1.427311E-17
4.300000E+03	6.916128E-16	1.411055E-17
4.310000E+03	6.847364E-16	1.395942E-17
4.320000E+03	6.785095E-16	1.382171E-17
4.330000E+03	6.730215E-16	1.369920E-17
4.340000E+03	6.683684E-16	1.359384E-17
4.350000E+03	6.646544E-16	1.350768E-17
4.360000E+03	6.619717E-16	1.344255E-17
4.370000E+03	6.604000E-16	1.340003E-17
4.380000E+03	6.600206E-16	1.338171E-17
4.390000E+03	6.609085E-16	1.338906E-17
4.400000E+03	6.631194E-16	1.342313E-17
4.410000E+03	6.667163E-16	1.348514E-17
4.420000E+03	6.717407E-16	1.357586E-17
4.430000E+03	6.782106E-16	1.369559E-17
4.440000E+03	6.861444E-16	1.384462E-17
4.450000E+03	6.955531E-16	1.402310E-17
4.460000E+03	7.064359E-16	1.423095E-17
4.470000E+03	7.188143E-16	1.446853E-17
4.480000E+03	7.326762E-16	1.473551E-17
4.490000E+03	7.480179E-16	1.503176E-17
4.500000E+03	7.648000E-16	1.535640E-17
4.510000E+03	7.829878E-16	1.570866E-17
4.520000E+03	8.024785E-16	1.608642E-17
4.530000E+03	8.231701E-16	1.648757E-17
4.540000E+03	8.449072E-16	1.690893E-17
4.550000E+03	8.674623E-16	1.734590E-17
4.560000E+03	8.905955E-16	1.779366E-17
4.570000E+03	9.139824E-16	1.824568E-17
4.580000E+03	9.372659E-16	1.869484E-17
4.590000E+03	9.600109E-16	1.913247E-17
4.600000E+03	9.817682E-16	1.954965E-17
4.610000E+03	1.002020E-15	1.993612E-17
4.620000E+03	1.020234E-15	2.028138E-17
4.630000E+03	1.035875E-15	2.057492E-17
4.640000E+03	1.048451E-15	2.080707E-17
4.650000E+03	1.057478E-15	2.096843E-17
4.660000E+03	1.062578E-15	2.105163E-17
4.670000E+03	1.063453E-15	2.105103E-17
4.680000E+03	1.059943E-15	2.096365E-17
4.690000E+03	1.052008E-15	2.078894E-17
4.700000E+03	1.039795E-15	2.053000E-17
4.710000E+03	1.023562E-15	2.019215E-17
4.720000E+03	1.003719E-15	1.978371E-17
4.730000E+03	9.808181E-16	1.931569E-17
4.740000E+03	9.554744E-16	1.880038E-17
4.750000E+03	9.284317E-16	1.825252E-17
4.760000E+03	9.004363E-16	1.768685E-17
4.770000E+03	8.722923E-16	1.711921E-17
4.780000E+03	8.447478E-16	1.656428E-17
4.790000E+03	8.185488E-16	1.603664E-17
4.800000E+03	7.943750E-16	1.554953E-17
4.810000E+03	7.728124E-16	1.511431E-17
4.820000E+03	7.543669E-16	1.474072E-17
4.830000E+03	7.394681E-16	1.443701E-17
4.840000E+03	7.284772E-16	1.421004E-17
4.850000E+03	7.216485E-16	1.406456E-17
4.860000E+03	7.191992E-16	1.400458E-17
4.870000E+03	7.212881E-16	1.403299E-17
4.880000E+03	7.279559E-16	1.415033E-17
4.890000E+03	7.391889E-16	1.435611E-17
4.900000E+03	7.548834E-16	1.464808E-17
4.910000E+03	7.748011E-16	1.502139E-17
4.920000E+03	7.985747E-16	1.546873E-17
4.930000E+03	8.256910E-16	1.597995E-17
4.940000E+03	8.553991E-16	1.654037E-17
4.950000E+03	8.867409E-16	1.713135E-17
4.960000E+03	9.186146E-16	1.773154E-17
4.970000E+03	9.497637E-16	1.831669E-17
4.980000E+03	9.788323E-16	1.886069E-17
4.990000E+03	1.004519E-15	1.933861E-17
5.000000E+03	1.025751E-15	1.973000E-17
5.010000E+03	1.041712E-15	2.001936E-17
5.020000E+03	1.051897E-15	2.019732E-17
5.030000E+03	1.056321E-15	2.026442E-17
5.040000E+03	1.055405E-15	2.022902E-17
5.050000E+03	1.049816E-15	2.010420E-17
5.060000E+03	1.040514E-15	1.990854E-17
5.070000E+03	1.028541E-15	1.966214E-17
5.080000E+03	1.014960E-15	1.938545E-17
5.090000E+03	1.000671E-15	1.909572E-17
5.100000E+03	9.864606E-16	1.880801E-17
5.110000E+03	9.730138E-16	1.853533E-17
5.120000E+03	9.607887E-16	1.828638E-17
5.130000E+03	9.501550E-16	1.806812E-17
5.140000E+03	9.413682E-16	1.788533E-17
5.150000E+03	9.345352E-16	1.773995E-17
5.160000E+03	9.297152E-16	1.763300E-17
5.170000E+03	9.269116E-16	1.756444E-17
5.180000E+03	9.260975E-16	1.753368E-17
5.190000E+03	9.272156E-16	1.753952E-17
5.200000E+03	9.302159E-16	1.758092E-17
5.210000E+03	9.350342E-16	1.765659E-17
5.220000E+03	9.416043E-16	1.776518E-17
5.230000E+03	9.498450E-16	1.790508E-17
5.240000E+03	9.596756E-16	1.807470E-17
5.250000E+03	9.709672E-16	1.827152E-17
5.260000E+03	9.835980E-16	1.849320E-17
5.270000E+03	9.974276E-16	1.873702E-17
5.280000E+03	1.012288E-15	1.899978E-17
5.290000E+03	1.028019E-15	1.927844E-17
5.300000E+03	1.044453E-15	1.956981E-17
5.310000E+03	1.061417E-15	1.987062E-17
5.320000E+03	1.078770E-15	2.017821E-17
5.330000E+03	1.096373E-15	2.048998E-17
5.340000E+03	1.114086E-15	2.080329E-17
5.350000E+03	1.131823E-15	2.111656E-17
5.360000E+03	1.149518E-15	2.142853E-17
5.370000E+03	1.167143E-15	2.173872E-17
5.380000E+03	1.184692E-15	2.204701E-17
5.390000E+03	1.202273E-15	2.235540E-17
5.400000E+03	1.220002E-15	2.266608E-17
5.410000E+03	1.238023E-15	2.298170E-17
5.420000E+03	1.256491E-15	2.330513E-17
5.430000E+03	1.275562E-15	2.363924E-17
5.440000E+03	1.295298E-15	2.398519E-17
5.450000E+03	1.315584E-15	2.434076E-17
5.460000E+03	1.336207E-15	2.470204E-17
5.470000E+03	1.356726E-15	2.506087E-17
5.480000E+03	1.376414E-15	2.540382E-17
5.490000E+03	1.394295E-15	2.571295E-17
5.500000E+03	1.409322E-15	2.596906E-17
5.510000E+03	1.420340E-15	2.615099E-17
5.520000E+03	1.426177E-15	2.623738E-17
5.530000E+03	1.425858E-15	2.621054E-17
5.540000E+03	1.418696E-15	2.605811E-17
5.550000E+03	1.404263E-15	2.577255E-17
5.560000E+03	1.382488E-15	2.535285E-17
5.570000E+03	1.353705E-15	2.480548E-17
5.580000E+03	1.318583E-15	2.414297E-17
5.590000E+03	1.278026E-15	2.338210E-17
5.600000E+03	1.233115E-15	2.254290E-17
5.610000E+03	1.185075E-15	2.164792E-17
5.620000E+03	1.135210E-15	2.072105E-17
5.630000E+03	1.084903E-15	1.978763E-17
5.640000E+03	1.035487E-15	1.887192E-17
5.650000E+03	9.882219E-16	1.799683E-17
5.660000E+03	9.443264E-16	1.718444E-17
5.670000E+03	9.048776E-16	1.645419E-17
5.680000E+03	8.707846E-16	1.582240E-17
5.690000E+03	8.427559E-16	1.530172E-17
5.700000E+03	8.214147E-16	1.490320E-17
5.710000E+03	8.072273E-16	1.463501E-17
5.720000E+03	8.005683E-16	1.450366E-17
5.730000E+03	8.017536E-16	1.451457E-17
5.740000E+03	8.110192E-16	1.467168E-17
5.750000E+03	8.283614E-16	1.497463E-17
5.760000E+03	8.536388E-16	1.542055E-17
5.770000E+03	8.865100E-16	1.600298E-17
5.780000E+03	9.263175E-16	1.670977E-17
5.790000E+03	9.720437E-16	1.752233E-17
5.800000E+03	1.022353E-15	1.841638E-17
5.810000E+03	1.075601E-15	1.936218E-17
5.820000E+03	1.129895E-15	2.032557E-17
5.830000E+03	1.183259E-15	2.127102E-17
5.840000E+03	1.233960E-15	2.216743E-17
5.850000E+03	1.280491E-15	2.298789E-17
5.860000E+03	1.321589E-15	2.370989E-17
5.870000E+03	1.356432E-15	2.431889E-17
5.880000E+03	1.384494E-15	2.480574E-17
5.890000E+03	1.405598E-15	2.516746E-17
5.900000E+03	1.419800E-15	2.540537E-17
5.910000E+03	1.427449E-15	2.552592E-17
5.920000E+03	1.429085E-15	2.553899E-17
5.930000E+03	1.425376E-15	2.545672E-17
5.940000E+03	1.417108E-15	2.529333E-17
5.950000E+03	1.405122E-15	2.506396E-17
5.960000E+03	1.390227E-15	2.478317E-17
5.970000E+03	1.373219E-15	2.446521E-17
5.980000E+03	1.354803E-15	2.412272E-17
5.990000E+03	1.335585E-15	2.376650E-17
6.000000E+03	1.316070E-15	2.340557E-17
6.010000E+03	1.296664E-15	2.304716E-17
6.020000E+03	1.277686E-15	2.269690E-17
6.030000E+03	1.259373E-15	2.235898E-17
6.040000E+03	1.241906E-15	2.203662E-17
6.050000E+03	1.225414E-15	2.173206E-17
6.060000E+03	1.209990E-15	2.144691E-17
6.070000E+03	1.195696E-15	2.118224E-17
6.080000E+03	1.182560E-15	2.093850E-17
6.090000E+03	1.170607E-15	2.071611E-17
6.100000E+03	1.159850E-15	2.051525E-17
6.110000E+03	1.150326E-15	2.033656E-17
6.120000E+03	1.142058E-15	2.018039E-17
6.130000E+03	1.135053E-15	2.004685E-17
6.140000E+03	1.129283E-15	1.993540E-17
6.150000E+03	1.124664E-15	1.984453E-17
6.160000E+03	1.121074E-15	1.977205E-17
6.170000E+03	1.118202E-15	1.971246E-17
6.180000E+03	1.115664E-15	1.965900E-17
6.190000E+03	1.113025E-15	1.960396E-17
6.200000E+03	1.109750E-15	1.953794E-17
6.210000E+03	1.105277E-15	1.945107E-17
6.220000E+03	1.099106E-15	1.933459E-17
6.230000E+03	1.090966E-15	1.918373E-17
6.240000E+03	1.080720E-15	1.899617E-17
6.250000E+03	1.068369E-15	1.877192E-17
6.260000E+03	1.054213E-15	1.851628E-17
6.270000E+03	1.038676E-15	1.823675E-17
6.280000E+03	1.022271E-15	1.794235E-17
6.290000E+03	1.005500E-15	1.764190E-17
6.300000E+03	9.888688E-16	1.734423E-17
6.310000E+03	9.727848E-16	1.705651E-17
6.320000E+03	9.575027E-16	1.678317E-17
6.330000E+03	9.431646E-16	1.652669E-17
6.340000E+03	9.298582E-16	1.628857E-17
6.350000E+03	9.175095E-16	1.606750E-17
6.360000E+03	9.060041E-16	1.586145E-17
6.370000E+03	8.952118E-16	1.566812E-17
6.380000E+03	8.849254E-16	1.548388E-17
6.390000E+03	8.749530E-16	1.530536E-17
6.400000E+03	8.651399E-16	1.512983E-17
6.410000E+03	8.553913E-16	1.495564E-17
6.420000E+03	8.456602E-16	1.478195E-17
6.430000E+03	8.359656E-16	1.460910E-17
6.440000E+03	8.264895E-16	1.444025E-17
6.450000E+03	8.175046E-16	1.428017E-17
6.460000E+03	8.093073E-16	1.413402E-17
6.470000E+03	8.023135E-16	1.400906E-17
6.480000E+03	7.969684E-16	1.391303E-17
6.490000E+03	7.937134E-16	1.385362E-17
6.500000E+03	7.928893E-16	1.383675E-17
6.510000E+03	7.948187E-16	1.386804E-17
6.520000E+03	7.997327E-16	1.395149E-17
6.530000E+03	8.076961E-16	1.408820E-17
6.540000E+03	8.186693E-16	1.427746E-17
6.550000E+03	8.325579E-16	1.451760E-17
6.560000E+03	8.490819E-16	1.480374E-17
6.570000E+03	8.678932E-16	1.512977E-17
6.580000E+03	8.885175E-16	1.548744E-17
6.590000E+03	9.104380E-16	1.586772E-17
6.600000E+03	9.330712E-16	1.626045E-17
6.610000E+03	9.557457E-16	1.665393E-17
6.620000E+03	9.778860E-16	1.703815E-17
6.630000E+03	9.989235E-16	1.740321E-17
6.640000E+03	1.018280E-15	1.773903E-17
6.650000E+03	1.035503E-15	1.803778E-17
6.660000E+03	1.050182E-15	1.829231E-17
6.670000E+03	1.061982E-15	1.849677E-17
6.680000E+03	1.070636E-15	1.864656E-17
6.690000E+03	1.076032E-15	1.873971E-17
6.700000E+03	1.078073E-15	1.877456E-17
6.710000E+03	1.076838E-15	1.875250E-17
6.720000E+03	1.072515E-15	1.867679E-17
6.730000E+03	1.065258E-15	1.855011E-17
6.740000E+03	1.055251E-15	1.837569E-17
6.750000E+03	1.042652E-15	1.815626E-17
6.760000E+03	1.027675E-15	1.789553E-17
6.770000E+03	1.010583E-15	1.759811E-17
6.780000E+03	9.917037E-16	1.726966E-17
6.790000E+03	9.713927E-16	1.691639E-17
6.800000E+03	9.501106E-16	1.654631E-17
6.810000E+03	9.283400E-16	1.616781E-17
6.820000E+03	9.066272E-16	1.579039E-17
6.830000E+03	8.856144E-16	1.542524E-17
6.840000E+03	8.659048E-16	1.508285E-17
6.850000E+03	8.481963E-16	1.477539E-17
6.860000E+03	8.331534E-16	1.451442E-17
6.870000E+03	8.214420E-16	1.431156E-17
6.880000E+03	8.136644E-16	1.417731E-17
6.890000E+03	8.102832E-16	1.411974E-17
6.900000E+03	8.116569E-16	1.414513E-17
6.910000E+03	8.180440E-16	1.425801E-17
6.920000E+03	8.294490E-16	1.445848E-17
6.930000E+03	8.456959E-16	1.474352E-17
6.940000E+03	8.664105E-16	1.510663E-17
6.950000E+03	8.908682E-16	1.553523E-17
6.960000E+03	9.179871E-16	1.601048E-17
6.970000E+03	9.465409E-16	1.651101E-17
6.980000E+03	9.750601E-16	1.701122E-17
6.990000E+03	1.001998E-15	1.748413E-17
7.000000E+03	1.025871E-15	1.790385E-17
7.010000E+03	1.045565E-15	1.825090E-17
7.020000E+03	1.060193E-15	1.850977E-17
7.030000E+03	1.069319E-15	1.867280E-17
7.040000E+03	1.072979E-15	1.874059E-17
7.050000E+03	1.071605E-15	1.872059E-17
7.060000E+03	1.065881E-15	1.862473E-17
7.070000E+03	1.056814E-15	1.847054E-17
7.080000E+03	1.045546E-15	1.827794E-17
7.090000E+03	1.033182E-15	1.806623E-17
7.100000E+03	1.020753E-15	1.785343E-17
7.110000E+03	1.009199E-15	1.765596E-17
7.120000E+03	9.992476E-16	1.748658E-17
7.130000E+03	9.913849E-16	1.735381E-17
7.140000E+03	9.859260E-16	1.726320E-17
7.150000E+03	9.830398E-16	1.721774E-17
7.160000E+03	9.826233E-16	1.721566E-17
7.170000E+03	9.844896E-16	1.725373E-17
7.180000E+03	9.883361E-16	1.732669E-17
7.190000E+03	9.938798E-16	1.742961E-17
7.200000E+03	1.000717E-15	1.755545E-17
7.210000E+03	1.008470E-15	1.769757E-17
7.220000E+03	1.016813E-15	1.785033E-17
7.230000E+03	1.025359E-15	1.800691E-17
7.240000E+03	1.033777E-15	1.816152E-17
7.250000E+03	1.041724E-15	1.830814E-17
7.260000E+03	1.048950E-15	1.844234E-17
7.270000E+03	1.055107E-15	1.855804E-17
7.280000E+03	1.059965E-15	1.865113E-17
7.290000E+03	1.063348E-15	1.871851E-17
7.300000E+03	1.065065E-15	1.875677E-17
7.310000E+03	1.065078E-15	1.876523E-17
7.320000E+03	1.063395E-15	1.874398E-17
7.330000E+03	1.060176E-15	1.869580E-17
7.340000E+03	1.055565E-15	1.862319E-17
7.350000E+03	1.049854E-15	1.853129E-17
7.360000E+03	1.043313E-15	1.842481E-17
7.370000E+03	1.036174E-15	1.830786E-17
7.380000E+03	1.028701E-15	1.818505E-17
7.390000E+03	1.021050E-15	1.805915E-17
7.400000E+03	1.013311E-15	1.793176E-17
7.410000E+03	1.005580E-15	1.780453E-17
7.420000E+03	9.978434E-16	1.767726E-17
7.430000E+03	9.900725E-16	1.754943E-17
7.440000E+03	9.821855E-16	1.741956E-17
7.450000E+03	9.741168E-16	1.728651E-17
7.460000E+03	9.657826E-16	1.714877E-17
7.470000E+03	9.570910E-16	1.700469E-17
7.480000E+03	9.479297E-16	1.685228E-17
7.490000E+03	9.382436E-16	1.669051E-17
7.500000E+03	9.279346E-16	1.651764E-17
7.510000E+03	9.170054E-16	1.633367E-17
7.520000E+03	9.054545E-16	1.613855E-17
7.530000E+03	8.933633E-16	1.593371E-17
7.540000E+03	8.808100E-16	1.572050E-17
7.550000E+03	8.679454E-16	1.550160E-17
7.560000E+03	8.549886E-16	1.528089E-17
7.570000E+03	8.421147E-16	1.506150E-17
7.580000E+03	8.296025E-16	1.484841E-17
7.590000E+03	8.177641E-16	1.464721E-17
7.600000E+03	8.068705E-16	1.446279E-17
7.610000E+03	7.971796E-16	1.429978E-17
7.620000E+03	7.889788E-16	1.416341E-17
7.630000E+03	7.824642E-16	1.405723E-17
7.640000E+03	7.778168E-16	1.398458E-17
7.650000E+03	7.752163E-16	1.394875E-17
7.660000E+03	7.747173E-16	1.395082E-17
7.670000E+03	7.763621E-16	1.399163E-17
7.680000E+03	7.801079E-16	1.407050E-17
7.690000E+03	7.858187E-16	1.418507E-17
7.700000E+03	7.933100E-16	1.433209E-17
7.710000E+03	8.022777E-16	1.450615E-17
7.720000E+03	8.123765E-16	1.470106E-17
7.730000E+03	8.232166E-16	1.490982E-17
7.740000E+03	8.343142E-16	1.512369E-17
7.750000E+03	8.452426E-16	1.533495E-17
7.760000E+03	8.555569E-16	1.553551E-17
