#wls	flux	fluxerr
1.600000E+03	1.046495E-15	2.475622E-17
1.640000E+03	1.076339E-15	2.540112E-17
1.680000E+03	1.106505E-15	2.604865E-17
1.720000E+03	1.136844E-15	2.669506E-17
1.760000E+03	1.167336E-15	2.733973E-17
1.800000E+03	1.197950E-15	2.798171E-17
1.840000E+03	1.228477E-15	2.861593E-17
1.880000E+03	1.258998E-15	2.924415E-17
1.920000E+03	1.289258E-15	2.986025E-17
1.960000E+03	1.319290E-15	3.046486E-17
2.000000E+03	1.349098E-15	3.105799E-17
2.040000E+03	1.378656E-15	3.163884E-17
2.080000E+03	1.407734E-15	3.220204E-17
2.120000E+03	1.436538E-15	3.275222E-17
2.160000E+03	1.464741E-15	3.328182E-17
2.200000E+03	1.492747E-15	3.379990E-17
2.240000E+03	1.520092E-15	3.429590E-17
2.280000E+03	1.546861E-15	3.477169E-17
2.320000E+03	1.572584E-15	3.521666E-17
2.360000E+03	1.597008E-15	3.562530E-17
2.400000E+03	1.619214E-15	3.597731E-17
2.440000E+03	1.638661E-15	3.626118E-17
2.480000E+03	1.654350E-15	3.645545E-17
2.520000E+03	1.665417E-15	3.654210E-17
2.560000E+03	1.671266E-15	3.650930E-17
2.600000E+03	1.670954E-15	3.633801E-17
2.640000E+03	1.663977E-15	3.601907E-17
2.680000E+03	1.649689E-15	3.554063E-17
2.720000E+03	1.627794E-15	3.489862E-17
2.760000E+03	1.597857E-15	3.408627E-17
2.800000E+03	1.559940E-15	3.310763E-17
2.840000E+03	1.514297E-15	3.197090E-17
2.880000E+03	1.461319E-15	3.068713E-17
2.920000E+03	1.401702E-15	2.927369E-17
2.960000E+03	1.336705E-15	2.775937E-17
3.000000E+03	1.267790E-15	2.617668E-17
3.010000E+03	1.250126E-15	2.577418E-17
3.020000E+03	1.232361E-15	2.537052E-17
3.030000E+03	1.214509E-15	2.496596E-17
3.040000E+03	1.196576E-15	2.456068E-17
3.050000E+03	1.178577E-15	2.415499E-17
3.060000E+03	1.160567E-15	2.375003E-17
3.070000E+03	1.142557E-15	2.334601E-17
3.080000E+03	1.124598E-15	2.294402E-17
3.090000E+03	1.106657E-15	2.254335E-17
3.100000E+03	1.088785E-15	2.214507E-17
3.110000E+03	1.071028E-15	2.175011E-17
3.120000E+03	1.053356E-15	2.135784E-17
3.130000E+03	1.035817E-15	2.096923E-17
3.140000E+03	1.018449E-15	2.058509E-17
3.150000E+03	1.001226E-15	2.020484E-17
3.160000E+03	9.842214E-16	1.982996E-17
3.170000E+03	9.674380E-16	1.946050E-17
3.180000E+03	9.508498E-16	1.909592E-17
3.190000E+03	9.345227E-16	1.873753E-17
3.200000E+03	9.184591E-16	1.838536E-17
3.210000E+03	9.026623E-16	1.803946E-17
3.220000E+03	8.871360E-16	1.769987E-17
3.230000E+03	8.719353E-16	1.736768E-17
3.240000E+03	8.570600E-16	1.704286E-17
3.250000E+03	8.424868E-16	1.672491E-17
3.260000E+03	8.282652E-16	1.641480E-17
3.270000E+03	8.143943E-16	1.611247E-17
3.280000E+03	8.008742E-16	1.581790E-17
3.290000E+03	7.877052E-16	1.553107E-17
3.300000E+03	7.749285E-16	1.525275E-17
3.310000E+03	7.625220E-16	1.498248E-17
3.320000E+03	7.505043E-16	1.472059E-17
3.330000E+03	7.388739E-16	1.446701E-17
3.340000E+03	7.276469E-16	1.422202E-17
3.350000E+03	7.168042E-16	1.398522E-17
3.360000E+03	7.063614E-16	1.375687E-17
3.370000E+03	6.963006E-16	1.353658E-17
3.380000E+03	6.866524E-16	1.332492E-17
3.390000E+03	6.773987E-16	1.312150E-17
3.400000E+03	6.685376E-16	1.292623E-17
3.410000E+03	6.600533E-16	1.273878E-17
3.420000E+03	6.519580E-16	1.255935E-17
3.430000E+03	6.442360E-16	1.238759E-17
3.440000E+03	6.368723E-16	1.222318E-17
3.450000E+03	6.298647E-16	1.206605E-17
3.460000E+03	6.232103E-16	1.191609E-17
3.470000E+03	6.168698E-16	1.177253E-17
3.480000E+03	6.108406E-16	1.163529E-17
3.490000E+03	6.051075E-16	1.150405E-17
3.500000E+03	5.996442E-16	1.137827E-17
3.510000E+03	5.944357E-16	1.125765E-17
3.520000E+03	5.894458E-16	1.114147E-17
3.530000E+03	5.846695E-16	1.102963E-17
3.540000E+03	5.800715E-16	1.092142E-17
3.550000E+03	5.756372E-16	1.081657E-17
3.560000E+03	5.713435E-16	1.071462E-17
3.570000E+03	5.671606E-16	1.061500E-17
3.580000E+03	5.630802E-16	1.051755E-17
3.590000E+03	5.590887E-16	1.042199E-17
3.600000E+03	5.551685E-16	1.032801E-17
3.610000E+03	5.513247E-16	1.023567E-17
3.620000E+03	5.475592E-16	1.014503E-17
3.630000E+03	5.438885E-16	1.005636E-17
3.640000E+03	5.403420E-16	9.970207E-18
3.650000E+03	5.369473E-16	9.887066E-18
3.660000E+03	5.337376E-16	9.807529E-18
3.670000E+03	5.307664E-16	9.732559E-18
3.680000E+03	5.280843E-16	9.663054E-18
3.690000E+03	5.257392E-16	9.599859E-18
3.700000E+03	5.237902E-16	9.544012E-18
3.710000E+03	5.222994E-16	9.496599E-18
3.720000E+03	5.213381E-16	9.458859E-18
3.730000E+03	5.209656E-16	9.431806E-18
3.740000E+03	5.212485E-16	9.416575E-18
3.750000E+03	5.222600E-16	9.414411E-18
3.760000E+03	5.240655E-16	9.426405E-18
3.770000E+03	5.267224E-16	9.453492E-18
3.780000E+03	5.302980E-16	9.496778E-18
3.790000E+03	5.348496E-16	9.557180E-18
3.800000E+03	5.404368E-16	9.635642E-18
3.810000E+03	5.470940E-16	9.732656E-18
3.820000E+03	5.548751E-16	9.849048E-18
3.830000E+03	5.638132E-16	9.985271E-18
3.840000E+03	5.739254E-16	1.014149E-17
3.850000E+03	5.852377E-16	1.031802E-17
3.860000E+03	5.977441E-16	1.051460E-17
3.870000E+03	6.114234E-16	1.073074E-17
3.880000E+03	6.262657E-16	1.096610E-17
3.890000E+03	6.422090E-16	1.121946E-17
3.900000E+03	6.591997E-16	1.148975E-17
3.910000E+03	6.771353E-16	1.177507E-17
3.920000E+03	6.959207E-16	1.207365E-17
3.930000E+03	7.154179E-16	1.238300E-17
3.940000E+03	7.354898E-16	1.270065E-17
3.950000E+03	7.559489E-16	1.302331E-17
3.960000E+03	7.766122E-16	1.334779E-17
3.970000E+03	7.972823E-16	1.367066E-17
3.980000E+03	8.177421E-16	1.398823E-17
3.990000E+03	8.377594E-16	1.429655E-17
4.000000E+03	8.571186E-16	1.459200E-17
4.010000E+03	8.756100E-16	1.487111E-17
4.020000E+03	8.930192E-16	1.513034E-17
4.030000E+03	9.091589E-16	1.536667E-17
4.040000E+03	9.238764E-16	1.557767E-17
4.050000E+03	9.370392E-16	1.576130E-17
4.060000E+03	9.485482E-16	1.591608E-17
4.070000E+03	9.583390E-16	1.604114E-17
4.080000E+03	9.663919E-16	1.613637E-17
4.090000E+03	9.727017E-16	1.620188E-17
4.100000E+03	9.773048E-16	1.623852E-17
4.110000E+03	9.802745E-16	1.624769E-17
4.120000E+03	9.816899E-16	1.623092E-17
4.130000E+03	9.816694E-16	1.619035E-17
4.140000E+03	9.803284E-16	1.612806E-17
4.150000E+03	9.778134E-16	1.604662E-17
4.160000E+03	9.742600E-16	1.594839E-17
4.170000E+03	9.698180E-16	1.583596E-17
4.180000E+03	9.646382E-16	1.571188E-17
4.190000E+03	9.588702E-16	1.557870E-17
4.200000E+03	9.526598E-16	1.543883E-17
4.210000E+03	9.461296E-16	1.529433E-17
4.220000E+03	9.394224E-16	1.514754E-17
4.230000E+03	9.326469E-16	1.500022E-17
4.240000E+03	9.259222E-16	1.485431E-17
4.250000E+03	9.193508E-16	1.471143E-17
4.260000E+03	9.130368E-16	1.457324E-17
4.270000E+03	9.070516E-16	1.444084E-17
4.280000E+03	9.014774E-16	1.431550E-17
4.290000E+03	8.963898E-16	1.419837E-17
4.300000E+03	8.918577E-16	1.409048E-17
4.310000E+03	8.879182E-16	1.399235E-17
4.320000E+03	8.846324E-16	1.390487E-17
4.330000E+03	8.820274E-16	1.382840E-17
4.340000E+03	8.801343E-16	1.376333E-17
4.350000E+03	8.789552E-16	1.370963E-17
4.360000E+03	8.784940E-16	1.366726E-17
4.370000E+03	8.787497E-16	1.363612E-17
4.380000E+03	8.797332E-16	1.361632E-17
4.390000E+03	8.814717E-16	1.360817E-17
4.400000E+03	8.840803E-16	1.361338E-17
4.410000E+03	8.876491E-16	1.363322E-17
4.420000E+03	8.922714E-16	1.366901E-17
4.430000E+03	8.980245E-16	1.372182E-17
4.440000E+03	9.049681E-16	1.379243E-17
4.450000E+03	9.131191E-16	1.388096E-17
4.460000E+03	9.225092E-16	1.398774E-17
4.470000E+03	9.331348E-16	1.411259E-17
4.480000E+03	9.449561E-16	1.425477E-17
4.490000E+03	9.579377E-16	1.441362E-17
4.500000E+03	9.720047E-16	1.458787E-17
4.510000E+03	9.870497E-16	1.477581E-17
4.520000E+03	1.002957E-15	1.497560E-17
4.530000E+03	1.019575E-15	1.518490E-17
4.540000E+03	1.036714E-15	1.540082E-17
4.550000E+03	1.054166E-15	1.562022E-17
4.560000E+03	1.071684E-15	1.583941E-17
4.570000E+03	1.089003E-15	1.605453E-17
4.580000E+03	1.105816E-15	1.626105E-17
4.590000E+03	1.121829E-15	1.645474E-17
4.600000E+03	1.136692E-15	1.663060E-17
4.610000E+03	1.150108E-15	1.678441E-17
4.620000E+03	1.161722E-15	1.691119E-17
4.630000E+03	1.171267E-15	1.700723E-17
4.640000E+03	1.178452E-15	1.706861E-17
4.650000E+03	1.183073E-15	1.709260E-17
4.660000E+03	1.184944E-15	1.707682E-17
4.670000E+03	1.183983E-15	1.702042E-17
4.680000E+03	1.180167E-15	1.692333E-17
4.690000E+03	1.173535E-15	1.678644E-17
4.700000E+03	1.164215E-15	1.661188E-17
4.710000E+03	1.152403E-15	1.640272E-17
4.720000E+03	1.138350E-15	1.616277E-17
4.730000E+03	1.122390E-15	1.589703E-17
4.740000E+03	1.104874E-15	1.561061E-17
4.750000E+03	1.086237E-15	1.530985E-17
4.760000E+03	1.066933E-15	1.500118E-17
4.770000E+03	1.047523E-15	1.469257E-17
4.780000E+03	1.028568E-15	1.439184E-17
4.790000E+03	1.010588E-15	1.410623E-17
4.800000E+03	9.940773E-16	1.384250E-17
4.810000E+03	9.794656E-16	1.360647E-17
4.820000E+03	9.671314E-16	1.340318E-17
4.830000E+03	9.573728E-16	1.323652E-17
4.840000E+03	9.504428E-16	1.310972E-17
4.850000E+03	9.465204E-16	1.302496E-17
4.860000E+03	9.457372E-16	1.298375E-17
4.870000E+03	9.481216E-16	1.298617E-17
4.880000E+03	9.536765E-16	1.303197E-17
4.890000E+03	9.622855E-16	1.311925E-17
4.900000E+03	9.737903E-16	1.324557E-17
4.910000E+03	9.879226E-16	1.340704E-17
4.920000E+03	1.004357E-15	1.359900E-17
4.930000E+03	1.022648E-15	1.381523E-17
4.940000E+03	1.042315E-15	1.404910E-17
4.950000E+03	1.062758E-15	1.429241E-17
4.960000E+03	1.083384E-15	1.453714E-17
4.970000E+03	1.103540E-15	1.477458E-17
4.980000E+03	1.122608E-15	1.499648E-17
4.990000E+03	1.139986E-15	1.519496E-17
5.000000E+03	1.155200E-15	1.536385E-17
5.010000E+03	1.167868E-15	1.549830E-17
5.020000E+03	1.177739E-15	1.559521E-17
5.030000E+03	1.184731E-15	1.565374E-17
5.040000E+03	1.188887E-15	1.567470E-17
5.050000E+03	1.190407E-15	1.566098E-17
5.060000E+03	1.189590E-15	1.561673E-17
5.070000E+03	1.186821E-15	1.554719E-17
5.080000E+03	1.182524E-15	1.545805E-17
5.090000E+03	1.177170E-15	1.535561E-17
5.100000E+03	1.171217E-15	1.524588E-17
5.110000E+03	1.165087E-15	1.513441E-17
5.120000E+03	1.159184E-15	1.502644E-17
5.130000E+03	1.153832E-15	1.492615E-17
5.140000E+03	1.149354E-15	1.483765E-17
5.150000E+03	1.145954E-15	1.476350E-17
5.160000E+03	1.143839E-15	1.470629E-17
5.170000E+03	1.143139E-15	1.466756E-17
5.180000E+03	1.143940E-15	1.464831E-17
5.190000E+03	1.146330E-15	1.464957E-17
5.200000E+03	1.150324E-15	1.467140E-17
5.210000E+03	1.155934E-15	1.471382E-17
5.220000E+03	1.163162E-15	1.477675E-17
5.230000E+03	1.171966E-15	1.485955E-17
5.240000E+03	1.182303E-15	1.496155E-17
5.250000E+03	1.194104E-15	1.508179E-17
5.260000E+03	1.207291E-15	1.521917E-17
5.270000E+03	1.221755E-15	1.537225E-17
5.280000E+03	1.237403E-15	1.553976E-17
5.290000E+03	1.254101E-15	1.571996E-17
5.300000E+03	1.271721E-15	1.591119E-17
5.310000E+03	1.290114E-15	1.611153E-17
5.320000E+03	1.309152E-15	1.631935E-17
5.330000E+03	1.328692E-15	1.653285E-17
5.340000E+03	1.348563E-15	1.674988E-17
5.350000E+03	1.368633E-15	1.696880E-17
5.360000E+03	1.388765E-15	1.718791E-17
5.370000E+03	1.408812E-15	1.740542E-17
5.380000E+03	1.428688E-15	1.762029E-17
5.390000E+03	1.448323E-15	1.783168E-17
5.400000E+03	1.467709E-15	1.803953E-17
5.410000E+03	1.486799E-15	1.824329E-17
5.420000E+03	1.505537E-15	1.844231E-17
5.430000E+03	1.523770E-15	1.863475E-17
5.440000E+03	1.541340E-15	1.881871E-17
5.450000E+03	1.557947E-15	1.899059E-17
5.460000E+03	1.573254E-15	1.914633E-17
5.470000E+03	1.586804E-15	1.928051E-17
5.480000E+03	1.598090E-15	1.938703E-17
5.490000E+03	1.606538E-15	1.945910E-17
5.500000E+03	1.611576E-15	1.948996E-17
5.510000E+03	1.612678E-15	1.947344E-17
5.520000E+03	1.609340E-15	1.940370E-17
5.530000E+03	1.601229E-15	1.927695E-17
5.540000E+03	1.588143E-15	1.909104E-17
5.550000E+03	1.570067E-15	1.884600E-17
5.560000E+03	1.547177E-15	1.854422E-17
5.570000E+03	1.519855E-15	1.819051E-17
5.580000E+03	1.488634E-15	1.779143E-17
5.590000E+03	1.454199E-15	1.735535E-17
5.600000E+03	1.417415E-15	1.689273E-17
5.610000E+03	1.379147E-15	1.641393E-17
5.620000E+03	1.340394E-15	1.593088E-17
5.630000E+03	1.302091E-15	1.545470E-17
5.640000E+03	1.265188E-15	1.499658E-17
5.650000E+03	1.230593E-15	1.456720E-17
5.660000E+03	1.199129E-15	1.417614E-17
5.670000E+03	1.171534E-15	1.383197E-17
5.680000E+03	1.148446E-15	1.354200E-17
5.690000E+03	1.130401E-15	1.331232E-17
5.700000E+03	1.117831E-15	1.314780E-17
5.710000E+03	1.111067E-15	1.305206E-17
5.720000E+03	1.110334E-15	1.302750E-17
5.730000E+03	1.115767E-15	1.307541E-17
5.740000E+03	1.127376E-15	1.319568E-17
5.750000E+03	1.145045E-15	1.338669E-17
5.760000E+03	1.168536E-15	1.364541E-17
5.770000E+03	1.197499E-15	1.396756E-17
5.780000E+03	1.231383E-15	1.434649E-17
5.790000E+03	1.269533E-15	1.477442E-17
5.800000E+03	1.311086E-15	1.524117E-17
5.810000E+03	1.355097E-15	1.573567E-17
5.820000E+03	1.400466E-15	1.624508E-17
5.830000E+03	1.446050E-15	1.675614E-17
5.840000E+03	1.490673E-15	1.725526E-17
5.850000E+03	1.533174E-15	1.772908E-17
5.860000E+03	1.572516E-15	1.816573E-17
5.870000E+03	1.607798E-15	1.855494E-17
5.880000E+03	1.638250E-15	1.888800E-17
5.890000E+03	1.663387E-15	1.915952E-17
5.900000E+03	1.682849E-15	1.936554E-17
5.910000E+03	1.696518E-15	1.950492E-17
5.920000E+03	1.704511E-15	1.957917E-17
5.930000E+03	1.707052E-15	1.959108E-17
5.940000E+03	1.704527E-15	1.954523E-17
5.950000E+03	1.697445E-15	1.944761E-17
5.960000E+03	1.686347E-15	1.930455E-17
5.970000E+03	1.671851E-15	1.912324E-17
5.980000E+03	1.654588E-15	1.891095E-17
5.990000E+03	1.635115E-15	1.867414E-17
6.000000E+03	1.614036E-15	1.841974E-17
6.010000E+03	1.591853E-15	1.815351E-17
6.020000E+03	1.569069E-15	1.788119E-17
6.030000E+03	1.546038E-15	1.760682E-17
6.040000E+03	1.523169E-15	1.733506E-17
6.050000E+03	1.500742E-15	1.706906E-17
6.060000E+03	1.479000E-15	1.681157E-17
6.070000E+03	1.458139E-15	1.656480E-17
6.080000E+03	1.438308E-15	1.633040E-17
6.090000E+03	1.419636E-15	1.610980E-17
6.100000E+03	1.402187E-15	1.590373E-17
6.110000E+03	1.386007E-15	1.571264E-17
6.120000E+03	1.371068E-15	1.553620E-17
6.130000E+03	1.357349E-15	1.537415E-17
6.140000E+03	1.344789E-15	1.522577E-17
6.150000E+03	1.333264E-15	1.508964E-17
6.160000E+03	1.322660E-15	1.496445E-17
6.170000E+03	1.312805E-15	1.484824E-17
6.180000E+03	1.303400E-15	1.473763E-17
6.190000E+03	1.294160E-15	1.462938E-17
6.200000E+03	1.284762E-15	1.451983E-17
6.210000E+03	1.274916E-15	1.440570E-17
6.220000E+03	1.264354E-15	1.428396E-17
6.230000E+03	1.252911E-15	1.415271E-17
6.240000E+03	1.240434E-15	1.401021E-17
6.250000E+03	1.226946E-15	1.385672E-17
6.260000E+03	1.212553E-15	1.369339E-17
6.270000E+03	1.197444E-15	1.352237E-17
6.280000E+03	1.181806E-15	1.334572E-17
6.290000E+03	1.165841E-15	1.316572E-17
6.300000E+03	1.149749E-15	1.298459E-17
6.310000E+03	1.133721E-15	1.280448E-17
6.320000E+03	1.117909E-15	1.262708E-17
6.330000E+03	1.102417E-15	1.245356E-17
6.340000E+03	1.087349E-15	1.228505E-17
6.350000E+03	1.072763E-15	1.212222E-17
6.360000E+03	1.058699E-15	1.196548E-17
6.370000E+03	1.045183E-15	1.181513E-17
6.380000E+03	1.032252E-15	1.167157E-17
6.390000E+03	1.019920E-15	1.153494E-17
6.400000E+03	1.008234E-15	1.140578E-17
6.410000E+03	9.972650E-16	1.128487E-17
6.420000E+03	9.871263E-16	1.117349E-17
6.430000E+03	9.779210E-16	1.107282E-17
6.440000E+03	9.698251E-16	1.098483E-17
6.450000E+03	9.630255E-16	1.091166E-17
6.460000E+03	9.577274E-16	1.085562E-17
6.470000E+03	9.541164E-16	1.081885E-17
6.480000E+03	9.524274E-16	1.080402E-17
6.490000E+03	9.528237E-16	1.081301E-17
6.500000E+03	9.554655E-16	1.084765E-17
6.510000E+03	9.604843E-16	1.090948E-17
6.520000E+03	9.679190E-16	1.099897E-17
6.530000E+03	9.777895E-16	1.111638E-17
6.540000E+03	9.900380E-16	1.126109E-17
6.550000E+03	1.004510E-15	1.143140E-17
6.560000E+03	1.021040E-15	1.162546E-17
6.570000E+03	1.039340E-15	1.184002E-17
6.580000E+03	1.059116E-15	1.207177E-17
6.590000E+03	1.079961E-15	1.231610E-17
6.600000E+03	1.101465E-15	1.256836E-17
6.610000E+03	1.123174E-15	1.282339E-17
6.620000E+03	1.144614E-15	1.307578E-17
6.630000E+03	1.165308E-15	1.332007E-17
6.640000E+03	1.184770E-15	1.355071E-17
6.650000E+03	1.202579E-15	1.376284E-17
6.660000E+03	1.218348E-15	1.395201E-17
6.670000E+03	1.231688E-15	1.411374E-17
6.680000E+03	1.242325E-15	1.424481E-17
6.690000E+03	1.250037E-15	1.434262E-17
6.700000E+03	1.254676E-15	1.440542E-17
6.710000E+03	1.256192E-15	1.443256E-17
6.720000E+03	1.254554E-15	1.442361E-17
6.730000E+03	1.249881E-15	1.437987E-17
6.740000E+03	1.242310E-15	1.430282E-17
6.750000E+03	1.232080E-15	1.419517E-17
6.760000E+03	1.219464E-15	1.405997E-17
6.770000E+03	1.204809E-15	1.390119E-17
6.780000E+03	1.188544E-15	1.372371E-17
6.790000E+03	1.171124E-15	1.353275E-17
6.800000E+03	1.153026E-15	1.333377E-17
6.810000E+03	1.134790E-15	1.313302E-17
6.820000E+03	1.116934E-15	1.293649E-17
6.830000E+03	1.100030E-15	1.275080E-17
6.840000E+03	1.084562E-15	1.258159E-17
6.850000E+03	1.071039E-15	1.243482E-17
6.860000E+03	1.059884E-15	1.231544E-17
6.870000E+03	1.051514E-15	1.222837E-17
6.880000E+03	1.046215E-15	1.217703E-17
6.890000E+03	1.044182E-15	1.216377E-17
6.900000E+03	1.045564E-15	1.219043E-17
6.910000E+03	1.050327E-15	1.225671E-17
6.920000E+03	1.058388E-15	1.236177E-17
6.930000E+03	1.069468E-15	1.250245E-17
6.940000E+03	1.083232E-15	1.267493E-17
6.950000E+03	1.099167E-15	1.287329E-17
6.960000E+03	1.116654E-15	1.309038E-17
6.970000E+03	1.135062E-15	1.331883E-17
6.980000E+03	1.153595E-15	1.354937E-17
6.990000E+03	1.171527E-15	1.377344E-17
7.000000E+03	1.188176E-15	1.398306E-17
7.010000E+03	1.202887E-15	1.417043E-17
7.020000E+03	1.215221E-15	1.433035E-17
7.030000E+03	1.224839E-15	1.445874E-17
7.040000E+03	1.231628E-15	1.455417E-17
7.050000E+03	1.235605E-15	1.461675E-17
7.060000E+03	1.236979E-15	1.464885E-17
7.070000E+03	1.236087E-15	1.465440E-17
7.080000E+03	1.233369E-15	1.463849E-17
7.090000E+03	1.229337E-15	1.460719E-17
7.100000E+03	1.224504E-15	1.456652E-17
7.110000E+03	1.219335E-15	1.452200E-17
7.120000E+03	1.214271E-15	1.447887E-17
7.130000E+03	1.209681E-15	1.444156E-17
7.140000E+03	1.205898E-15	1.441407E-17
7.150000E+03	1.203050E-15	1.439795E-17
7.160000E+03	1.201289E-15	1.439510E-17
7.170000E+03	1.200639E-15	1.440584E-17
7.180000E+03	1.201047E-15	1.442962E-17
7.190000E+03	1.202380E-15	1.446487E-17
7.200000E+03	1.204499E-15	1.450997E-17
7.210000E+03	1.207204E-15	1.456259E-17
7.220000E+03	1.210278E-15	1.462010E-17
7.230000E+03	1.213461E-15	1.467943E-17
7.240000E+03	1.216571E-15	1.473837E-17
7.250000E+03	1.219359E-15	1.479391E-17
7.260000E+03	1.221644E-15	1.484383E-17
7.270000E+03	1.223221E-15	1.488565E-17
7.280000E+03	1.223941E-15	1.491750E-17
7.290000E+03	1.223743E-15	1.493861E-17
7.300000E+03	1.222506E-15	1.494746E-17
7.310000E+03	1.220253E-15	1.494427E-17
7.320000E+03	1.216970E-15	1.492882E-17
7.330000E+03	1.212731E-15	1.490194E-17
7.340000E+03	1.207637E-15	1.486486E-17
7.350000E+03	1.201760E-15	1.481838E-17
7.360000E+03	1.195257E-15	1.476441E-17
7.370000E+03	1.188210E-15	1.470392E-17
7.380000E+03	1.180741E-15	1.463839E-17
7.390000E+03	1.172958E-15	1.456912E-17
7.400000E+03	1.164916E-15	1.449680E-17
7.410000E+03	1.156680E-15	1.442218E-17
7.420000E+03	1.148260E-15	1.434540E-17
7.430000E+03	1.139679E-15	1.426672E-17
7.440000E+03	1.130868E-15	1.418525E-17
7.450000E+03	1.121797E-15	1.410063E-17
7.460000E+03	1.112438E-15	1.401243E-17
7.470000E+03	1.102736E-15	1.391996E-17
7.480000E+03	1.092644E-15	1.382258E-17
7.490000E+03	1.082124E-15	1.371979E-17
7.500000E+03	1.071177E-15	1.361152E-17
7.510000E+03	1.059814E-15	1.349788E-17
7.520000E+03	1.048069E-15	1.337923E-17
7.530000E+03	1.035944E-15	1.325554E-17
7.540000E+03	1.023554E-15	1.312820E-17
7.550000E+03	1.011056E-15	1.299922E-17
7.560000E+03	9.986382E-16	1.287096E-17
7.570000E+03	9.865175E-16	1.274621E-17
7.580000E+03	9.749128E-16	1.262781E-17
7.590000E+03	9.640591E-16	1.251883E-17
7.600000E+03	9.541139E-16	1.242139E-17
7.610000E+03	9.452840E-16	1.233824E-17
7.620000E+03	9.377111E-16	1.227134E-17
7.630000E+03	9.315750E-16	1.222316E-17
7.640000E+03	9.269379E-16	1.219464E-17
7.650000E+03	9.238903E-16	1.218712E-17
7.660000E+03	9.224396E-16	1.220087E-17
7.670000E+03	9.225927E-16	1.223613E-17
7.680000E+03	9.242901E-16	1.229227E-17
7.690000E+03	9.274271E-16	1.236807E-17
7.700000E+03	9.318348E-16	1.246141E-17
7.710000E+03	9.373482E-16	1.257023E-17
7.720000E+03	9.437488E-16	1.269171E-17
7.730000E+03	9.507936E-16	1.282266E-17
7.740000E+03	9.582254E-16	1.295969E-17
7.750000E+03	9.657602E-16	1.309898E-17
7.760000E+03	9.731908E-16	1.323773E-17
