#wls	flux	fluxerr
1.600000E+03	4.653530E-16	1.847478E-17
1.640000E+03	4.743563E-16	1.882129E-17
1.680000E+03	4.832140E-16	1.916132E-17
1.720000E+03	4.917846E-16	1.948926E-17
1.760000E+03	5.002097E-16	1.981071E-17
1.800000E+03	5.082452E-16	2.011601E-17
1.840000E+03	5.160347E-16	2.041084E-17
1.880000E+03	5.235270E-16	2.069317E-17
1.920000E+03	5.305662E-16	2.095686E-17
1.960000E+03	5.371980E-16	2.120371E-17
2.000000E+03	5.434720E-16	2.143571E-17
2.040000E+03	5.493339E-16	2.165072E-17
2.080000E+03	5.546221E-16	2.184239E-17
2.120000E+03	5.594932E-16	2.201693E-17
2.160000E+03	5.637864E-16	2.216803E-17
2.200000E+03	5.674475E-16	2.229360E-17
2.240000E+03	5.705313E-16	2.239584E-17
2.280000E+03	5.729875E-16	2.247281E-17
2.320000E+03	5.746632E-16	2.251859E-17
2.360000E+03	5.757260E-16	2.253979E-17
2.400000E+03	5.761340E-16	2.253484E-17
2.440000E+03	5.756447E-16	2.249433E-17
2.480000E+03	5.745359E-16	2.242919E-17
2.520000E+03	5.725784E-16	2.233056E-17
2.560000E+03	5.698536E-16	2.220170E-17
2.600000E+03	5.663480E-16	2.204217E-17
2.640000E+03	5.621467E-16	2.185540E-17
2.680000E+03	5.572414E-16	2.164114E-17
2.720000E+03	5.517173E-16	2.140280E-17
2.760000E+03	5.454828E-16	2.113691E-17
2.800000E+03	5.387085E-16	2.085020E-17
2.840000E+03	5.314658E-16	2.054550E-17
2.880000E+03	5.237388E-16	2.022228E-17
2.920000E+03	5.156594E-16	1.988571E-17
2.960000E+03	5.073349E-16	1.954001E-17
3.000000E+03	4.987789E-16	1.918573E-17
3.010000E+03	4.966234E-16	1.909659E-17
3.020000E+03	4.944518E-16	1.900686E-17
3.030000E+03	4.923288E-16	1.891901E-17
3.040000E+03	4.901209E-16	1.882793E-17
3.050000E+03	4.879575E-16	1.873859E-17
3.060000E+03	4.857720E-16	1.864842E-17
3.070000E+03	4.836255E-16	1.855978E-17
3.080000E+03	4.814528E-16	1.847016E-17
3.090000E+03	4.792529E-16	1.837952E-17
3.100000E+03	4.770848E-16	1.829013E-17
3.110000E+03	4.749453E-16	1.820187E-17
3.120000E+03	4.727719E-16	1.811234E-17
3.130000E+03	4.706219E-16	1.802373E-17
3.140000E+03	4.684342E-16	1.793371E-17
3.150000E+03	4.663216E-16	1.784659E-17
3.160000E+03	4.641663E-16	1.775787E-17
3.170000E+03	4.620227E-16	1.766962E-17
3.180000E+03	4.598878E-16	1.758174E-17
3.190000E+03	4.578122E-16	1.749615E-17
3.200000E+03	4.556845E-16	1.740861E-17
3.210000E+03	4.536087E-16	1.732307E-17
3.220000E+03	4.515281E-16	1.723739E-17
3.230000E+03	4.494401E-16	1.715145E-17
3.240000E+03	4.473922E-16	1.706708E-17
3.250000E+03	4.453302E-16	1.698219E-17
3.260000E+03	4.433004E-16	1.689856E-17
3.270000E+03	4.412982E-16	1.681602E-17
3.280000E+03	4.392727E-16	1.673262E-17
3.290000E+03	4.373144E-16	1.665181E-17
3.300000E+03	4.353259E-16	1.656988E-17
3.310000E+03	4.333508E-16	1.648849E-17
3.320000E+03	4.314298E-16	1.640919E-17
3.330000E+03	4.295141E-16	1.633012E-17
3.340000E+03	4.276005E-16	1.625116E-17
3.350000E+03	4.257284E-16	1.617381E-17
3.360000E+03	4.238934E-16	1.609790E-17
3.370000E+03	4.220502E-16	1.602170E-17
3.380000E+03	4.202370E-16	1.594667E-17
3.390000E+03	4.184503E-16	1.587268E-17
3.400000E+03	4.166865E-16	1.579958E-17
3.410000E+03	4.149427E-16	1.572727E-17
3.420000E+03	4.132534E-16	1.565705E-17
3.430000E+03	4.115778E-16	1.558738E-17
3.440000E+03	4.099139E-16	1.551817E-17
3.450000E+03	4.083308E-16	1.545205E-17
3.460000E+03	4.067541E-16	1.538620E-17
3.470000E+03	4.052170E-16	1.532187E-17
3.480000E+03	4.037509E-16	1.526024E-17
3.490000E+03	4.023193E-16	1.519994E-17
3.500000E+03	4.009206E-16	1.514091E-17
3.510000E+03	3.995544E-16	1.508312E-17
3.520000E+03	3.982819E-16	1.502889E-17
3.530000E+03	3.970389E-16	1.497579E-17
3.540000E+03	3.958558E-16	1.492496E-17
3.550000E+03	3.947613E-16	1.487748E-17
3.560000E+03	3.937247E-16	1.483220E-17
3.570000E+03	3.927464E-16	1.478912E-17
3.580000E+03	3.918547E-16	1.474932E-17
3.590000E+03	3.910493E-16	1.471277E-17
3.600000E+03	3.903305E-16	1.467947E-17
3.610000E+03	3.896986E-16	1.464945E-17
3.620000E+03	3.891806E-16	1.462370E-17
3.630000E+03	3.887512E-16	1.460128E-17
3.640000E+03	3.884123E-16	1.458225E-17
3.650000E+03	3.882144E-16	1.456850E-17
3.660000E+03	3.881096E-16	1.455823E-17
3.670000E+03	3.881241E-16	1.455241E-17
3.680000E+03	3.882819E-16	1.455194E-17
3.690000E+03	3.885834E-16	1.455683E-17
3.700000E+03	3.890071E-16	1.456626E-17
3.710000E+03	3.895762E-16	1.458111E-17
3.720000E+03	3.902908E-16	1.460135E-17
3.730000E+03	3.911514E-16	1.462701E-17
3.740000E+03	3.921576E-16	1.465807E-17
3.750000E+03	3.933292E-16	1.469525E-17
3.760000E+03	3.946639E-16	1.473846E-17
3.770000E+03	3.961398E-16	1.478688E-17
3.780000E+03	3.977930E-16	1.484184E-17
3.790000E+03	3.995807E-16	1.490174E-17
3.800000E+03	4.015361E-16	1.496782E-17
3.810000E+03	4.036344E-16	1.503913E-17
3.820000E+03	4.058868E-16	1.511608E-17
3.830000E+03	4.082843E-16	1.519835E-17
3.840000E+03	4.107998E-16	1.528490E-17
3.850000E+03	4.134401E-16	1.537598E-17
3.860000E+03	4.162099E-16	1.547177E-17
3.870000E+03	4.190782E-16	1.557111E-17
3.880000E+03	4.220302E-16	1.567343E-17
3.890000E+03	4.250494E-16	1.577812E-17
3.900000E+03	4.281346E-16	1.588514E-17
3.910000E+03	4.312507E-16	1.599318E-17
3.920000E+03	4.344093E-16	1.610266E-17
3.930000E+03	4.375568E-16	1.621160E-17
3.940000E+03	4.406716E-16	1.631920E-17
3.950000E+03	4.437611E-16	1.642574E-17
3.960000E+03	4.467714E-16	1.652921E-17
3.970000E+03	4.496935E-16	1.662930E-17
3.980000E+03	4.525040E-16	1.672514E-17
3.990000E+03	4.551792E-16	1.681586E-17
4.000000E+03	4.576970E-16	1.690066E-17
4.010000E+03	4.600364E-16	1.697876E-17
4.020000E+03	4.621646E-16	1.704897E-17
4.030000E+03	4.640793E-16	1.711121E-17
4.040000E+03	4.657534E-16	1.716450E-17
4.050000E+03	4.671903E-16	1.720898E-17
4.060000E+03	4.683706E-16	1.724394E-17
4.070000E+03	4.692922E-16	1.726932E-17
4.080000E+03	4.699568E-16	1.728519E-17
4.090000E+03	4.703701E-16	1.729179E-17
4.100000E+03	4.705294E-16	1.728902E-17
4.110000E+03	4.704482E-16	1.727740E-17
4.120000E+03	4.701428E-16	1.725754E-17
4.130000E+03	4.696322E-16	1.723015E-17
4.140000E+03	4.689159E-16	1.719521E-17
4.150000E+03	4.680401E-16	1.715445E-17
4.160000E+03	4.669979E-16	1.710760E-17
4.170000E+03	4.658382E-16	1.705648E-17
4.180000E+03	4.645683E-16	1.700136E-17
4.190000E+03	4.632080E-16	1.694296E-17
4.200000E+03	4.617974E-16	1.688277E-17
4.210000E+03	4.603476E-16	1.682117E-17
4.220000E+03	4.588893E-16	1.675932E-17
4.230000E+03	4.574528E-16	1.669830E-17
4.240000E+03	4.560499E-16	1.663855E-17
4.250000E+03	4.547015E-16	1.658084E-17
4.260000E+03	4.534456E-16	1.652653E-17
4.270000E+03	4.522928E-16	1.647602E-17
4.280000E+03	4.512622E-16	1.642999E-17
4.290000E+03	4.503723E-16	1.638911E-17
4.300000E+03	4.496488E-16	1.635432E-17
4.310000E+03	4.491082E-16	1.632619E-17
4.320000E+03	4.487587E-16	1.630501E-17
4.330000E+03	4.486154E-16	1.629133E-17
4.340000E+03	4.487071E-16	1.628618E-17
4.350000E+03	4.490312E-16	1.628945E-17
4.360000E+03	4.496064E-16	1.630180E-17
4.370000E+03	4.504344E-16	1.632329E-17
4.380000E+03	4.515302E-16	1.635445E-17
4.390000E+03	4.529000E-16	1.639548E-17
4.400000E+03	4.545414E-16	1.644628E-17
4.410000E+03	4.564494E-16	1.650665E-17
4.420000E+03	4.586375E-16	1.657708E-17
4.430000E+03	4.610877E-16	1.665688E-17
4.440000E+03	4.637994E-16	1.674604E-17
4.450000E+03	4.667540E-16	1.684385E-17
4.460000E+03	4.699421E-16	1.694997E-17
4.470000E+03	4.733497E-16	1.706388E-17
4.480000E+03	4.769644E-16	1.718513E-17
4.490000E+03	4.807485E-16	1.731233E-17
4.500000E+03	4.846852E-16	1.744489E-17
4.510000E+03	4.887325E-16	1.758127E-17
4.520000E+03	4.928562E-16	1.772025E-17
4.530000E+03	4.970032E-16	1.785991E-17
4.540000E+03	5.011292E-16	1.799866E-17
4.550000E+03	5.051788E-16	1.813451E-17
4.560000E+03	5.090869E-16	1.826513E-17
4.570000E+03	5.128056E-16	1.838882E-17
4.580000E+03	5.162662E-16	1.850312E-17
4.590000E+03	5.194137E-16	1.860607E-17
4.600000E+03	5.221878E-16	1.869555E-17
4.610000E+03	5.245458E-16	1.877003E-17
4.620000E+03	5.264231E-16	1.882724E-17
4.630000E+03	5.277886E-16	1.886608E-17
4.640000E+03	5.286133E-16	1.888557E-17
4.650000E+03	5.288641E-16	1.888453E-17
4.660000E+03	5.285458E-16	1.886319E-17
4.670000E+03	5.276409E-16	1.882093E-17
4.680000E+03	5.261765E-16	1.875878E-17
4.690000E+03	5.241711E-16	1.867741E-17
4.700000E+03	5.216540E-16	1.857791E-17
4.710000E+03	5.186765E-16	1.846212E-17
4.720000E+03	5.152918E-16	1.833197E-17
4.730000E+03	5.115472E-16	1.818916E-17
4.740000E+03	5.075205E-16	1.803648E-17
4.750000E+03	5.032743E-16	1.787617E-17
4.760000E+03	4.988742E-16	1.771056E-17
4.770000E+03	4.943933E-16	1.754226E-17
4.780000E+03	4.898986E-16	1.737366E-17
4.790000E+03	4.854554E-16	1.720706E-17
4.800000E+03	4.811372E-16	1.704508E-17
4.810000E+03	4.769913E-16	1.688936E-17
4.820000E+03	4.730766E-16	1.674200E-17
4.830000E+03	4.694357E-16	1.660448E-17
4.840000E+03	4.661217E-16	1.647867E-17
4.850000E+03	4.631589E-16	1.636540E-17
4.860000E+03	4.605810E-16	1.626585E-17
4.870000E+03	4.584042E-16	1.618057E-17
4.880000E+03	4.566526E-16	1.611039E-17
4.890000E+03	4.553220E-16	1.605513E-17
4.900000E+03	4.544208E-16	1.601507E-17
4.910000E+03	4.539291E-16	1.598948E-17
4.920000E+03	4.538391E-16	1.597807E-17
4.930000E+03	4.541200E-16	1.597973E-17
4.940000E+03	4.547434E-16	1.599344E-17
4.950000E+03	4.556642E-16	1.601760E-17
4.960000E+03	4.568424E-16	1.605080E-17
4.970000E+03	4.582242E-16	1.609111E-17
4.980000E+03	4.597695E-16	1.613713E-17
4.990000E+03	4.614186E-16	1.618676E-17
5.000000E+03	4.631299E-16	1.623853E-17
5.010000E+03	4.648671E-16	1.629117E-17
5.020000E+03	4.665899E-16	1.634326E-17
5.030000E+03	4.682717E-16	1.639388E-17
5.040000E+03	4.698947E-16	1.644240E-17
5.050000E+03	4.714555E-16	1.648871E-17
5.060000E+03	4.729549E-16	1.653284E-17
5.070000E+03	4.743963E-16	1.657491E-17
5.080000E+03	4.758005E-16	1.661566E-17
5.090000E+03	4.771840E-16	1.665566E-17
5.100000E+03	4.785771E-16	1.669598E-17
5.110000E+03	4.800081E-16	1.673759E-17
5.120000E+03	4.815062E-16	1.678151E-17
5.130000E+03	4.831003E-16	1.682876E-17
5.140000E+03	4.848135E-16	1.688012E-17
5.150000E+03	4.866768E-16	1.693668E-17
5.160000E+03	4.887188E-16	1.699942E-17
5.170000E+03	4.909498E-16	1.706868E-17
5.180000E+03	4.933922E-16	1.714525E-17
5.190000E+03	4.960543E-16	1.722939E-17
5.200000E+03	4.989575E-16	1.732185E-17
5.210000E+03	5.021032E-16	1.742266E-17
5.220000E+03	5.054903E-16	1.753176E-17
5.230000E+03	5.091297E-16	1.764954E-17
5.240000E+03	5.130081E-16	1.777550E-17
5.250000E+03	5.171249E-16	1.790964E-17
5.260000E+03	5.214712E-16	1.805162E-17
5.270000E+03	5.260343E-16	1.820099E-17
5.280000E+03	5.307927E-16	1.835701E-17
5.290000E+03	5.357325E-16	1.851918E-17
5.300000E+03	5.408304E-16	1.868670E-17
5.310000E+03	5.460593E-16	1.885862E-17
5.320000E+03	5.513826E-16	1.903368E-17
5.330000E+03	5.567650E-16	1.921065E-17
5.340000E+03	5.621730E-16	1.938838E-17
5.350000E+03	5.675632E-16	1.956537E-17
5.360000E+03	5.728762E-16	1.973959E-17
5.370000E+03	5.780718E-16	1.990963E-17
5.380000E+03	5.830934E-16	2.007359E-17
5.390000E+03	5.878687E-16	2.022896E-17
5.400000E+03	5.923453E-16	2.037397E-17
5.410000E+03	5.964448E-16	2.050593E-17
5.420000E+03	6.001118E-16	2.062295E-17
5.430000E+03	6.032729E-16	2.072254E-17
5.440000E+03	6.058556E-16	2.080222E-17
5.450000E+03	6.078082E-16	2.086026E-17
5.460000E+03	6.090586E-16	2.089421E-17
5.470000E+03	6.095585E-16	2.090244E-17
5.480000E+03	6.092605E-16	2.088336E-17
5.490000E+03	6.081203E-16	2.083549E-17
5.500000E+03	6.061168E-16	2.075814E-17
5.510000E+03	6.032288E-16	2.065062E-17
5.520000E+03	5.994561E-16	2.051297E-17
5.530000E+03	5.948133E-16	2.034571E-17
5.540000E+03	5.893370E-16	2.015014E-17
5.550000E+03	5.830737E-16	1.992788E-17
5.560000E+03	5.760793E-16	1.968087E-17
5.570000E+03	5.684297E-16	1.941173E-17
5.580000E+03	5.602239E-16	1.912387E-17
5.590000E+03	5.515536E-16	1.882043E-17
5.600000E+03	5.425234E-16	1.850500E-17
5.610000E+03	5.332370E-16	1.818114E-17
5.620000E+03	5.238165E-16	1.785299E-17
5.630000E+03	5.143670E-16	1.752416E-17
5.640000E+03	5.049971E-16	1.719834E-17
5.650000E+03	4.958107E-16	1.687906E-17
5.660000E+03	4.869107E-16	1.656981E-17
5.670000E+03	4.783783E-16	1.627334E-17
5.680000E+03	4.703011E-16	1.599261E-17
5.690000E+03	4.627529E-16	1.573012E-17
5.700000E+03	4.557980E-16	1.548802E-17
5.710000E+03	4.494863E-16	1.526799E-17
5.720000E+03	4.438707E-16	1.507180E-17
5.730000E+03	4.389753E-16	1.490024E-17
5.740000E+03	4.348267E-16	1.475418E-17
5.750000E+03	4.314309E-16	1.463380E-17
5.760000E+03	4.287913E-16	1.453918E-17
5.770000E+03	4.268913E-16	1.446975E-17
5.780000E+03	4.257076E-16	1.442468E-17
5.790000E+03	4.252108E-16	1.440294E-17
5.800000E+03	4.253501E-16	1.440281E-17
5.810000E+03	4.260828E-16	1.442280E-17
5.820000E+03	4.273436E-16	1.446070E-17
5.830000E+03	4.290737E-16	1.451449E-17
5.840000E+03	4.312024E-16	1.458178E-17
5.850000E+03	4.336643E-16	1.466032E-17
5.860000E+03	4.363841E-16	1.474759E-17
5.870000E+03	4.392908E-16	1.484116E-17
5.880000E+03	4.423135E-16	1.493864E-17
5.890000E+03	4.453835E-16	1.503771E-17
5.900000E+03	4.484304E-16	1.513599E-17
5.910000E+03	4.513962E-16	1.523152E-17
5.920000E+03	4.542189E-16	1.532223E-17
5.930000E+03	4.568463E-16	1.540635E-17
5.940000E+03	4.592329E-16	1.548235E-17
5.950000E+03	4.613356E-16	1.554881E-17
5.960000E+03	4.631284E-16	1.560484E-17
5.970000E+03	4.645841E-16	1.564955E-17
5.980000E+03	4.656933E-16	1.568262E-17
5.990000E+03	4.664414E-16	1.570357E-17
6.000000E+03	4.668355E-16	1.571266E-17
6.010000E+03	4.668820E-16	1.571011E-17
6.020000E+03	4.666029E-16	1.569668E-17
6.030000E+03	4.660141E-16	1.567290E-17
6.040000E+03	4.651544E-16	1.564009E-17
6.050000E+03	4.640501E-16	1.559913E-17
6.060000E+03	4.627400E-16	1.555135E-17
6.070000E+03	4.612705E-16	1.549830E-17
6.080000E+03	4.596766E-16	1.544117E-17
6.090000E+03	4.580073E-16	1.538159E-17
6.100000E+03	4.563026E-16	1.532093E-17
6.110000E+03	4.546105E-16	1.526078E-17
6.120000E+03	4.529682E-16	1.520240E-17
6.130000E+03	4.514097E-16	1.514693E-17
6.140000E+03	4.499743E-16	1.509568E-17
6.150000E+03	4.486920E-16	1.504967E-17
6.160000E+03	4.475839E-16	1.500958E-17
6.170000E+03	4.466732E-16	1.497620E-17
6.180000E+03	4.459773E-16	1.495011E-17
6.190000E+03	4.454983E-16	1.493138E-17
6.200000E+03	4.452359E-16	1.491998E-17
6.210000E+03	4.451790E-16	1.491556E-17
6.220000E+03	4.453192E-16	1.491780E-17
6.230000E+03	4.456416E-16	1.492623E-17
6.240000E+03	4.461129E-16	1.493971E-17
6.250000E+03	4.467068E-16	1.495737E-17
6.260000E+03	4.473967E-16	1.497831E-17
6.270000E+03	4.481352E-16	1.500095E-17
6.280000E+03	4.488917E-16	1.502425E-17
6.290000E+03	4.496221E-16	1.504674E-17
6.300000E+03	4.502971E-16	1.506745E-17
6.310000E+03	4.508808E-16	1.508516E-17
6.320000E+03	4.513358E-16	1.509864E-17
6.330000E+03	4.516416E-16	1.510719E-17
6.340000E+03	4.517683E-16	1.510982E-17
6.350000E+03	4.517031E-16	1.510610E-17
6.360000E+03	4.514233E-16	1.509528E-17
6.370000E+03	4.509191E-16	1.507701E-17
6.380000E+03	4.501790E-16	1.505093E-17
6.390000E+03	4.491993E-16	1.501692E-17
6.400000E+03	4.479792E-16	1.497494E-17
6.410000E+03	4.465114E-16	1.492475E-17
6.420000E+03	4.448100E-16	1.486683E-17
6.430000E+03	4.428689E-16	1.480096E-17
6.440000E+03	4.407033E-16	1.472766E-17
6.450000E+03	4.383319E-16	1.464756E-17
6.460000E+03	4.357624E-16	1.456091E-17
6.470000E+03	4.330198E-16	1.446855E-17
6.480000E+03	4.301275E-16	1.437126E-17
6.490000E+03	4.271113E-16	1.426989E-17
6.500000E+03	4.239991E-16	1.416538E-17
6.510000E+03	4.208162E-16	1.405857E-17
6.520000E+03	4.175791E-16	1.395002E-17
6.530000E+03	4.143091E-16	1.384043E-17
6.540000E+03	4.110302E-16	1.373061E-17
6.550000E+03	4.077597E-16	1.362112E-17
6.560000E+03	4.045203E-16	1.351273E-17
6.570000E+03	4.013132E-16	1.340548E-17
6.580000E+03	3.981610E-16	1.330011E-17
6.590000E+03	3.950558E-16	1.319637E-17
6.600000E+03	3.920025E-16	1.309441E-17
6.610000E+03	3.890024E-16	1.299428E-17
6.620000E+03	3.860409E-16	1.289549E-17
6.630000E+03	3.831146E-16	1.279792E-17
6.640000E+03	3.802151E-16	1.270130E-17
6.650000E+03	3.773381E-16	1.260547E-17
6.660000E+03	3.744678E-16	1.250991E-17
6.670000E+03	3.716029E-16	1.241457E-17
6.680000E+03	3.687402E-16	1.231934E-17
6.690000E+03	3.658834E-16	1.222436E-17
6.700000E+03	3.630313E-16	1.212957E-17
6.710000E+03	3.601902E-16	1.203518E-17
6.720000E+03	3.573736E-16	1.194165E-17
6.730000E+03	3.545904E-16	1.184928E-17
6.740000E+03	3.518600E-16	1.175870E-17
6.750000E+03	3.492005E-16	1.167053E-17
6.760000E+03	3.466320E-16	1.158543E-17
6.770000E+03	3.441725E-16	1.150401E-17
6.780000E+03	3.418531E-16	1.142730E-17
6.790000E+03	3.396902E-16	1.135586E-17
6.800000E+03	3.377165E-16	1.129078E-17
6.810000E+03	3.359536E-16	1.123278E-17
6.820000E+03	3.344265E-16	1.118269E-17
6.830000E+03	3.331640E-16	1.114149E-17
6.840000E+03	3.321864E-16	1.110985E-17
6.850000E+03	3.315165E-16	1.108854E-17
6.860000E+03	3.311794E-16	1.107840E-17
6.870000E+03	3.311935E-16	1.108006E-17
6.880000E+03	3.315706E-16	1.109390E-17
6.890000E+03	3.323222E-16	1.112032E-17
6.900000E+03	3.334595E-16	1.115969E-17
6.910000E+03	3.349842E-16	1.121209E-17
6.920000E+03	3.368882E-16	1.127724E-17
6.930000E+03	3.391690E-16	1.135507E-17
6.940000E+03	3.417971E-16	1.144459E-17
6.950000E+03	3.447601E-16	1.154540E-17
6.960000E+03	3.480191E-16	1.165619E-17
6.970000E+03	3.515373E-16	1.177575E-17
6.980000E+03	3.552819E-16	1.190297E-17
6.990000E+03	3.592010E-16	1.203614E-17
7.000000E+03	3.632503E-16	1.217375E-17
7.010000E+03	3.673912E-16	1.231453E-17
7.020000E+03	3.715850E-16	1.245718E-17
7.030000E+03	3.757940E-16	1.260044E-17
7.040000E+03	3.799919E-16	1.274343E-17
7.050000E+03	3.841651E-16	1.288570E-17
7.060000E+03	3.883035E-16	1.302690E-17
7.070000E+03	3.924001E-16	1.316682E-17
7.080000E+03	3.964596E-16	1.330559E-17
7.090000E+03	4.004924E-16	1.344359E-17
7.100000E+03	4.045177E-16	1.358144E-17
7.110000E+03	4.085426E-16	1.371940E-17
7.120000E+03	4.125939E-16	1.385836E-17
7.130000E+03	4.166820E-16	1.399868E-17
7.140000E+03	4.208190E-16	1.414077E-17
7.150000E+03	4.250112E-16	1.428484E-17
7.160000E+03	4.292589E-16	1.443090E-17
7.170000E+03	4.335486E-16	1.457851E-17
7.180000E+03	4.378747E-16	1.472748E-17
7.190000E+03	4.422008E-16	1.487660E-17
7.200000E+03	4.464978E-16	1.502488E-17
7.210000E+03	4.507225E-16	1.517087E-17
7.220000E+03	4.548181E-16	1.531266E-17
7.230000E+03	4.587321E-16	1.544848E-17
7.240000E+03	4.624011E-16	1.557620E-17
7.250000E+03	4.657523E-16	1.569335E-17
7.260000E+03	4.687169E-16	1.579761E-17
7.270000E+03	4.712330E-16	1.588690E-17
7.280000E+03	4.732364E-16	1.595902E-17
7.290000E+03	4.746574E-16	1.601162E-17
7.300000E+03	4.754581E-16	1.604340E-17
7.310000E+03	4.756001E-16	1.605305E-17
7.320000E+03	4.750514E-16	1.603947E-17
7.330000E+03	4.737995E-16	1.600222E-17
7.340000E+03	4.718522E-16	1.594153E-17
7.350000E+03	4.692131E-16	1.585751E-17
7.360000E+03	4.659225E-16	1.575149E-17
7.370000E+03	4.620206E-16	1.562481E-17
7.380000E+03	4.575505E-16	1.547891E-17
7.390000E+03	4.525635E-16	1.531551E-17
7.400000E+03	4.471338E-16	1.513708E-17
7.410000E+03	4.413277E-16	1.494587E-17
7.420000E+03	4.352020E-16	1.474378E-17
7.430000E+03	4.288370E-16	1.453351E-17
7.440000E+03	4.222902E-16	1.431701E-17
7.450000E+03	4.156398E-16	1.409691E-17
7.460000E+03	4.089403E-16	1.387505E-17
7.470000E+03	4.022651E-16	1.365393E-17
7.480000E+03	3.956688E-16	1.343540E-17
7.490000E+03	3.892080E-16	1.322137E-17
7.500000E+03	3.829356E-16	1.301365E-17
7.510000E+03	3.769006E-16	1.281390E-17
7.520000E+03	3.711473E-16	1.262364E-17
7.530000E+03	3.657147E-16	1.244419E-17
7.540000E+03	3.606305E-16	1.227653E-17
7.550000E+03	3.559282E-16	1.212179E-17
7.560000E+03	3.516151E-16	1.198023E-17
7.570000E+03	3.477076E-16	1.185243E-17
7.580000E+03	3.442083E-16	1.173850E-17
7.590000E+03	3.411255E-16	1.163874E-17
7.600000E+03	3.384591E-16	1.155315E-17
7.610000E+03	3.362018E-16	1.148150E-17
7.620000E+03	3.343516E-16	1.142376E-17
7.630000E+03	3.328995E-16	1.137961E-17
7.640000E+03	3.318283E-16	1.134850E-17
7.650000E+03	3.311221E-16	1.132990E-17
7.660000E+03	3.307663E-16	1.132332E-17
7.670000E+03	3.307332E-16	1.132784E-17
7.680000E+03	3.310002E-16	1.134269E-17
7.690000E+03	3.315364E-16	1.136683E-17
7.700000E+03	3.322975E-16	1.139875E-17
7.710000E+03	3.332579E-16	1.143759E-17
7.720000E+03	3.343660E-16	1.148158E-17
7.730000E+03	3.355760E-16	1.152916E-17
7.740000E+03	3.368446E-16	1.157884E-17
7.750000E+03	3.381179E-16	1.162878E-17
7.760000E+03	3.393519E-16	1.167745E-17
