#wls	flux	fluxerr
1.600000E+03	5.038902E-16	1.984032E-17
1.640000E+03	5.133018E-16	2.020798E-17
1.680000E+03	5.223971E-16	2.056300E-17
1.720000E+03	5.312139E-16	2.090688E-17
1.760000E+03	5.396913E-16	2.123722E-17
1.800000E+03	5.478686E-16	2.155556E-17
1.840000E+03	5.555774E-16	2.185529E-17
1.880000E+03	5.628535E-16	2.213780E-17
1.920000E+03	5.697353E-16	2.240462E-17
1.960000E+03	5.761541E-16	2.265305E-17
2.000000E+03	5.820386E-16	2.288029E-17
2.040000E+03	5.874249E-16	2.308777E-17
2.080000E+03	5.922399E-16	2.327261E-17
2.120000E+03	5.966291E-16	2.344055E-17
2.160000E+03	6.002977E-16	2.358001E-17
2.200000E+03	6.032805E-16	2.369236E-17
2.240000E+03	6.056125E-16	2.377900E-17
2.280000E+03	6.071129E-16	2.383285E-17
2.320000E+03	6.078213E-16	2.385547E-17
2.360000E+03	6.075686E-16	2.384025E-17
2.400000E+03	6.064058E-16	2.378920E-17
2.440000E+03	6.041839E-16	2.369653E-17
2.480000E+03	6.008725E-16	2.356104E-17
2.520000E+03	5.964554E-16	2.338215E-17
2.560000E+03	5.909316E-16	2.315985E-17
2.600000E+03	5.843166E-16	2.289478E-17
2.640000E+03	5.766427E-16	2.258823E-17
2.680000E+03	5.679595E-16	2.224220E-17
2.720000E+03	5.582500E-16	2.185604E-17
2.760000E+03	5.476852E-16	2.143649E-17
2.800000E+03	5.363602E-16	2.098730E-17
2.840000E+03	5.243085E-16	2.050982E-17
2.880000E+03	5.117248E-16	2.001169E-17
2.920000E+03	4.987290E-16	1.949763E-17
2.960000E+03	4.855055E-16	1.897486E-17
3.000000E+03	4.722839E-16	1.845237E-17
3.010000E+03	4.690093E-16	1.832298E-17
3.020000E+03	4.657667E-16	1.819486E-17
3.030000E+03	4.624978E-16	1.806572E-17
3.040000E+03	4.593204E-16	1.794017E-17
3.050000E+03	4.561184E-16	1.781368E-17
3.060000E+03	4.529504E-16	1.768852E-17
3.070000E+03	4.498164E-16	1.756471E-17
3.080000E+03	4.467164E-16	1.744224E-17
3.090000E+03	4.436504E-16	1.732110E-17
3.100000E+03	4.406714E-16	1.720338E-17
3.110000E+03	4.376721E-16	1.708488E-17
3.120000E+03	4.347582E-16	1.696972E-17
3.130000E+03	4.318760E-16	1.685582E-17
3.140000E+03	4.290254E-16	1.674316E-17
3.150000E+03	4.262557E-16	1.663366E-17
3.160000E+03	4.235154E-16	1.652533E-17
3.170000E+03	4.208524E-16	1.642003E-17
3.180000E+03	4.182643E-16	1.631766E-17
3.190000E+03	4.157013E-16	1.621628E-17
3.200000E+03	4.132094E-16	1.611768E-17
3.210000E+03	4.108317E-16	1.602355E-17
3.220000E+03	4.084733E-16	1.593018E-17
3.230000E+03	4.061778E-16	1.583928E-17
3.240000E+03	4.039869E-16	1.575246E-17
3.250000E+03	4.018522E-16	1.566784E-17
3.260000E+03	3.997711E-16	1.558533E-17
3.270000E+03	3.977832E-16	1.550645E-17
3.280000E+03	3.958419E-16	1.542939E-17
3.290000E+03	3.940268E-16	1.535727E-17
3.300000E+03	3.922504E-16	1.528666E-17
3.310000E+03	3.905898E-16	1.522057E-17
3.320000E+03	3.889600E-16	1.515568E-17
3.330000E+03	3.874358E-16	1.509491E-17
3.340000E+03	3.859728E-16	1.503654E-17
3.350000E+03	3.846043E-16	1.498185E-17
3.360000E+03	3.833242E-16	1.493060E-17
3.370000E+03	3.821265E-16	1.488257E-17
3.380000E+03	3.810056E-16	1.483754E-17
3.390000E+03	3.799556E-16	1.479526E-17
3.400000E+03	3.789709E-16	1.475554E-17
3.410000E+03	3.780809E-16	1.471950E-17
3.420000E+03	3.772783E-16	1.468686E-17
3.430000E+03	3.765569E-16	1.465738E-17
3.440000E+03	3.759102E-16	1.463082E-17
3.450000E+03	3.753318E-16	1.460691E-17
3.460000E+03	3.748483E-16	1.458669E-17
3.470000E+03	3.744210E-16	1.456865E-17
3.480000E+03	3.740758E-16	1.455381E-17
3.490000E+03	3.738063E-16	1.454191E-17
3.500000E+03	3.736068E-16	1.453273E-17
3.510000E+03	3.735015E-16	1.452721E-17
3.520000E+03	3.734551E-16	1.452398E-17
3.530000E+03	3.734921E-16	1.452398E-17
3.540000E+03	3.736074E-16	1.452703E-17
3.550000E+03	3.737965E-16	1.453293E-17
3.560000E+03	3.740560E-16	1.454157E-17
3.570000E+03	3.743829E-16	1.455282E-17
3.580000E+03	3.748019E-16	1.456764E-17
3.590000E+03	3.753103E-16	1.458593E-17
3.600000E+03	3.759068E-16	1.460763E-17
3.610000E+03	3.765907E-16	1.463272E-17
3.620000E+03	3.773625E-16	1.466121E-17
3.630000E+03	3.782235E-16	1.469315E-17
3.640000E+03	3.792001E-16	1.472958E-17
3.650000E+03	3.802706E-16	1.476964E-17
3.660000E+03	3.814626E-16	1.481440E-17
3.670000E+03	3.827565E-16	1.486311E-17
3.680000E+03	3.842037E-16	1.491775E-17
3.690000E+03	3.857856E-16	1.497760E-17
3.700000E+03	3.875077E-16	1.504288E-17
3.710000E+03	3.893762E-16	1.511382E-17
3.720000E+03	3.913971E-16	1.519066E-17
3.730000E+03	3.935977E-16	1.527445E-17
3.740000E+03	3.959623E-16	1.536458E-17
3.750000E+03	3.985173E-16	1.546207E-17
3.760000E+03	4.012467E-16	1.556630E-17
3.770000E+03	4.041751E-16	1.567822E-17
3.780000E+03	4.072855E-16	1.579717E-17
3.790000E+03	4.106000E-16	1.592401E-17
3.800000E+03	4.141189E-16	1.605874E-17
3.810000E+03	4.178222E-16	1.620058E-17
3.820000E+03	4.217264E-16	1.635018E-17
3.830000E+03	4.258268E-16	1.650734E-17
3.840000E+03	4.301169E-16	1.667182E-17
3.850000E+03	4.345697E-16	1.684256E-17
3.860000E+03	4.391744E-16	1.701914E-17
3.870000E+03	4.439539E-16	1.720246E-17
3.880000E+03	4.488391E-16	1.738982E-17
3.890000E+03	4.538477E-16	1.758191E-17
3.900000E+03	4.589597E-16	1.777796E-17
3.910000E+03	4.641355E-16	1.797643E-17
3.920000E+03	4.693512E-16	1.817640E-17
3.930000E+03	4.745815E-16	1.837688E-17
3.940000E+03	4.797991E-16	1.857682E-17
3.950000E+03	4.849762E-16	1.877514E-17
3.960000E+03	4.900836E-16	1.897071E-17
3.970000E+03	4.950757E-16	1.916177E-17
3.980000E+03	4.999237E-16	1.934720E-17
3.990000E+03	5.046148E-16	1.952651E-17
4.000000E+03	5.091052E-16	1.969801E-17
4.010000E+03	5.133683E-16	1.986067E-17
4.020000E+03	5.173795E-16	2.001354E-17
4.030000E+03	5.211012E-16	2.015518E-17
4.040000E+03	5.245139E-16	2.028482E-17
4.050000E+03	5.276166E-16	2.040244E-17
4.060000E+03	5.303662E-16	2.050638E-17
4.070000E+03	5.327689E-16	2.059688E-17
4.080000E+03	5.348051E-16	2.067318E-17
4.090000E+03	5.364882E-16	2.073581E-17
4.100000E+03	5.377938E-16	2.078383E-17
4.110000E+03	5.387440E-16	2.081810E-17
4.120000E+03	5.393506E-16	2.083909E-17
4.130000E+03	5.396034E-16	2.084638E-17
4.140000E+03	5.395490E-16	2.084182E-17
4.150000E+03	5.391724E-16	2.082480E-17
4.160000E+03	5.385267E-16	2.079738E-17
4.170000E+03	5.376292E-16	2.076025E-17
4.180000E+03	5.365001E-16	2.071417E-17
4.190000E+03	5.351860E-16	2.066097E-17
4.200000E+03	5.337108E-16	2.060155E-17
4.210000E+03	5.321002E-16	2.053691E-17
4.220000E+03	5.304033E-16	2.046896E-17
4.230000E+03	5.286358E-16	2.039829E-17
4.240000E+03	5.268465E-16	2.032680E-17
4.250000E+03	5.250727E-16	2.025591E-17
4.260000E+03	5.233295E-16	2.018622E-17
4.270000E+03	5.216630E-16	2.011950E-17
4.280000E+03	5.200968E-16	2.005666E-17
4.290000E+03	5.186638E-16	1.999897E-17
4.300000E+03	5.173847E-16	1.994722E-17
4.310000E+03	5.162984E-16	1.990291E-17
4.320000E+03	5.154123E-16	1.986633E-17
4.330000E+03	5.147608E-16	1.983879E-17
4.340000E+03	5.143477E-16	1.982045E-17
4.350000E+03	5.142110E-16	1.981275E-17
4.360000E+03	5.143497E-16	1.981567E-17
4.370000E+03	5.147786E-16	1.982975E-17
4.380000E+03	5.155002E-16	1.985511E-17
4.390000E+03	5.165404E-16	1.989273E-17
4.400000E+03	5.178785E-16	1.994181E-17
4.410000E+03	5.195336E-16	2.000308E-17
4.420000E+03	5.214951E-16	2.007612E-17
4.430000E+03	5.237492E-16	2.016041E-17
4.440000E+03	5.263028E-16	2.025620E-17
4.450000E+03	5.291258E-16	2.036233E-17
4.460000E+03	5.322083E-16	2.047842E-17
4.470000E+03	5.355283E-16	2.060362E-17
4.480000E+03	5.390430E-16	2.073627E-17
4.490000E+03	5.427220E-16	2.087521E-17
4.500000E+03	5.465384E-16	2.101940E-17
4.510000E+03	5.504377E-16	2.116673E-17
4.520000E+03	5.543856E-16	2.131590E-17
4.530000E+03	5.583288E-16	2.146485E-17
4.540000E+03	5.622193E-16	2.161174E-17
4.550000E+03	5.659994E-16	2.175434E-17
4.560000E+03	5.696257E-16	2.189100E-17
4.570000E+03	5.730390E-16	2.201943E-17
4.580000E+03	5.761885E-16	2.213770E-17
4.590000E+03	5.790330E-16	2.224422E-17
4.600000E+03	5.815105E-16	2.233662E-17
4.610000E+03	5.835789E-16	2.241328E-17
4.620000E+03	5.852085E-16	2.247308E-17
4.630000E+03	5.863684E-16	2.251482E-17
4.640000E+03	5.870187E-16	2.253698E-17
4.650000E+03	5.871512E-16	2.253927E-17
4.660000E+03	5.867658E-16	2.252167E-17
4.670000E+03	5.858410E-16	2.248338E-17
4.680000E+03	5.844099E-16	2.242567E-17
4.690000E+03	5.824699E-16	2.234845E-17
4.700000E+03	5.800567E-16	2.225310E-17
4.710000E+03	5.772076E-16	2.214105E-17
4.720000E+03	5.739667E-16	2.201400E-17
4.730000E+03	5.703780E-16	2.187365E-17
4.740000E+03	5.665050E-16	2.172243E-17
4.750000E+03	5.624015E-16	2.156241E-17
4.760000E+03	5.581313E-16	2.139605E-17
4.770000E+03	5.537532E-16	2.122559E-17
4.780000E+03	5.493464E-16	2.105408E-17
4.790000E+03	5.449747E-16	2.088395E-17
4.800000E+03	5.406873E-16	2.071710E-17
4.810000E+03	5.365551E-16	2.055624E-17
4.820000E+03	5.326316E-16	2.040342E-17
4.830000E+03	5.289643E-16	2.026045E-17
4.840000E+03	5.255951E-16	2.012893E-17
4.850000E+03	5.225644E-16	2.001041E-17
4.860000E+03	5.198994E-16	1.990592E-17
4.870000E+03	5.176257E-16	1.981644E-17
4.880000E+03	5.157548E-16	1.974241E-17
4.890000E+03	5.142912E-16	1.968398E-17
4.900000E+03	5.132371E-16	1.964124E-17
4.910000E+03	5.125820E-16	1.961378E-17
4.920000E+03	5.123029E-16	1.960073E-17
4.930000E+03	5.123943E-16	1.960184E-17
4.940000E+03	5.128160E-16	1.961560E-17
4.950000E+03	5.135416E-16	1.964098E-17
4.960000E+03	5.145413E-16	1.967684E-17
4.970000E+03	5.157775E-16	1.972174E-17
4.980000E+03	5.172116E-16	1.977419E-17
4.990000E+03	5.188060E-16	1.983277E-17
5.000000E+03	5.205241E-16	1.989606E-17
5.010000E+03	5.223378E-16	1.996300E-17
5.020000E+03	5.242229E-16	2.003265E-17
5.030000E+03	5.261420E-16	2.010359E-17
5.040000E+03	5.280862E-16	2.017548E-17
5.050000E+03	5.300402E-16	2.024772E-17
5.060000E+03	5.319889E-16	2.031976E-17
5.070000E+03	5.339340E-16	2.039164E-17
5.080000E+03	5.358829E-16	2.046366E-17
5.090000E+03	5.378304E-16	2.053561E-17
5.100000E+03	5.397987E-16	2.060835E-17
5.110000E+03	5.417965E-16	2.068220E-17
5.120000E+03	5.438468E-16	2.075804E-17
5.130000E+03	5.459685E-16	2.083660E-17
5.140000E+03	5.481761E-16	2.091842E-17
5.150000E+03	5.504961E-16	2.100451E-17
5.160000E+03	5.529548E-16	2.109589E-17
5.170000E+03	5.555598E-16	2.119283E-17
5.180000E+03	5.583346E-16	2.129624E-17
5.190000E+03	5.612951E-16	2.140670E-17
5.200000E+03	5.644543E-16	2.152473E-17
5.210000E+03	5.678289E-16	2.165096E-17
5.220000E+03	5.714140E-16	2.178518E-17
5.230000E+03	5.752257E-16	2.192802E-17
5.240000E+03	5.792582E-16	2.207926E-17
5.250000E+03	5.835083E-16	2.223876E-17
5.260000E+03	5.879748E-16	2.240649E-17
5.270000E+03	5.926340E-16	2.258153E-17
5.280000E+03	5.974829E-16	2.276376E-17
5.290000E+03	6.024955E-16	2.295220E-17
5.300000E+03	6.076536E-16	2.314615E-17
5.310000E+03	6.129164E-16	2.334405E-17
5.320000E+03	6.182628E-16	2.354511E-17
5.330000E+03	6.236493E-16	2.374766E-17
5.340000E+03	6.290335E-16	2.395009E-17
5.350000E+03	6.343686E-16	2.415063E-17
5.360000E+03	6.396042E-16	2.434734E-17
5.370000E+03	6.446856E-16	2.453815E-17
5.380000E+03	6.495615E-16	2.472111E-17
5.390000E+03	6.541576E-16	2.489341E-17
5.400000E+03	6.584244E-16	2.505314E-17
5.410000E+03	6.622842E-16	2.519737E-17
5.420000E+03	6.656860E-16	2.532417E-17
5.430000E+03	6.685601E-16	2.543087E-17
5.440000E+03	6.708388E-16	2.551493E-17
5.450000E+03	6.724789E-16	2.557469E-17
5.460000E+03	6.734223E-16	2.560796E-17
5.470000E+03	6.736181E-16	2.561281E-17
5.480000E+03	6.730444E-16	2.558842E-17
5.490000E+03	6.716688E-16	2.553357E-17
5.500000E+03	6.694709E-16	2.544748E-17
5.510000E+03	6.664563E-16	2.533039E-17
5.520000E+03	6.626437E-16	2.518300E-17
5.530000E+03	6.580527E-16	2.500608E-17
5.540000E+03	6.527298E-16	2.480139E-17
5.550000E+03	6.467159E-16	2.457051E-17
5.560000E+03	6.400905E-16	2.431645E-17
5.570000E+03	6.329254E-16	2.404196E-17
5.580000E+03	6.253095E-16	2.375041E-17
5.590000E+03	6.173451E-16	2.344570E-17
5.600000E+03	6.091292E-16	2.313150E-17
5.610000E+03	6.007743E-16	2.281210E-17
5.620000E+03	5.923827E-16	2.249139E-17
5.630000E+03	5.840627E-16	2.217346E-17
5.640000E+03	5.759253E-16	2.186253E-17
5.650000E+03	5.680659E-16	2.156223E-17
5.660000E+03	5.605797E-16	2.127615E-17
5.670000E+03	5.535545E-16	2.100764E-17
5.680000E+03	5.470694E-16	2.075968E-17
5.690000E+03	5.411994E-16	2.053512E-17
5.700000E+03	5.359931E-16	2.033580E-17
5.710000E+03	5.315097E-16	2.016395E-17
5.720000E+03	5.277757E-16	2.002056E-17
5.730000E+03	5.248218E-16	1.990681E-17
5.740000E+03	5.226614E-16	1.982318E-17
5.750000E+03	5.212910E-16	1.976954E-17
5.760000E+03	5.207048E-16	1.974566E-17
5.770000E+03	5.208753E-16	1.975049E-17
5.780000E+03	5.217732E-16	1.978291E-17
5.790000E+03	5.233430E-16	1.984082E-17
5.800000E+03	5.255387E-16	1.992245E-17
5.810000E+03	5.282900E-16	2.002514E-17
5.820000E+03	5.315173E-16	2.014588E-17
5.830000E+03	5.351448E-16	2.028178E-17
5.840000E+03	5.390860E-16	2.042956E-17
5.850000E+03	5.432453E-16	2.058560E-17
5.860000E+03	5.475309E-16	2.074642E-17
5.870000E+03	5.518511E-16	2.090853E-17
5.880000E+03	5.561117E-16	2.106838E-17
5.890000E+03	5.602391E-16	2.122318E-17
5.900000E+03	5.641446E-16	2.136957E-17
5.910000E+03	5.677591E-16	2.150493E-17
5.920000E+03	5.710230E-16	2.162701E-17
5.930000E+03	5.738876E-16	2.173397E-17
5.940000E+03	5.763163E-16	2.182442E-17
5.950000E+03	5.782784E-16	2.189721E-17
5.960000E+03	5.797611E-16	2.195185E-17
5.970000E+03	5.807684E-16	2.198851E-17
5.980000E+03	5.812982E-16	2.200711E-17
5.990000E+03	5.813748E-16	2.200857E-17
6.000000E+03	5.810253E-16	2.199391E-17
6.010000E+03	5.802722E-16	2.196400E-17
6.020000E+03	5.791660E-16	2.192075E-17
6.030000E+03	5.777441E-16	2.186558E-17
6.040000E+03	5.760522E-16	2.180022E-17
6.050000E+03	5.741372E-16	2.172644E-17
6.060000E+03	5.720399E-16	2.164579E-17
6.070000E+03	5.698170E-16	2.156042E-17
6.080000E+03	5.675057E-16	2.147174E-17
6.090000E+03	5.651410E-16	2.138107E-17
6.100000E+03	5.627698E-16	2.129018E-17
6.110000E+03	5.604244E-16	2.120031E-17
6.120000E+03	5.581270E-16	2.111227E-17
6.130000E+03	5.559110E-16	2.102735E-17
6.140000E+03	5.537941E-16	2.094621E-17
6.150000E+03	5.517836E-16	2.086912E-17
6.160000E+03	5.498982E-16	2.079679E-17
6.170000E+03	5.481359E-16	2.072915E-17
6.180000E+03	5.464900E-16	2.066594E-17
6.190000E+03	5.449503E-16	2.060677E-17
6.200000E+03	5.435189E-16	2.055173E-17
6.210000E+03	5.421734E-16	2.049996E-17
6.220000E+03	5.409108E-16	2.045136E-17
6.230000E+03	5.397104E-16	2.040513E-17
6.240000E+03	5.385565E-16	2.036068E-17
6.250000E+03	5.374233E-16	2.031705E-17
6.260000E+03	5.363074E-16	2.027409E-17
6.270000E+03	5.351853E-16	2.023093E-17
6.280000E+03	5.340507E-16	2.018732E-17
6.290000E+03	5.328929E-16	2.014285E-17
6.300000E+03	5.316971E-16	2.009697E-17
6.310000E+03	5.304554E-16	2.004939E-17
6.320000E+03	5.291714E-16	2.000022E-17
6.330000E+03	5.278342E-16	1.994907E-17
6.340000E+03	5.264396E-16	1.989578E-17
6.350000E+03	5.249892E-16	1.984040E-17
6.360000E+03	5.234808E-16	1.978285E-17
6.370000E+03	5.219129E-16	1.972308E-17
6.380000E+03	5.202903E-16	1.966126E-17
6.390000E+03	5.186080E-16	1.959721E-17
6.400000E+03	5.168781E-16	1.953138E-17
6.410000E+03	5.151030E-16	1.946386E-17
6.420000E+03	5.132810E-16	1.939460E-17
6.430000E+03	5.114222E-16	1.932397E-17
6.440000E+03	5.095379E-16	1.925239E-17
6.450000E+03	5.076299E-16	1.917995E-17
6.460000E+03	5.057065E-16	1.910694E-17
6.470000E+03	5.037764E-16	1.903369E-17
6.480000E+03	5.018540E-16	1.896076E-17
6.490000E+03	4.999431E-16	1.888829E-17
6.500000E+03	4.980515E-16	1.881656E-17
6.510000E+03	4.961966E-16	1.874624E-17
6.520000E+03	4.943829E-16	1.867749E-17
6.530000E+03	4.926124E-16	1.861039E-17
6.540000E+03	4.908946E-16	1.854531E-17
6.550000E+03	4.892254E-16	1.848208E-17
6.560000E+03	4.875968E-16	1.842040E-17
6.570000E+03	4.859980E-16	1.835986E-17
6.580000E+03	4.844201E-16	1.830014E-17
6.590000E+03	4.828521E-16	1.824080E-17
6.600000E+03	4.812703E-16	1.818096E-17
6.610000E+03	4.796558E-16	1.811990E-17
6.620000E+03	4.779995E-16	1.805728E-17
6.630000E+03	4.762778E-16	1.799220E-17
6.640000E+03	4.744792E-16	1.792423E-17
6.650000E+03	4.725895E-16	1.785285E-17
6.660000E+03	4.705928E-16	1.777743E-17
6.670000E+03	4.684924E-16	1.769811E-17
6.680000E+03	4.662805E-16	1.761459E-17
6.690000E+03	4.639641E-16	1.752715E-17
6.700000E+03	4.615499E-16	1.743602E-17
6.710000E+03	4.590491E-16	1.734163E-17
6.720000E+03	4.564772E-16	1.724458E-17
6.730000E+03	4.538540E-16	1.714560E-17
6.740000E+03	4.512031E-16	1.704558E-17
6.750000E+03	4.485559E-16	1.694573E-17
6.760000E+03	4.459421E-16	1.684714E-17
6.770000E+03	4.433930E-16	1.675101E-17
6.780000E+03	4.409362E-16	1.665838E-17
6.790000E+03	4.386156E-16	1.657092E-17
6.800000E+03	4.364552E-16	1.648951E-17
6.810000E+03	4.344985E-16	1.641581E-17
6.820000E+03	4.327681E-16	1.635068E-17
6.830000E+03	4.313050E-16	1.629566E-17
6.840000E+03	4.301379E-16	1.625183E-17
6.850000E+03	4.292826E-16	1.621980E-17
6.860000E+03	4.287715E-16	1.620079E-17
6.870000E+03	4.286179E-16	1.619530E-17
6.880000E+03	4.288407E-16	1.620404E-17
6.890000E+03	4.294435E-16	1.622716E-17
6.900000E+03	4.304298E-16	1.626479E-17
6.910000E+03	4.318025E-16	1.631703E-17
6.920000E+03	4.335482E-16	1.638339E-17
6.930000E+03	4.356587E-16	1.646355E-17
6.940000E+03	4.381095E-16	1.655659E-17
6.950000E+03	4.408766E-16	1.666160E-17
6.960000E+03	4.439369E-16	1.677772E-17
6.970000E+03	4.472532E-16	1.690354E-17
6.980000E+03	4.507914E-16	1.703776E-17
6.990000E+03	4.545159E-16	1.717905E-17
7.000000E+03	4.583909E-16	1.732605E-17
7.010000E+03	4.623819E-16	1.747746E-17
7.020000E+03	4.664561E-16	1.763205E-17
7.030000E+03	4.705840E-16	1.778869E-17
7.040000E+03	4.747399E-16	1.794641E-17
7.050000E+03	4.788958E-16	1.810417E-17
7.060000E+03	4.830401E-16	1.826152E-17
7.070000E+03	4.871535E-16	1.841773E-17
7.080000E+03	4.912259E-16	1.857242E-17
7.090000E+03	4.952570E-16	1.872557E-17
7.100000E+03	4.992302E-16	1.887657E-17
7.110000E+03	5.031485E-16	1.902553E-17
7.120000E+03	5.070095E-16	1.917234E-17
7.130000E+03	5.108035E-16	1.931666E-17
7.140000E+03	5.145261E-16	1.945831E-17
7.150000E+03	5.181697E-16	1.959701E-17
7.160000E+03	5.217244E-16	1.973238E-17
7.170000E+03	5.251700E-16	1.986365E-17
7.180000E+03	5.284958E-16	1.999043E-17
7.190000E+03	5.316675E-16	2.011141E-17
7.200000E+03	5.346738E-16	2.022616E-17
7.210000E+03	5.374671E-16	2.033289E-17
7.220000E+03	5.400305E-16	2.043097E-17
7.230000E+03	5.423258E-16	2.051892E-17
7.240000E+03	5.443203E-16	2.059553E-17
7.250000E+03	5.459750E-16	2.065931E-17
7.260000E+03	5.472524E-16	2.070885E-17
7.270000E+03	5.481370E-16	2.074355E-17
7.280000E+03	5.485904E-16	2.076195E-17
7.290000E+03	5.485847E-16	2.076301E-17
7.300000E+03	5.481175E-16	2.074662E-17
7.310000E+03	5.471585E-16	2.071164E-17
7.320000E+03	5.457171E-16	2.065842E-17
7.330000E+03	5.437821E-16	2.058652E-17
7.340000E+03	5.413692E-16	2.049655E-17
7.350000E+03	5.384864E-16	2.038880E-17
7.360000E+03	5.351481E-16	2.026381E-17
7.370000E+03	5.313933E-16	2.012306E-17
7.380000E+03	5.272329E-16	1.996694E-17
7.390000E+03	5.227142E-16	1.979727E-17
7.400000E+03	5.178620E-16	1.961496E-17
7.410000E+03	5.127285E-16	1.942199E-17
7.420000E+03	5.073484E-16	1.921967E-17
7.430000E+03	5.017639E-16	1.900960E-17
7.440000E+03	4.960167E-16	1.879336E-17
7.450000E+03	4.901486E-16	1.857253E-17
7.460000E+03	4.842064E-16	1.834888E-17
7.470000E+03	4.782179E-16	1.812346E-17
7.480000E+03	4.722331E-16	1.789817E-17
7.490000E+03	4.662770E-16	1.767395E-17
7.500000E+03	4.603959E-16	1.745256E-17
7.510000E+03	4.546115E-16	1.723481E-17
7.520000E+03	4.489665E-16	1.702234E-17
7.530000E+03	4.434850E-16	1.681605E-17
7.540000E+03	4.382011E-16	1.661723E-17
7.550000E+03	4.331369E-16	1.642673E-17
7.560000E+03	4.283295E-16	1.624596E-17
7.570000E+03	4.237924E-16	1.607542E-17
7.580000E+03	4.195578E-16	1.591634E-17
7.590000E+03	4.156438E-16	1.576941E-17
7.600000E+03	4.120600E-16	1.563500E-17
7.610000E+03	4.088231E-16	1.551374E-17
7.620000E+03	4.059454E-16	1.540611E-17
7.630000E+03	4.034252E-16	1.531204E-17
7.640000E+03	4.012614E-16	1.523150E-17
7.650000E+03	3.994487E-16	1.516428E-17
7.660000E+03	3.979877E-16	1.511042E-17
7.670000E+03	3.968537E-16	1.506898E-17
7.680000E+03	3.960331E-16	1.503945E-17
7.690000E+03	3.955029E-16	1.502095E-17
7.700000E+03	3.952408E-16	1.501264E-17
7.710000E+03	3.952054E-16	1.501297E-17
7.720000E+03	3.953729E-16	1.502100E-17
7.730000E+03	3.957004E-16	1.503514E-17
7.740000E+03	3.961489E-16	1.505389E-17
7.750000E+03	3.966825E-16	1.507589E-17
7.760000E+03	3.972548E-16	1.509938E-17
