#wls	flux	fluxerr
1.600000E+03	4.843936E-16	1.973796E-17
1.640000E+03	4.934302E-16	2.010409E-17
1.680000E+03	5.022750E-16	2.046227E-17
1.720000E+03	5.108761E-16	2.081040E-17
1.760000E+03	5.191785E-16	2.114622E-17
1.800000E+03	5.270226E-16	2.146324E-17
1.840000E+03	5.346524E-16	2.177140E-17
1.880000E+03	5.418047E-16	2.205998E-17
1.920000E+03	5.486253E-16	2.233492E-17
1.960000E+03	5.549477E-16	2.258944E-17
2.000000E+03	5.608142E-16	2.282528E-17
2.040000E+03	5.662691E-16	2.304422E-17
2.080000E+03	5.711411E-16	2.323932E-17
2.120000E+03	5.754735E-16	2.341234E-17
2.160000E+03	5.792026E-16	2.356068E-17
2.200000E+03	5.822654E-16	2.368181E-17
2.240000E+03	5.847082E-16	2.377760E-17
2.280000E+03	5.863649E-16	2.384132E-17
2.320000E+03	5.872876E-16	2.387510E-17
2.360000E+03	5.874255E-16	2.387688E-17
2.400000E+03	5.866305E-16	2.384066E-17
2.440000E+03	5.849719E-16	2.376927E-17
2.480000E+03	5.824220E-16	2.366161E-17
2.520000E+03	5.789631E-16	2.351697E-17
2.560000E+03	5.744930E-16	2.333122E-17
2.600000E+03	5.691166E-16	2.310865E-17
2.640000E+03	5.628514E-16	2.284999E-17
2.680000E+03	5.556386E-16	2.255287E-17
2.720000E+03	5.476972E-16	2.222621E-17
2.760000E+03	5.389874E-16	2.186841E-17
2.800000E+03	5.295693E-16	2.148193E-17
2.840000E+03	5.195861E-16	2.107260E-17
2.880000E+03	5.091010E-16	2.064300E-17
2.920000E+03	4.983197E-16	2.020149E-17
2.960000E+03	4.873562E-16	1.975270E-17
3.000000E+03	4.763106E-16	1.930070E-17
3.010000E+03	4.735568E-16	1.918802E-17
3.020000E+03	4.708188E-16	1.907600E-17
3.030000E+03	4.680961E-16	1.896460E-17
3.040000E+03	4.653882E-16	1.885381E-17
3.050000E+03	4.626947E-16	1.874360E-17
3.060000E+03	4.600150E-16	1.863397E-17
3.070000E+03	4.573487E-16	1.852489E-17
3.080000E+03	4.546952E-16	1.841633E-17
3.090000E+03	4.521113E-16	1.831060E-17
3.100000E+03	4.494811E-16	1.820300E-17
3.110000E+03	4.469736E-16	1.810038E-17
3.120000E+03	4.444186E-16	1.799584E-17
3.130000E+03	4.419264E-16	1.789385E-17
3.140000E+03	4.394940E-16	1.779430E-17
3.150000E+03	4.370659E-16	1.769492E-17
3.160000E+03	4.346414E-16	1.759569E-17
3.170000E+03	4.323227E-16	1.750076E-17
3.180000E+03	4.300033E-16	1.740580E-17
3.190000E+03	4.277328E-16	1.731283E-17
3.200000E+03	4.255081E-16	1.722172E-17
3.210000E+03	4.233756E-16	1.713435E-17
3.220000E+03	4.212339E-16	1.704661E-17
3.230000E+03	4.191301E-16	1.696041E-17
3.240000E+03	4.171080E-16	1.687752E-17
3.250000E+03	4.151170E-16	1.679590E-17
3.260000E+03	4.131999E-16	1.671727E-17
3.270000E+03	4.113073E-16	1.663964E-17
3.280000E+03	4.095252E-16	1.656649E-17
3.290000E+03	4.077163E-16	1.649226E-17
3.300000E+03	4.060092E-16	1.642214E-17
3.310000E+03	4.043553E-16	1.635419E-17
3.320000E+03	4.027506E-16	1.628823E-17
3.330000E+03	4.011910E-16	1.622410E-17
3.340000E+03	3.997133E-16	1.616328E-17
3.350000E+03	3.982717E-16	1.610393E-17
3.360000E+03	3.968628E-16	1.604589E-17
3.370000E+03	3.955606E-16	1.599218E-17
3.380000E+03	3.942820E-16	1.593943E-17
3.390000E+03	3.930990E-16	1.589054E-17
3.400000E+03	3.919682E-16	1.584377E-17
3.410000E+03	3.908852E-16	1.579892E-17
3.420000E+03	3.898458E-16	1.575585E-17
3.430000E+03	3.888816E-16	1.571581E-17
3.440000E+03	3.879873E-16	1.567860E-17
3.450000E+03	3.871578E-16	1.564401E-17
3.460000E+03	3.863887E-16	1.561186E-17
3.470000E+03	3.856756E-16	1.558197E-17
3.480000E+03	3.850149E-16	1.555420E-17
3.490000E+03	3.844350E-16	1.552969E-17
3.500000E+03	3.839316E-16	1.550827E-17
3.510000E+03	3.834694E-16	1.548852E-17
3.520000E+03	3.831074E-16	1.547281E-17
3.530000E+03	3.827808E-16	1.545852E-17
3.540000E+03	3.825774E-16	1.544921E-17
3.550000E+03	3.824049E-16	1.544115E-17
3.560000E+03	3.823203E-16	1.543663E-17
3.570000E+03	3.823214E-16	1.543557E-17
3.580000E+03	3.824339E-16	1.543900E-17
3.590000E+03	3.826011E-16	1.544464E-17
3.600000E+03	3.828501E-16	1.545357E-17
3.610000E+03	3.832072E-16	1.546686E-17
3.620000E+03	3.836718E-16	1.548448E-17
3.630000E+03	3.842179E-16	1.550538E-17
3.640000E+03	3.848969E-16	1.553165E-17
3.650000E+03	3.856592E-16	1.556126E-17
3.660000E+03	3.865552E-16	1.559626E-17
3.670000E+03	3.875615E-16	1.563570E-17
3.680000E+03	3.886795E-16	1.567964E-17
3.690000E+03	3.899574E-16	1.573001E-17
3.700000E+03	3.913495E-16	1.578498E-17
3.710000E+03	3.928799E-16	1.584552E-17
3.720000E+03	3.945496E-16	1.591166E-17
3.730000E+03	3.963593E-16	1.598344E-17
3.740000E+03	3.983095E-16	1.606086E-17
3.750000E+03	4.004210E-16	1.614477E-17
3.760000E+03	4.026928E-16	1.623513E-17
3.770000E+03	4.051021E-16	1.633101E-17
3.780000E+03	4.076475E-16	1.643236E-17
3.790000E+03	4.103659E-16	1.654067E-17
3.800000E+03	4.132131E-16	1.665414E-17
3.810000E+03	4.162231E-16	1.677415E-17
3.820000E+03	4.193503E-16	1.689887E-17
3.830000E+03	4.226258E-16	1.702953E-17
3.840000E+03	4.260212E-16	1.716501E-17
3.850000E+03	4.295261E-16	1.730486E-17
3.860000E+03	4.331290E-16	1.744865E-17
3.870000E+03	4.368350E-16	1.759655E-17
3.880000E+03	4.406112E-16	1.774726E-17
3.890000E+03	4.444421E-16	1.790014E-17
3.900000E+03	4.483282E-16	1.805522E-17
3.910000E+03	4.522339E-16	1.821106E-17
3.920000E+03	4.561570E-16	1.836757E-17
3.930000E+03	4.600434E-16	1.852257E-17
3.940000E+03	4.639232E-16	1.867728E-17
3.950000E+03	4.677249E-16	1.882882E-17
3.960000E+03	4.714443E-16	1.897701E-17
3.970000E+03	4.750763E-16	1.912166E-17
3.980000E+03	4.785839E-16	1.926128E-17
3.990000E+03	4.819314E-16	1.939442E-17
4.000000E+03	4.851312E-16	1.952160E-17
4.010000E+03	4.881349E-16	1.964086E-17
4.020000E+03	4.909415E-16	1.975217E-17
4.030000E+03	4.935227E-16	1.985438E-17
4.040000E+03	4.958813E-16	1.994762E-17
4.050000E+03	4.979937E-16	2.003094E-17
4.060000E+03	4.998535E-16	2.010409E-17
4.070000E+03	5.014436E-16	2.016637E-17
4.080000E+03	5.027778E-16	2.021834E-17
4.090000E+03	5.038585E-16	2.026011E-17
4.100000E+03	5.046648E-16	2.029084E-17
4.110000E+03	5.052325E-16	2.031197E-17
4.120000E+03	5.055348E-16	2.032242E-17
4.130000E+03	5.056127E-16	2.032384E-17
4.140000E+03	5.054832E-16	2.031693E-17
4.150000E+03	5.051302E-16	2.030103E-17
4.160000E+03	5.046006E-16	2.027803E-17
4.170000E+03	5.039068E-16	2.024844E-17
4.180000E+03	5.030640E-16	2.021286E-17
4.190000E+03	5.021110E-16	2.017285E-17
4.200000E+03	5.010544E-16	2.012869E-17
4.210000E+03	4.999348E-16	2.008201E-17
4.220000E+03	4.987611E-16	2.003315E-17
4.230000E+03	4.975741E-16	1.998377E-17
4.240000E+03	4.963939E-16	1.993466E-17
4.250000E+03	4.952505E-16	1.988704E-17
4.260000E+03	4.941534E-16	1.984128E-17
4.270000E+03	4.931415E-16	1.979895E-17
4.280000E+03	4.922329E-16	1.976077E-17
4.290000E+03	4.914450E-16	1.972744E-17
4.300000E+03	4.908032E-16	1.969998E-17
4.310000E+03	4.903224E-16	1.967898E-17
4.320000E+03	4.900248E-16	1.966533E-17
4.330000E+03	4.899223E-16	1.965952E-17
4.340000E+03	4.900248E-16	1.966193E-17
4.350000E+03	4.903576E-16	1.967357E-17
4.360000E+03	4.909095E-16	1.969401E-17
4.370000E+03	4.917096E-16	1.972439E-17
4.380000E+03	4.927506E-16	1.976443E-17
4.390000E+03	4.940317E-16	1.981409E-17
4.400000E+03	4.955651E-16	1.987386E-17
4.410000E+03	4.973282E-16	1.994283E-17
4.420000E+03	4.993354E-16	2.002157E-17
4.430000E+03	5.015658E-16	2.010924E-17
4.440000E+03	5.040114E-16	2.020553E-17
4.450000E+03	5.066449E-16	2.030933E-17
4.460000E+03	5.094592E-16	2.042036E-17
4.470000E+03	5.124354E-16	2.053786E-17
4.480000E+03	5.155437E-16	2.066062E-17
4.490000E+03	5.187585E-16	2.078764E-17
4.500000E+03	5.220583E-16	2.091803E-17
4.510000E+03	5.254035E-16	2.105023E-17
4.520000E+03	5.287595E-16	2.118282E-17
4.530000E+03	5.320890E-16	2.131434E-17
4.540000E+03	5.353528E-16	2.144320E-17
4.550000E+03	5.385108E-16	2.156780E-17
4.560000E+03	5.415218E-16	2.168649E-17
4.570000E+03	5.443449E-16	2.179763E-17
4.580000E+03	5.469398E-16	2.189962E-17
4.590000E+03	5.492681E-16	2.199092E-17
4.600000E+03	5.512941E-16	2.207010E-17
4.610000E+03	5.529848E-16	2.213584E-17
4.620000E+03	5.543122E-16	2.218703E-17
4.630000E+03	5.552597E-16	2.222300E-17
4.640000E+03	5.557950E-16	2.224248E-17
4.650000E+03	5.559208E-16	2.224556E-17
4.660000E+03	5.556174E-16	2.223147E-17
4.670000E+03	5.549005E-16	2.220084E-17
4.680000E+03	5.537646E-16	2.215346E-17
4.690000E+03	5.522247E-16	2.208992E-17
4.700000E+03	5.503095E-16	2.201138E-17
4.710000E+03	5.480398E-16	2.191868E-17
4.720000E+03	5.454487E-16	2.181315E-17
4.730000E+03	5.425675E-16	2.169603E-17
4.740000E+03	5.394382E-16	2.156902E-17
4.750000E+03	5.361058E-16	2.143391E-17
4.760000E+03	5.326047E-16	2.129208E-17
4.770000E+03	5.289835E-16	2.114547E-17
4.780000E+03	5.252911E-16	2.099605E-17
4.790000E+03	5.215693E-16	2.084548E-17
4.800000E+03	5.178827E-16	2.069634E-17
4.810000E+03	5.142686E-16	2.055013E-17
4.820000E+03	5.107730E-16	2.040868E-17
4.830000E+03	5.074498E-16	2.027415E-17
4.840000E+03	5.043185E-16	2.014730E-17
4.850000E+03	5.014176E-16	2.002969E-17
4.860000E+03	4.987746E-16	1.992240E-17
4.870000E+03	4.964117E-16	1.982632E-17
4.880000E+03	4.943348E-16	1.974167E-17
4.890000E+03	4.925670E-16	1.966938E-17
4.900000E+03	4.910987E-16	1.960907E-17
4.910000E+03	4.899326E-16	1.956084E-17
4.920000E+03	4.890725E-16	1.952484E-17
4.930000E+03	4.885018E-16	1.950039E-17
4.940000E+03	4.882118E-16	1.948716E-17
4.950000E+03	4.881799E-16	1.948423E-17
4.960000E+03	4.884034E-16	1.949150E-17
4.970000E+03	4.888453E-16	1.950748E-17
4.980000E+03	4.895005E-16	1.953198E-17
4.990000E+03	4.903417E-16	1.956390E-17
5.000000E+03	4.913482E-16	1.960241E-17
5.010000E+03	4.925052E-16	1.964691E-17
5.020000E+03	4.937890E-16	1.969647E-17
5.030000E+03	4.951941E-16	1.975087E-17
5.040000E+03	4.966959E-16	1.980912E-17
5.050000E+03	4.982945E-16	1.987122E-17
5.060000E+03	4.999710E-16	1.993642E-17
5.070000E+03	5.017312E-16	2.000495E-17
5.080000E+03	5.035731E-16	2.007673E-17
5.090000E+03	5.054922E-16	2.015158E-17
5.100000E+03	5.074971E-16	2.022984E-17
5.110000E+03	5.095934E-16	2.031173E-17
5.120000E+03	5.117831E-16	2.039734E-17
5.130000E+03	5.140803E-16	2.048722E-17
5.140000E+03	5.164950E-16	2.058177E-17
5.150000E+03	5.190373E-16	2.068140E-17
5.160000E+03	5.217120E-16	2.078629E-17
5.170000E+03	5.245400E-16	2.089728E-17
5.180000E+03	5.275193E-16	2.101428E-17
5.190000E+03	5.306690E-16	2.113806E-17
5.200000E+03	5.339892E-16	2.126861E-17
5.210000E+03	5.374789E-16	2.140589E-17
5.220000E+03	5.411452E-16	2.155020E-17
5.230000E+03	5.449934E-16	2.170173E-17
5.240000E+03	5.490085E-16	2.185988E-17
5.250000E+03	5.531953E-16	2.202486E-17
5.260000E+03	5.575326E-16	2.219580E-17
5.270000E+03	5.620127E-16	2.237241E-17
5.280000E+03	5.666188E-16	2.255402E-17
5.290000E+03	5.713244E-16	2.273956E-17
5.300000E+03	5.761171E-16	2.292855E-17
5.310000E+03	5.809570E-16	2.311939E-17
5.320000E+03	5.858118E-16	2.331081E-17
5.330000E+03	5.906582E-16	2.350187E-17
5.340000E+03	5.954448E-16	2.369053E-17
5.350000E+03	6.001292E-16	2.387510E-17
5.360000E+03	6.046720E-16	2.405402E-17
5.370000E+03	6.090250E-16	2.422537E-17
5.380000E+03	6.131258E-16	2.438668E-17
5.390000E+03	6.169355E-16	2.453639E-17
5.400000E+03	6.203959E-16	2.467220E-17
5.410000E+03	6.234551E-16	2.479204E-17
5.420000E+03	6.260628E-16	2.489393E-17
5.430000E+03	6.281706E-16	2.497593E-17
5.440000E+03	6.297336E-16	2.503627E-17
5.450000E+03	6.307113E-16	2.507334E-17
5.460000E+03	6.310689E-16	2.508576E-17
5.470000E+03	6.307720E-16	2.507218E-17
5.480000E+03	6.298003E-16	2.503179E-17
5.490000E+03	6.281549E-16	2.496464E-17
5.500000E+03	6.258209E-16	2.487015E-17
5.510000E+03	6.228120E-16	2.474886E-17
5.520000E+03	6.191461E-16	2.460149E-17
5.530000E+03	6.148633E-16	2.442963E-17
5.540000E+03	6.099950E-16	2.423455E-17
5.550000E+03	6.045882E-16	2.401812E-17
5.560000E+03	5.986926E-16	2.378230E-17
5.570000E+03	5.923715E-16	2.352963E-17
5.580000E+03	5.857005E-16	2.326310E-17
5.590000E+03	5.787424E-16	2.298522E-17
5.600000E+03	5.715820E-16	2.269934E-17
5.610000E+03	5.643047E-16	2.240888E-17
5.620000E+03	5.569804E-16	2.211659E-17
5.630000E+03	5.497002E-16	2.182610E-17
5.640000E+03	5.425308E-16	2.154006E-17
5.650000E+03	5.355519E-16	2.126162E-17
5.660000E+03	5.288329E-16	2.099354E-17
5.670000E+03	5.224380E-16	2.073838E-17
5.680000E+03	5.164245E-16	2.049840E-17
5.690000E+03	5.108385E-16	2.027542E-17
5.700000E+03	5.057284E-16	2.007136E-17
5.710000E+03	5.011298E-16	1.988764E-17
5.720000E+03	4.970656E-16	1.972516E-17
5.730000E+03	4.935561E-16	1.958472E-17
5.740000E+03	4.906181E-16	1.946697E-17
5.750000E+03	4.882510E-16	1.937191E-17
5.760000E+03	4.864515E-16	1.929938E-17
5.770000E+03	4.852043E-16	1.924878E-17
5.780000E+03	4.845010E-16	1.921977E-17
5.790000E+03	4.843077E-16	1.921101E-17
5.800000E+03	4.845986E-16	1.922146E-17
5.810000E+03	4.853324E-16	1.924948E-17
5.820000E+03	4.864677E-16	1.929344E-17
5.830000E+03	4.879632E-16	1.935169E-17
5.840000E+03	4.897600E-16	1.942188E-17
5.850000E+03	4.918101E-16	1.950213E-17
5.860000E+03	4.940546E-16	1.959008E-17
5.870000E+03	4.964426E-16	1.968373E-17
5.880000E+03	4.989190E-16	1.978088E-17
5.890000E+03	5.014196E-16	1.987899E-17
5.900000E+03	5.038971E-16	1.997619E-17
5.910000E+03	5.062972E-16	2.007032E-17
5.920000E+03	5.085842E-16	2.015997E-17
5.930000E+03	5.107030E-16	2.024295E-17
5.940000E+03	5.126277E-16	2.031825E-17
5.950000E+03	5.143195E-16	2.038431E-17
5.960000E+03	5.157649E-16	2.044062E-17
5.970000E+03	5.169377E-16	2.048613E-17
5.980000E+03	5.178277E-16	2.052045E-17
5.990000E+03	5.184362E-16	2.054362E-17
6.000000E+03	5.187658E-16	2.055575E-17
6.010000E+03	5.188147E-16	2.055677E-17
6.020000E+03	5.186060E-16	2.054759E-17
6.030000E+03	5.181475E-16	2.052853E-17
6.040000E+03	5.174706E-16	2.050084E-17
6.050000E+03	5.165896E-16	2.046507E-17
6.060000E+03	5.155359E-16	2.042248E-17
6.070000E+03	5.143375E-16	2.037418E-17
6.080000E+03	5.130276E-16	2.032147E-17
6.090000E+03	5.116245E-16	2.026510E-17
6.100000E+03	5.101606E-16	2.020633E-17
6.110000E+03	5.086620E-16	2.014621E-17
6.120000E+03	5.071575E-16	2.008587E-17
6.130000E+03	5.056688E-16	2.002618E-17
6.140000E+03	5.042145E-16	1.996787E-17
6.150000E+03	5.028205E-16	1.991197E-17
6.160000E+03	5.014992E-16	1.985896E-17
6.170000E+03	5.002695E-16	1.980960E-17
6.180000E+03	4.991422E-16	1.976432E-17
6.190000E+03	4.981296E-16	1.972359E-17
6.200000E+03	4.972116E-16	1.968663E-17
6.210000E+03	4.963848E-16	1.965330E-17
6.220000E+03	4.956335E-16	1.962297E-17
6.230000E+03	4.949442E-16	1.959511E-17
6.240000E+03	4.943071E-16	1.956934E-17
6.250000E+03	4.937112E-16	1.954521E-17
6.260000E+03	4.931447E-16	1.952227E-17
6.270000E+03	4.925908E-16	1.949984E-17
6.280000E+03	4.920364E-16	1.947741E-17
6.290000E+03	4.914785E-16	1.945485E-17
6.300000E+03	4.908940E-16	1.943125E-17
6.310000E+03	4.902753E-16	1.940632E-17
6.320000E+03	4.896098E-16	1.937955E-17
6.330000E+03	4.888859E-16	1.935048E-17
6.340000E+03	4.880979E-16	1.931890E-17
6.350000E+03	4.872314E-16	1.928422E-17
6.360000E+03	4.862829E-16	1.924631E-17
6.370000E+03	4.852506E-16	1.920510E-17
6.380000E+03	4.841189E-16	1.915997E-17
6.390000E+03	4.828938E-16	1.911115E-17
6.400000E+03	4.815679E-16	1.905837E-17
6.410000E+03	4.801400E-16	1.900156E-17
6.420000E+03	4.786201E-16	1.894113E-17
6.430000E+03	4.769955E-16	1.887656E-17
6.440000E+03	4.752836E-16	1.880856E-17
6.450000E+03	4.734785E-16	1.873688E-17
6.460000E+03	4.715898E-16	1.866191E-17
6.470000E+03	4.696182E-16	1.858367E-17
6.480000E+03	4.675744E-16	1.850259E-17
6.490000E+03	4.654594E-16	1.841871E-17
6.500000E+03	4.632843E-16	1.833246E-17
6.510000E+03	4.610498E-16	1.824388E-17
6.520000E+03	4.587705E-16	1.815353E-17
6.530000E+03	4.564461E-16	1.806142E-17
6.540000E+03	4.540942E-16	1.796823E-17
6.550000E+03	4.517126E-16	1.787388E-17
6.560000E+03	4.493074E-16	1.777860E-17
6.570000E+03	4.468785E-16	1.768240E-17
6.580000E+03	4.444348E-16	1.758563E-17
6.590000E+03	4.419749E-16	1.748823E-17
6.600000E+03	4.394918E-16	1.738992E-17
6.610000E+03	4.369926E-16	1.729098E-17
6.620000E+03	4.344745E-16	1.719131E-17
6.630000E+03	4.319356E-16	1.709083E-17
6.640000E+03	4.293787E-16	1.698965E-17
6.650000E+03	4.268036E-16	1.688776E-17
6.660000E+03	4.242061E-16	1.678499E-17
6.670000E+03	4.215976E-16	1.668180E-17
6.680000E+03	4.189777E-16	1.657816E-17
6.690000E+03	4.163568E-16	1.647450E-17
6.700000E+03	4.137381E-16	1.637093E-17
6.710000E+03	4.111366E-16	1.626805E-17
6.720000E+03	4.085640E-16	1.616633E-17
6.730000E+03	4.060343E-16	1.606631E-17
6.740000E+03	4.035633E-16	1.596862E-17
6.750000E+03	4.011681E-16	1.587395E-17
6.760000E+03	3.988672E-16	1.578301E-17
6.770000E+03	3.966848E-16	1.569677E-17
6.780000E+03	3.946362E-16	1.561583E-17
6.790000E+03	3.927422E-16	1.554102E-17
6.800000E+03	3.910273E-16	1.547330E-17
6.810000E+03	3.895072E-16	1.541331E-17
6.820000E+03	3.882055E-16	1.536196E-17
6.830000E+03	3.871357E-16	1.531979E-17
6.840000E+03	3.863187E-16	1.528764E-17
6.850000E+03	3.857651E-16	1.526592E-17
6.860000E+03	3.854917E-16	1.525530E-17
6.870000E+03	3.855088E-16	1.525619E-17
6.880000E+03	3.858155E-16	1.526855E-17
6.890000E+03	3.864298E-16	1.529308E-17
6.900000E+03	3.873451E-16	1.532955E-17
6.910000E+03	3.885604E-16	1.537789E-17
6.920000E+03	3.900763E-16	1.543815E-17
6.930000E+03	3.918862E-16	1.551005E-17
6.940000E+03	3.939711E-16	1.559285E-17
6.950000E+03	3.963331E-16	1.568663E-17
6.960000E+03	3.989433E-16	1.579025E-17
6.970000E+03	4.017949E-16	1.590343E-17
6.980000E+03	4.048648E-16	1.602528E-17
6.990000E+03	4.081339E-16	1.615502E-17
7.000000E+03	4.115818E-16	1.629186E-17
7.010000E+03	4.151880E-16	1.643498E-17
7.020000E+03	4.189323E-16	1.658358E-17
7.030000E+03	4.227945E-16	1.673687E-17
7.040000E+03	4.267505E-16	1.689389E-17
7.050000E+03	4.307920E-16	1.705432E-17
7.060000E+03	4.348866E-16	1.721687E-17
7.070000E+03	4.390284E-16	1.738131E-17
7.080000E+03	4.432024E-16	1.754704E-17
7.090000E+03	4.473836E-16	1.771308E-17
7.100000E+03	4.515692E-16	1.787932E-17
7.110000E+03	4.557348E-16	1.804478E-17
7.120000E+03	4.598724E-16	1.820916E-17
7.130000E+03	4.639620E-16	1.837167E-17
7.140000E+03	4.679944E-16	1.853193E-17
7.150000E+03	4.719530E-16	1.868929E-17
7.160000E+03	4.758083E-16	1.884259E-17
7.170000E+03	4.795461E-16	1.899126E-17
7.180000E+03	4.831444E-16	1.913442E-17
7.190000E+03	4.865733E-16	1.927090E-17
7.200000E+03	4.898129E-16	1.939991E-17
7.210000E+03	4.928297E-16	1.952012E-17
7.220000E+03	4.955889E-16	1.963015E-17
7.230000E+03	4.980730E-16	1.972930E-17
7.240000E+03	5.002402E-16	1.981593E-17
7.250000E+03	5.020676E-16	1.988912E-17
7.260000E+03	5.035211E-16	1.994751E-17
7.270000E+03	5.045752E-16	1.999010E-17
7.280000E+03	5.052008E-16	2.001574E-17
7.290000E+03	5.053913E-16	2.002415E-17
7.300000E+03	5.051195E-16	2.001427E-17
7.310000E+03	5.043818E-16	1.998593E-17
7.320000E+03	5.031674E-16	1.993873E-17
7.330000E+03	5.014775E-16	1.987269E-17
7.340000E+03	4.993193E-16	1.978810E-17
7.350000E+03	4.967057E-16	1.968547E-17
7.360000E+03	4.936549E-16	1.956552E-17
7.370000E+03	4.901909E-16	1.942920E-17
7.380000E+03	4.863422E-16	1.927764E-17
7.390000E+03	4.821415E-16	1.911212E-17
7.400000E+03	4.776195E-16	1.893386E-17
7.410000E+03	4.728214E-16	1.874466E-17
7.420000E+03	4.677832E-16	1.854593E-17
7.430000E+03	4.625538E-16	1.833962E-17
7.440000E+03	4.571769E-16	1.812745E-17
7.450000E+03	4.516965E-16	1.791117E-17
7.460000E+03	4.461449E-16	1.769206E-17
7.470000E+03	4.405814E-16	1.747247E-17
7.480000E+03	4.350357E-16	1.725357E-17
7.490000E+03	4.295466E-16	1.703691E-17
7.500000E+03	4.241511E-16	1.682395E-17
7.510000E+03	4.188884E-16	1.661625E-17
7.520000E+03	4.137896E-16	1.641504E-17
7.530000E+03	4.088730E-16	1.622104E-17
7.540000E+03	4.041743E-16	1.603568E-17
7.550000E+03	3.997167E-16	1.585988E-17
7.560000E+03	3.955099E-16	1.569402E-17
7.570000E+03	3.915812E-16	1.553918E-17
7.580000E+03	3.879439E-16	1.539590E-17
7.590000E+03	3.846033E-16	1.526439E-17
7.600000E+03	3.815661E-16	1.514492E-17
7.610000E+03	3.788404E-16	1.503780E-17
7.620000E+03	3.764261E-16	1.494304E-17
7.630000E+03	3.743150E-16	1.486032E-17
7.640000E+03	3.725049E-16	1.478955E-17
7.650000E+03	3.709811E-16	1.473014E-17
7.660000E+03	3.697401E-16	1.468197E-17
7.670000E+03	3.687561E-16	1.464400E-17
7.680000E+03	3.680196E-16	1.461587E-17
7.690000E+03	3.674991E-16	1.459632E-17
7.700000E+03	3.671799E-16	1.458478E-17
7.710000E+03	3.670304E-16	1.457999E-17
7.720000E+03	3.670221E-16	1.458081E-17
7.730000E+03	3.671244E-16	1.458604E-17
7.740000E+03	3.673107E-16	1.459461E-17
7.750000E+03	3.675434E-16	1.460504E-17
7.760000E+03	3.677943E-16	1.461620E-17
