#wls	flux	fluxerr
1.600000E+03	3.626923E-16	8.897101E-18
1.640000E+03	3.703879E-16	9.084806E-18
1.680000E+03	3.780308E-16	9.271146E-18
1.720000E+03	3.855159E-16	9.453540E-18
1.760000E+03	3.929570E-16	9.634779E-18
1.800000E+03	4.002461E-16	9.812214E-18
1.840000E+03	4.073464E-16	9.984939E-18
1.880000E+03	4.142980E-16	1.015394E-17
1.920000E+03	4.209838E-16	1.031634E-17
1.960000E+03	4.274431E-16	1.047311E-17
2.000000E+03	4.337177E-16	1.062528E-17
2.040000E+03	4.396029E-16	1.076781E-17
2.080000E+03	4.453042E-16	1.090576E-17
2.120000E+03	4.506139E-16	1.103404E-17
2.160000E+03	4.555722E-16	1.115362E-17
2.200000E+03	4.602204E-16	1.126553E-17
2.240000E+03	4.644312E-16	1.136665E-17
2.280000E+03	4.682450E-16	1.145798E-17
2.320000E+03	4.716187E-16	1.153845E-17
2.360000E+03	4.745923E-16	1.160906E-17
2.400000E+03	4.771215E-16	1.166873E-17
2.440000E+03	4.791619E-16	1.171637E-17
2.480000E+03	4.807516E-16	1.175292E-17
2.520000E+03	4.818446E-16	1.177726E-17
2.560000E+03	4.824750E-16	1.179023E-17
2.600000E+03	4.825944E-16	1.179065E-17
2.640000E+03	4.823081E-16	1.178111E-17
2.680000E+03	4.814846E-16	1.175840E-17
2.720000E+03	4.802920E-16	1.172662E-17
2.760000E+03	4.785918E-16	1.168242E-17
2.800000E+03	4.765307E-16	1.162937E-17
2.840000E+03	4.739623E-16	1.156390E-17
2.880000E+03	4.710744E-16	1.149062E-17
2.920000E+03	4.677697E-16	1.140714E-17
2.960000E+03	4.641331E-16	1.131556E-17
3.000000E+03	4.601660E-16	1.121591E-17
3.010000E+03	4.591256E-16	1.118981E-17
3.020000E+03	4.580332E-16	1.116245E-17
3.030000E+03	4.569436E-16	1.113515E-17
3.040000E+03	4.558539E-16	1.110785E-17
3.050000E+03	4.547061E-16	1.107913E-17
3.060000E+03	4.535534E-16	1.105030E-17
3.070000E+03	4.523391E-16	1.101996E-17
3.080000E+03	4.511687E-16	1.099069E-17
3.090000E+03	4.499320E-16	1.095981E-17
3.100000E+03	4.487322E-16	1.092983E-17
3.110000E+03	4.474620E-16	1.089814E-17
3.120000E+03	4.461711E-16	1.086594E-17
3.130000E+03	4.449070E-16	1.083439E-17
3.140000E+03	4.435664E-16	1.080098E-17
3.150000E+03	4.422459E-16	1.076807E-17
3.160000E+03	4.408934E-16	1.073437E-17
3.170000E+03	4.395536E-16	1.070099E-17
3.180000E+03	4.381288E-16	1.066553E-17
3.190000E+03	4.367109E-16	1.063025E-17
3.200000E+03	4.352958E-16	1.059503E-17
3.210000E+03	4.338348E-16	1.055871E-17
3.220000E+03	4.323699E-16	1.052228E-17
3.230000E+03	4.308975E-16	1.048568E-17
3.240000E+03	4.293709E-16	1.044776E-17
3.250000E+03	4.278731E-16	1.041054E-17
3.260000E+03	4.263154E-16	1.037187E-17
3.270000E+03	4.247374E-16	1.033270E-17
3.280000E+03	4.231763E-16	1.029395E-17
3.290000E+03	4.215875E-16	1.025452E-17
3.300000E+03	4.199680E-16	1.021436E-17
3.310000E+03	4.183154E-16	1.017339E-17
3.320000E+03	4.166647E-16	1.013247E-17
3.330000E+03	4.149747E-16	1.009059E-17
3.340000E+03	4.132796E-16	1.004860E-17
3.350000E+03	4.115759E-16	1.000640E-17
3.360000E+03	4.098599E-16	9.963900E-18
3.370000E+03	4.081284E-16	9.921029E-18
3.380000E+03	4.063444E-16	9.876885E-18
3.390000E+03	4.045736E-16	9.833067E-18
3.400000E+03	4.028121E-16	9.789477E-18
3.410000E+03	4.009916E-16	9.744457E-18
3.420000E+03	3.991753E-16	9.699543E-18
3.430000E+03	3.973601E-16	9.654659E-18
3.440000E+03	3.955128E-16	9.609001E-18
3.450000E+03	3.936925E-16	9.564000E-18
3.460000E+03	3.918363E-16	9.518134E-18
3.470000E+03	3.900013E-16	9.472784E-18
3.480000E+03	3.881276E-16	9.426500E-18
3.490000E+03	3.862702E-16	9.380617E-18
3.500000E+03	3.844263E-16	9.335064E-18
3.510000E+03	3.825666E-16	9.289134E-18
3.520000E+03	3.807170E-16	9.243450E-18
3.530000E+03	3.788757E-16	9.197977E-18
3.540000E+03	3.770425E-16	9.152701E-18
3.550000E+03	3.752170E-16	9.107618E-18
3.560000E+03	3.734001E-16	9.062748E-18
3.570000E+03	3.716165E-16	9.018690E-18
3.580000E+03	3.698666E-16	8.975457E-18
3.590000E+03	3.681300E-16	8.932548E-18
3.600000E+03	3.664537E-16	8.891106E-18
3.610000E+03	3.647969E-16	8.850144E-18
3.620000E+03	3.632070E-16	8.810806E-18
3.630000E+03	3.616672E-16	8.772689E-18
3.640000E+03	3.601835E-16	8.735937E-18
3.650000E+03	3.587828E-16	8.701200E-18
3.660000E+03	3.574908E-16	8.669102E-18
3.670000E+03	3.562762E-16	8.638885E-18
3.680000E+03	3.551672E-16	8.611228E-18
3.690000E+03	3.541906E-16	8.586786E-18
3.700000E+03	3.533378E-16	8.565345E-18
3.710000E+03	3.526369E-16	8.547586E-18
3.720000E+03	3.520813E-16	8.533350E-18
3.730000E+03	3.517163E-16	8.523733E-18
3.740000E+03	3.515201E-16	8.518206E-18
3.750000E+03	3.515379E-16	8.517861E-18
3.760000E+03	3.517808E-16	8.522967E-18
3.770000E+03	3.522443E-16	8.533414E-18
3.780000E+03	3.529396E-16	8.549471E-18
3.790000E+03	3.539060E-16	8.572090E-18
3.800000E+03	3.551202E-16	8.600704E-18
3.810000E+03	3.566168E-16	8.636146E-18
3.820000E+03	3.583824E-16	8.678093E-18
3.830000E+03	3.604157E-16	8.726512E-18
3.840000E+03	3.627119E-16	8.781283E-18
3.850000E+03	3.652896E-16	8.842857E-18
3.860000E+03	3.681076E-16	8.910233E-18
3.870000E+03	3.711490E-16	8.982999E-18
3.880000E+03	3.744195E-16	9.061294E-18
3.890000E+03	3.778684E-16	9.143886E-18
3.900000E+03	3.814950E-16	9.230763E-18
3.910000E+03	3.852571E-16	9.320896E-18
3.920000E+03	3.891111E-16	9.413231E-18
3.930000E+03	3.930501E-16	9.507605E-18
3.940000E+03	3.970282E-16	9.602900E-18
3.950000E+03	4.010108E-16	9.698285E-18
3.960000E+03	4.049758E-16	9.793220E-18
3.970000E+03	4.088632E-16	9.886259E-18
3.980000E+03	4.126627E-16	9.977152E-18
3.990000E+03	4.163269E-16	1.006475E-17
4.000000E+03	4.198095E-16	1.014795E-17
4.010000E+03	4.231006E-16	1.022649E-17
4.020000E+03	4.261441E-16	1.029903E-17
4.030000E+03	4.289217E-16	1.036513E-17
4.040000E+03	4.314061E-16	1.042412E-17
4.050000E+03	4.335521E-16	1.047493E-17
4.060000E+03	4.353636E-16	1.051764E-17
4.070000E+03	4.368168E-16	1.055169E-17
4.080000E+03	4.379041E-16	1.057689E-17
4.090000E+03	4.386134E-16	1.059295E-17
4.100000E+03	4.389489E-16	1.059997E-17
4.110000E+03	4.389197E-16	1.059819E-17
4.120000E+03	4.385309E-16	1.058773E-17
4.130000E+03	4.378120E-16	1.056929E-17
4.140000E+03	4.367680E-16	1.054301E-17
4.150000E+03	4.354288E-16	1.050960E-17
4.160000E+03	4.338368E-16	1.047010E-17
4.170000E+03	4.320019E-16	1.042474E-17
4.180000E+03	4.299820E-16	1.037493E-17
4.190000E+03	4.277926E-16	1.032103E-17
4.200000E+03	4.254937E-16	1.026450E-17
4.210000E+03	4.231104E-16	1.020595E-17
4.220000E+03	4.206760E-16	1.014617E-17
4.230000E+03	4.182298E-16	1.008612E-17
4.240000E+03	4.158010E-16	1.002649E-17
4.250000E+03	4.134232E-16	9.968109E-18
4.260000E+03	4.111126E-16	9.911358E-18
4.270000E+03	4.089052E-16	9.857102E-18
4.280000E+03	4.068123E-16	9.805617E-18
4.290000E+03	4.048512E-16	9.757316E-18
4.300000E+03	4.030446E-16	9.712746E-18
4.310000E+03	4.014004E-16	9.672097E-18
4.320000E+03	3.999398E-16	9.635880E-18
4.330000E+03	3.986770E-16	9.604431E-18
4.340000E+03	3.976259E-16	9.578088E-18
4.350000E+03	3.968008E-16	9.557193E-18
4.360000E+03	3.962166E-16	9.542101E-18
4.370000E+03	3.958943E-16	9.533317E-18
4.380000E+03	3.958368E-16	9.530910E-18
4.390000E+03	3.960707E-16	9.535519E-18
4.400000E+03	3.966096E-16	9.547465E-18
4.410000E+03	3.974599E-16	9.566902E-18
4.420000E+03	3.986434E-16	9.594355E-18
4.430000E+03	4.001680E-16	9.630007E-18
4.440000E+03	4.020324E-16	9.673827E-18
4.450000E+03	4.042487E-16	9.726103E-18
4.460000E+03	4.068185E-16	9.786869E-18
4.470000E+03	4.097263E-16	9.855752E-18
4.480000E+03	4.129610E-16	9.932483E-18
4.490000E+03	4.164991E-16	1.001649E-17
4.500000E+03	4.203145E-16	1.010715E-17
4.510000E+03	4.243736E-16	1.020364E-17
4.520000E+03	4.286351E-16	1.030498E-17
4.530000E+03	4.330445E-16	1.040985E-17
4.540000E+03	4.375447E-16	1.051688E-17
4.550000E+03	4.420828E-16	1.062480E-17
4.560000E+03	4.465758E-16	1.073160E-17
4.570000E+03	4.509567E-16	1.083569E-17
4.580000E+03	4.551358E-16	1.093491E-17
4.590000E+03	4.590371E-16	1.102743E-17
4.600000E+03	4.625604E-16	1.111085E-17
4.610000E+03	4.656303E-16	1.118336E-17
4.620000E+03	4.681652E-16	1.124301E-17
4.630000E+03	4.700983E-16	1.128819E-17
4.640000E+03	4.713690E-16	1.131746E-17
4.650000E+03	4.719327E-16	1.132975E-17
4.660000E+03	4.717680E-16	1.132454E-17
4.670000E+03	4.708732E-16	1.130182E-17
4.680000E+03	4.692607E-16	1.126188E-17
4.690000E+03	4.669675E-16	1.120561E-17
4.700000E+03	4.640479E-16	1.113432E-17
4.710000E+03	4.605716E-16	1.104969E-17
4.720000E+03	4.566203E-16	1.095369E-17
4.730000E+03	4.522792E-16	1.084836E-17
4.740000E+03	4.476452E-16	1.073602E-17
4.750000E+03	4.428276E-16	1.061931E-17
4.760000E+03	4.379246E-16	1.050058E-17
4.770000E+03	4.330264E-16	1.038199E-17
4.780000E+03	4.282286E-16	1.026583E-17
4.790000E+03	4.236168E-16	1.015415E-17
4.800000E+03	4.192653E-16	1.004874E-17
4.810000E+03	4.152379E-16	9.951120E-18
4.820000E+03	4.115918E-16	9.862658E-18
4.830000E+03	4.083825E-16	9.784680E-18
4.840000E+03	4.056531E-16	9.718220E-18
4.850000E+03	4.034442E-16	9.664240E-18
4.860000E+03	4.017874E-16	9.623495E-18
4.870000E+03	4.007008E-16	9.596418E-18
4.880000E+03	4.001975E-16	9.583312E-18
4.890000E+03	4.002790E-16	9.584214E-18
4.900000E+03	4.009352E-16	9.598875E-18
4.910000E+03	4.021425E-16	9.626725E-18
4.920000E+03	4.038581E-16	9.666734E-18
4.930000E+03	4.060324E-16	9.717716E-18
4.940000E+03	4.085952E-16	9.777983E-18
4.950000E+03	4.114593E-16	9.845449E-18
4.960000E+03	4.145171E-16	9.917532E-18
4.970000E+03	4.176613E-16	9.991668E-18
4.980000E+03	4.207571E-16	1.006463E-17
4.990000E+03	4.236866E-16	1.013360E-17
5.000000E+03	4.263250E-16	1.019560E-17
5.010000E+03	4.285711E-16	1.024819E-17
5.020000E+03	4.303564E-16	1.028977E-17
5.030000E+03	4.316444E-16	1.031944E-17
5.040000E+03	4.324252E-16	1.033699E-17
5.050000E+03	4.327433E-16	1.034347E-17
5.060000E+03	4.326495E-16	1.034011E-17
5.070000E+03	4.322102E-16	1.032849E-17
5.080000E+03	4.315096E-16	1.031063E-17
5.090000E+03	4.306331E-16	1.028857E-17
5.100000E+03	4.296494E-16	1.026396E-17
5.110000E+03	4.286401E-16	1.023875E-17
5.120000E+03	4.276658E-16	1.021438E-17
5.130000E+03	4.267886E-16	1.019233E-17
5.140000E+03	4.260534E-16	1.017368E-17
5.150000E+03	4.255025E-16	1.015943E-17
5.160000E+03	4.251754E-16	1.015053E-17
5.170000E+03	4.251005E-16	1.014766E-17
5.180000E+03	4.253010E-16	1.015136E-17
5.190000E+03	4.257900E-16	1.016194E-17
5.200000E+03	4.265847E-16	1.017982E-17
5.210000E+03	4.276976E-16	1.020530E-17
5.220000E+03	4.291237E-16	1.023824E-17
5.230000E+03	4.308667E-16	1.027873E-17
5.240000E+03	4.329263E-16	1.032677E-17
5.250000E+03	4.352893E-16	1.038204E-17
5.260000E+03	4.379432E-16	1.044423E-17
5.270000E+03	4.408719E-16	1.051297E-17
5.280000E+03	4.440611E-16	1.058790E-17
5.290000E+03	4.474843E-16	1.066840E-17
5.300000E+03	4.511173E-16	1.075389E-17
5.310000E+03	4.549379E-16	1.084383E-17
5.320000E+03	4.589124E-16	1.093743E-17
5.330000E+03	4.630131E-16	1.103401E-17
5.340000E+03	4.672003E-16	1.113264E-17
5.350000E+03	4.714401E-16	1.123250E-17
5.360000E+03	4.756849E-16	1.133247E-17
5.370000E+03	4.798928E-16	1.143153E-17
5.380000E+03	4.840121E-16	1.152847E-17
5.390000E+03	4.879822E-16	1.162184E-17
5.400000E+03	4.917425E-16	1.171020E-17
5.410000E+03	4.952342E-16	1.179214E-17
5.420000E+03	4.983907E-16	1.186610E-17
5.430000E+03	5.011332E-16	1.193018E-17
5.440000E+03	5.034060E-16	1.198308E-17
5.450000E+03	5.051222E-16	1.202271E-17
5.460000E+03	5.062200E-16	1.204763E-17
5.470000E+03	5.066240E-16	1.205603E-17
5.480000E+03	5.062717E-16	1.204644E-17
5.490000E+03	5.050959E-16	1.201727E-17
5.500000E+03	5.030425E-16	1.196722E-17
5.510000E+03	5.000738E-16	1.189542E-17
5.520000E+03	4.961575E-16	1.180109E-17
5.530000E+03	4.912847E-16	1.168404E-17
5.540000E+03	4.854739E-16	1.154471E-17
5.550000E+03	4.787616E-16	1.138398E-17
5.560000E+03	4.711993E-16	1.120307E-17
5.570000E+03	4.628795E-16	1.100419E-17
5.580000E+03	4.539039E-16	1.078977E-17
5.590000E+03	4.443789E-16	1.056233E-17
5.600000E+03	4.344388E-16	1.032507E-17
5.610000E+03	4.242141E-16	1.008110E-17
5.620000E+03	4.138301E-16	9.833397E-18
5.630000E+03	4.034323E-16	9.585415E-18
5.640000E+03	3.931392E-16	9.339971E-18
5.650000E+03	3.830799E-16	9.100134E-18
5.660000E+03	3.733757E-16	8.868777E-18
5.670000E+03	3.641304E-16	8.648366E-18
5.680000E+03	3.554448E-16	8.441293E-18
5.690000E+03	3.473975E-16	8.249418E-18
5.700000E+03	3.400680E-16	8.074627E-18
5.710000E+03	3.335097E-16	7.918180E-18
5.720000E+03	3.277721E-16	7.781248E-18
5.730000E+03	3.228915E-16	7.664689E-18
5.740000E+03	3.188821E-16	7.568834E-18
5.750000E+03	3.157519E-16	7.493864E-18
5.760000E+03	3.135026E-16	7.439816E-18
5.770000E+03	3.121116E-16	7.406150E-18
5.780000E+03	3.115501E-16	7.392174E-18
5.790000E+03	3.117761E-16	7.396889E-18
5.800000E+03	3.127378E-16	7.419057E-18
5.810000E+03	3.143640E-16	7.456991E-18
5.820000E+03	3.165747E-16	7.508783E-18
5.830000E+03	3.192802E-16	7.572307E-18
5.840000E+03	3.223808E-16	7.645194E-18
5.850000E+03	3.257840E-16	7.725247E-18
5.860000E+03	3.293863E-16	7.810015E-18
5.870000E+03	3.330967E-16	7.897333E-18
5.880000E+03	3.368345E-16	7.985293E-18
5.890000E+03	3.405204E-16	8.072012E-18
5.900000E+03	3.440859E-16	8.155869E-18
5.910000E+03	3.474698E-16	8.235412E-18
5.920000E+03	3.506182E-16	8.309366E-18
5.930000E+03	3.534843E-16	8.376626E-18
5.940000E+03	3.560290E-16	8.436264E-18
5.950000E+03	3.582202E-16	8.487523E-18
5.960000E+03	3.600266E-16	8.529663E-18
5.970000E+03	3.614422E-16	8.562545E-18
5.980000E+03	3.624520E-16	8.585814E-18
5.990000E+03	3.630570E-16	8.599499E-18
6.000000E+03	3.632678E-16	8.603850E-18
6.010000E+03	3.631037E-16	8.599328E-18
6.020000E+03	3.625931E-16	8.586611E-18
6.030000E+03	3.617690E-16	8.566476E-18
6.040000E+03	3.606785E-16	8.540044E-18
6.050000E+03	3.593707E-16	8.508477E-18
6.060000E+03	3.578923E-16	8.472883E-18
6.070000E+03	3.563076E-16	8.434783E-18
6.080000E+03	3.546692E-16	8.395426E-18
6.090000E+03	3.530421E-16	8.356348E-18
6.100000E+03	3.514851E-16	8.318942E-18
6.110000E+03	3.500650E-16	8.284788E-18
6.120000E+03	3.488374E-16	8.255201E-18
6.130000E+03	3.478708E-16	8.231802E-18
6.140000E+03	3.472204E-16	8.215895E-18
6.150000E+03	3.469445E-16	8.208857E-18
6.160000E+03	3.470917E-16	8.211839E-18
6.170000E+03	3.477063E-16	8.225885E-18
6.180000E+03	3.488222E-16	8.251799E-18
6.190000E+03	3.504581E-16	8.290017E-18
6.200000E+03	3.526111E-16	8.340468E-18
6.210000E+03	3.552697E-16	8.402883E-18
6.220000E+03	3.584068E-16	8.476615E-18
6.230000E+03	3.619790E-16	8.560638E-18
6.240000E+03	3.659265E-16	8.653535E-18
6.250000E+03	3.701736E-16	8.753516E-18
6.260000E+03	3.746303E-16	8.858452E-18
6.270000E+03	3.791960E-16	8.965962E-18
6.280000E+03	3.837711E-16	9.073694E-18
6.290000E+03	3.882391E-16	9.178891E-18
6.300000E+03	3.925076E-16	9.279370E-18
6.310000E+03	3.964746E-16	9.372721E-18
6.320000E+03	4.000656E-16	9.457186E-18
6.330000E+03	4.032201E-16	9.531332E-18
6.340000E+03	4.059042E-16	9.594362E-18
6.350000E+03	4.080845E-16	9.645488E-18
6.360000E+03	4.097533E-16	9.684529E-18
6.370000E+03	4.109080E-16	9.711428E-18
6.380000E+03	4.115511E-16	9.726241E-18
6.390000E+03	4.116909E-16	9.729166E-18
6.400000E+03	4.113265E-16	9.720186E-18
6.410000E+03	4.104625E-16	9.699411E-18
6.420000E+03	4.090909E-16	9.666652E-18
6.430000E+03	4.072032E-16	9.621708E-18
6.440000E+03	4.047871E-16	9.564290E-18
6.450000E+03	4.018302E-16	9.494110E-18
6.460000E+03	3.983220E-16	9.410916E-18
6.470000E+03	3.942680E-16	9.314841E-18
6.480000E+03	3.896922E-16	9.206452E-18
6.490000E+03	3.846380E-16	9.086775E-18
6.500000E+03	3.791767E-16	8.957498E-18
6.510000E+03	3.733957E-16	8.820682E-18
6.520000E+03	3.674098E-16	8.679044E-18
6.530000E+03	3.613220E-16	8.535011E-18
6.540000E+03	3.552441E-16	8.391229E-18
6.550000E+03	3.492710E-16	8.249935E-18
6.560000E+03	3.434830E-16	8.113029E-18
6.570000E+03	3.379443E-16	7.982023E-18
6.580000E+03	3.326902E-16	7.857753E-18
6.590000E+03	3.277352E-16	7.740558E-18
6.600000E+03	3.230689E-16	7.630195E-18
6.610000E+03	3.186682E-16	7.526114E-18
6.620000E+03	3.145059E-16	7.427674E-18
6.630000E+03	3.105457E-16	7.334018E-18
6.640000E+03	3.067590E-16	7.244468E-18
6.650000E+03	3.031155E-16	7.158307E-18
6.660000E+03	2.995885E-16	7.074909E-18
6.670000E+03	2.961554E-16	6.993735E-18
6.680000E+03	2.927983E-16	6.914366E-18
6.690000E+03	2.895047E-16	6.836504E-18
6.700000E+03	2.862676E-16	6.759983E-18
6.710000E+03	2.830859E-16	6.684778E-18
6.720000E+03	2.799670E-16	6.611065E-18
6.730000E+03	2.769177E-16	6.538999E-18
6.740000E+03	2.739549E-16	6.468985E-18
6.750000E+03	2.710935E-16	6.401372E-18
6.760000E+03	2.683546E-16	6.336658E-18
6.770000E+03	2.657623E-16	6.275410E-18
6.780000E+03	2.633485E-16	6.218386E-18
6.790000E+03	2.611318E-16	6.166021E-18
6.800000E+03	2.591475E-16	6.119147E-18
6.810000E+03	2.574256E-16	6.078477E-18
6.820000E+03	2.559947E-16	6.044684E-18
6.830000E+03	2.548876E-16	6.018541E-18
6.840000E+03	2.541442E-16	6.000992E-18
6.850000E+03	2.537911E-16	5.992663E-18
6.860000E+03	2.538735E-16	5.994624E-18
6.870000E+03	2.544219E-16	6.007593E-18
6.880000E+03	2.554744E-16	6.032471E-18
6.890000E+03	2.570603E-16	6.069951E-18
6.900000E+03	2.592107E-16	6.120763E-18
6.910000E+03	2.619469E-16	6.185419E-18
6.920000E+03	2.652785E-16	6.264137E-18
6.930000E+03	2.692118E-16	6.357072E-18
6.940000E+03	2.737236E-16	6.463676E-18
6.950000E+03	2.787780E-16	6.583100E-18
6.960000E+03	2.843037E-16	6.713662E-18
6.970000E+03	2.902049E-16	6.853103E-18
6.980000E+03	2.963353E-16	6.997965E-18
6.990000E+03	3.025243E-16	7.144221E-18
7.000000E+03	3.085778E-16	7.287290E-18
7.010000E+03	3.142835E-16	7.422156E-18
7.020000E+03	3.194561E-16	7.544445E-18
7.030000E+03	3.239484E-16	7.650676E-18
7.040000E+03	3.276706E-16	7.738734E-18
7.050000E+03	3.306143E-16	7.808414E-18
7.060000E+03	3.328241E-16	7.860774E-18
7.070000E+03	3.344048E-16	7.898284E-18
7.080000E+03	3.355068E-16	7.924496E-18
7.090000E+03	3.362943E-16	7.943292E-18
7.100000E+03	3.369556E-16	7.959112E-18
7.110000E+03	3.376755E-16	7.976329E-18
7.120000E+03	3.386110E-16	7.998646E-18
7.130000E+03	3.399120E-16	8.029607E-18
7.140000E+03	3.416917E-16	8.071886E-18
7.150000E+03	3.440251E-16	8.127258E-18
7.160000E+03	3.469740E-16	8.197183E-18
7.170000E+03	3.505558E-16	8.282074E-18
7.180000E+03	3.547646E-16	8.381793E-18
7.190000E+03	3.595531E-16	8.495226E-18
7.200000E+03	3.648493E-16	8.620670E-18
7.210000E+03	3.705611E-16	8.755955E-18
7.220000E+03	3.765712E-16	8.898309E-18
7.230000E+03	3.827400E-16	9.044432E-18
7.240000E+03	3.889222E-16	9.190895E-18
7.250000E+03	3.949512E-16	9.333761E-18
7.260000E+03	4.006620E-16	9.469128E-18
7.270000E+03	4.058817E-16	9.592912E-18
7.280000E+03	4.104364E-16	9.701001E-18
7.290000E+03	4.141761E-16	9.789847E-18
7.300000E+03	4.169676E-16	9.856299E-18
7.310000E+03	4.187091E-16	9.897948E-18
7.320000E+03	4.193354E-16	9.913249E-18
7.330000E+03	4.188156E-16	9.901468E-18
7.340000E+03	4.171694E-16	9.863068E-18
7.350000E+03	4.144523E-16	9.799355E-18
7.360000E+03	4.107391E-16	9.712094E-18
7.370000E+03	4.061269E-16	9.603576E-18
7.380000E+03	4.007483E-16	9.476936E-18
7.390000E+03	3.947147E-16	9.334804E-18
7.400000E+03	3.881466E-16	9.180025E-18
7.410000E+03	3.811679E-16	9.015526E-18
7.420000E+03	3.738811E-16	8.843730E-18
7.430000E+03	3.663724E-16	8.666677E-18
7.440000E+03	3.587322E-16	8.486500E-18
7.450000E+03	3.510182E-16	8.304567E-18
7.460000E+03	3.433070E-16	8.122686E-18
7.470000E+03	3.356513E-16	7.942104E-18
7.480000E+03	3.281147E-16	7.764324E-18
7.490000E+03	3.207440E-16	7.590458E-18
7.500000E+03	3.135969E-16	7.421869E-18
7.510000E+03	3.067194E-16	7.259645E-18
7.520000E+03	3.001623E-16	7.104990E-18
7.530000E+03	2.939642E-16	6.958819E-18
7.540000E+03	2.881627E-16	6.822022E-18
7.550000E+03	2.827854E-16	6.695258E-18
7.560000E+03	2.778661E-16	6.579325E-18
7.570000E+03	2.734176E-16	6.474528E-18
7.580000E+03	2.694591E-16	6.381327E-18
7.590000E+03	2.659982E-16	6.299903E-18
7.600000E+03	2.630450E-16	6.230497E-18
7.610000E+03	2.606016E-16	6.173163E-18
7.620000E+03	2.586624E-16	6.127770E-18
7.630000E+03	2.572216E-16	6.094184E-18
7.640000E+03	2.562728E-16	6.072257E-18
7.650000E+03	2.557947E-16	6.061486E-18
7.660000E+03	2.557753E-16	6.061592E-18
7.670000E+03	2.561902E-16	6.071996E-18
7.680000E+03	2.570015E-16	6.091803E-18
7.690000E+03	2.581781E-16	6.120281E-18
7.700000E+03	2.596676E-16	6.156187E-18
7.710000E+03	2.614237E-16	6.198431E-18
7.720000E+03	2.633830E-16	6.245505E-18
7.730000E+03	2.654833E-16	6.295938E-18
7.740000E+03	2.676471E-16	6.347893E-18
7.750000E+03	2.698101E-16	6.399844E-18
7.760000E+03	2.718969E-16	6.450006E-18
