#wls	flux	fluxerr
1.600000E+03	3.766539E-16	9.554543E-18
1.640000E+03	3.846279E-16	9.754852E-18
1.680000E+03	3.924673E-16	9.951611E-18
1.720000E+03	4.002121E-16	1.014584E-17
1.760000E+03	4.077488E-16	1.033465E-17
1.800000E+03	4.151967E-16	1.052106E-17
1.840000E+03	4.224396E-16	1.070214E-17
1.880000E+03	4.295193E-16	1.087894E-17
1.920000E+03	4.363137E-16	1.104836E-17
1.960000E+03	4.429480E-16	1.121358E-17
2.000000E+03	4.492126E-16	1.136928E-17
2.040000E+03	4.552338E-16	1.151868E-17
2.080000E+03	4.608829E-16	1.165851E-17
2.120000E+03	4.662026E-16	1.178985E-17
2.160000E+03	4.712364E-16	1.191381E-17
2.200000E+03	4.757658E-16	1.202487E-17
2.240000E+03	4.799211E-16	1.212633E-17
2.280000E+03	4.836584E-16	1.221708E-17
2.320000E+03	4.869336E-16	1.229601E-17
2.360000E+03	4.897032E-16	1.236205E-17
2.400000E+03	4.920968E-16	1.241846E-17
2.440000E+03	4.938976E-16	1.245978E-17
2.480000E+03	4.952340E-16	1.248926E-17
2.520000E+03	4.961447E-16	1.250789E-17
2.560000E+03	4.964994E-16	1.251240E-17
2.600000E+03	4.963354E-16	1.250374E-17
2.640000E+03	4.956851E-16	1.248273E-17
2.680000E+03	4.945754E-16	1.245006E-17
2.720000E+03	4.929502E-16	1.240435E-17
2.760000E+03	4.909016E-16	1.234791E-17
2.800000E+03	4.883620E-16	1.227907E-17
2.840000E+03	4.854729E-16	1.220138E-17
2.880000E+03	4.821469E-16	1.211268E-17
2.920000E+03	4.784266E-16	1.201405E-17
2.960000E+03	4.743991E-16	1.190767E-17
3.000000E+03	4.699430E-16	1.179053E-17
3.010000E+03	4.687703E-16	1.175978E-17
3.020000E+03	4.676053E-16	1.172921E-17
3.030000E+03	4.663864E-16	1.169730E-17
3.040000E+03	4.651700E-16	1.166545E-17
3.050000E+03	4.639527E-16	1.163357E-17
3.060000E+03	4.626754E-16	1.160019E-17
3.070000E+03	4.613923E-16	1.156667E-17
3.080000E+03	4.600454E-16	1.153155E-17
3.090000E+03	4.587420E-16	1.149752E-17
3.100000E+03	4.573701E-16	1.146177E-17
3.110000E+03	4.560343E-16	1.142694E-17
3.120000E+03	4.546254E-16	1.139027E-17
3.130000E+03	4.532454E-16	1.135433E-17
3.140000E+03	4.517879E-16	1.131645E-17
3.150000E+03	4.503525E-16	1.127912E-17
3.160000E+03	4.488848E-16	1.124099E-17
3.170000E+03	4.473822E-16	1.120198E-17
3.180000E+03	4.458424E-16	1.116205E-17
3.190000E+03	4.443101E-16	1.112231E-17
3.200000E+03	4.427810E-16	1.108265E-17
3.210000E+03	4.412047E-16	1.104182E-17
3.220000E+03	4.396245E-16	1.100089E-17
3.230000E+03	4.379916E-16	1.095865E-17
3.240000E+03	4.363481E-16	1.091614E-17
3.250000E+03	4.346900E-16	1.087327E-17
3.260000E+03	4.330138E-16	1.082996E-17
3.270000E+03	4.313159E-16	1.078611E-17
3.280000E+03	4.295930E-16	1.074163E-17
3.290000E+03	4.278417E-16	1.069646E-17
3.300000E+03	4.260993E-16	1.065151E-17
3.310000E+03	4.242818E-16	1.060469E-17
3.320000E+03	4.225051E-16	1.055889E-17
3.330000E+03	4.206485E-16	1.051110E-17
3.340000E+03	4.188240E-16	1.046412E-17
3.350000E+03	4.169523E-16	1.041597E-17
3.360000E+03	4.150680E-16	1.036751E-17
3.370000E+03	4.131675E-16	1.031865E-17
3.380000E+03	4.112481E-16	1.026933E-17
3.390000E+03	4.093072E-16	1.021948E-17
3.400000E+03	4.073762E-16	1.016988E-17
3.410000E+03	4.054185E-16	1.011962E-17
3.420000E+03	4.034328E-16	1.006868E-17
3.430000E+03	4.014499E-16	1.001781E-17
3.440000E+03	3.994367E-16	9.966187E-18
3.450000E+03	3.974544E-16	9.915348E-18
3.460000E+03	3.954397E-16	9.863710E-18
3.470000E+03	3.934510E-16	9.812727E-18
3.480000E+03	3.914558E-16	9.761591E-18
3.490000E+03	3.894527E-16	9.710266E-18
3.500000E+03	3.874675E-16	9.659397E-18
3.510000E+03	3.854707E-16	9.608247E-18
3.520000E+03	3.834884E-16	9.557467E-18
3.530000E+03	3.815190E-16	9.507019E-18
3.540000E+03	3.795617E-16	9.456881E-18
3.550000E+03	3.776167E-16	9.407057E-18
3.560000E+03	3.757087E-16	9.358164E-18
3.570000E+03	3.738139E-16	9.309607E-18
3.580000E+03	3.719346E-16	9.261447E-18
3.590000E+03	3.701190E-16	9.214878E-18
3.600000E+03	3.683229E-16	9.168807E-18
3.610000E+03	3.665946E-16	9.124428E-18
3.620000E+03	3.649152E-16	9.081275E-18
3.630000E+03	3.632898E-16	9.039474E-18
3.640000E+03	3.617448E-16	8.999680E-18
3.650000E+03	3.602657E-16	8.961534E-18
3.660000E+03	3.588998E-16	8.926207E-18
3.670000E+03	3.576147E-16	8.892895E-18
3.680000E+03	3.564565E-16	8.862743E-18
3.690000E+03	3.554140E-16	8.835473E-18
3.700000E+03	3.544963E-16	8.811307E-18
3.710000E+03	3.537483E-16	8.791359E-18
3.720000E+03	3.531442E-16	8.774989E-18
3.730000E+03	3.527125E-16	8.762903E-18
3.740000E+03	3.524641E-16	8.755371E-18
3.750000E+03	3.524275E-16	8.753093E-18
3.760000E+03	3.525978E-16	8.755950E-18
3.770000E+03	3.530031E-16	8.764635E-18
3.780000E+03	3.536547E-16	8.779430E-18
3.790000E+03	3.545478E-16	8.800206E-18
3.800000E+03	3.557191E-16	8.827876E-18
3.810000E+03	3.571580E-16	8.862173E-18
3.820000E+03	3.588671E-16	8.903156E-18
3.830000E+03	3.608589E-16	8.951133E-18
3.840000E+03	3.631288E-16	9.005988E-18
3.850000E+03	3.656542E-16	9.067155E-18
3.860000E+03	3.684333E-16	9.134587E-18
3.870000E+03	3.714455E-16	9.207773E-18
3.880000E+03	3.746681E-16	9.286142E-18
3.890000E+03	3.780743E-16	9.369033E-18
3.900000E+03	3.816487E-16	9.456058E-18
3.910000E+03	3.853347E-16	9.545813E-18
3.920000E+03	3.891268E-16	9.638162E-18
3.930000E+03	3.929920E-16	9.732285E-18
3.940000E+03	3.968840E-16	9.827037E-18
3.950000E+03	4.007693E-16	9.921587E-18
3.960000E+03	4.046264E-16	1.001540E-17
3.970000E+03	4.084210E-16	1.010763E-17
3.980000E+03	4.120948E-16	1.019684E-17
3.990000E+03	4.156511E-16	1.028310E-17
4.000000E+03	4.190205E-16	1.036471E-17
4.010000E+03	4.221928E-16	1.044140E-17
4.020000E+03	4.251345E-16	1.051237E-17
4.030000E+03	4.277917E-16	1.057627E-17
4.040000E+03	4.301485E-16	1.063272E-17
4.050000E+03	4.321924E-16	1.068142E-17
4.060000E+03	4.338823E-16	1.072134E-17
4.070000E+03	4.352074E-16	1.075223E-17
4.080000E+03	4.361730E-16	1.077423E-17
4.090000E+03	4.367682E-16	1.078706E-17
4.100000E+03	4.369986E-16	1.079088E-17
4.110000E+03	4.368644E-16	1.078569E-17
4.120000E+03	4.363910E-16	1.077213E-17
4.130000E+03	4.355786E-16	1.075019E-17
4.140000E+03	4.344708E-16	1.072098E-17
4.150000E+03	4.330679E-16	1.068448E-17
4.160000E+03	4.314135E-16	1.064180E-17
4.170000E+03	4.295457E-16	1.059385E-17
4.180000E+03	4.274870E-16	1.054122E-17
4.190000E+03	4.252895E-16	1.048517E-17
4.200000E+03	4.229889E-16	1.042660E-17
4.210000E+03	4.206212E-16	1.036640E-17
4.220000E+03	4.182273E-16	1.030556E-17
4.230000E+03	4.158470E-16	1.024508E-17
4.240000E+03	4.135019E-16	1.018548E-17
4.250000E+03	4.112243E-16	1.012756E-17
4.260000E+03	4.090367E-16	1.007188E-17
4.270000E+03	4.069667E-16	1.001911E-17
4.280000E+03	4.050241E-16	9.969487E-18
4.290000E+03	4.032386E-16	9.923746E-18
4.300000E+03	4.016115E-16	9.881917E-18
4.310000E+03	4.001773E-16	9.844844E-18
4.320000E+03	3.989304E-16	9.812388E-18
4.330000E+03	3.978984E-16	9.785227E-18
4.340000E+03	3.970894E-16	9.763554E-18
4.350000E+03	3.965245E-16	9.747888E-18
4.360000E+03	3.962072E-16	9.738310E-18
4.370000E+03	3.961606E-16	9.735386E-18
4.380000E+03	3.963963E-16	9.739396E-18
4.390000E+03	3.969320E-16	9.750772E-18
4.400000E+03	3.977713E-16	9.769598E-18
4.410000E+03	3.989291E-16	9.796233E-18
4.420000E+03	4.004067E-16	9.830710E-18
4.430000E+03	4.022026E-16	9.872987E-18
4.440000E+03	4.043184E-16	9.923093E-18
4.450000E+03	4.067467E-16	9.980851E-18
4.460000E+03	4.094851E-16	1.004619E-17
4.470000E+03	4.125429E-16	1.011934E-17
4.480000E+03	4.159168E-16	1.020021E-17
4.490000E+03	4.195858E-16	1.028828E-17
4.500000E+03	4.235430E-16	1.038339E-17
4.510000E+03	4.277420E-16	1.048439E-17
4.520000E+03	4.321495E-16	1.059045E-17
4.530000E+03	4.367203E-16	1.070048E-17
4.540000E+03	4.414024E-16	1.081319E-17
4.550000E+03	4.461287E-16	1.092694E-17
4.560000E+03	4.508307E-16	1.104005E-17
4.570000E+03	4.554275E-16	1.115054E-17
4.580000E+03	4.598344E-16	1.125634E-17
4.590000E+03	4.639554E-16	1.135510E-17
4.600000E+03	4.676997E-16	1.144460E-17
4.610000E+03	4.709769E-16	1.152264E-17
4.620000E+03	4.736885E-16	1.158682E-17
4.630000E+03	4.757686E-16	1.163553E-17
4.640000E+03	4.771383E-16	1.166685E-17
4.650000E+03	4.777556E-16	1.167976E-17
4.660000E+03	4.775921E-16	1.167358E-17
4.670000E+03	4.766412E-16	1.164817E-17
4.680000E+03	4.749167E-16	1.160385E-17
4.690000E+03	4.724675E-16	1.154186E-17
4.700000E+03	4.693426E-16	1.146338E-17
4.710000E+03	4.656178E-16	1.137028E-17
4.720000E+03	4.613847E-16	1.126480E-17
4.730000E+03	4.567426E-16	1.114939E-17
4.740000E+03	4.517911E-16	1.102646E-17
4.750000E+03	4.466412E-16	1.089873E-17
4.760000E+03	4.413982E-16	1.076879E-17
4.770000E+03	4.361638E-16	1.063910E-17
4.780000E+03	4.310439E-16	1.051226E-17
4.790000E+03	4.261180E-16	1.039019E-17
4.800000E+03	4.214648E-16	1.027482E-17
4.810000E+03	4.171571E-16	1.016791E-17
4.820000E+03	4.132552E-16	1.007094E-17
4.830000E+03	4.098189E-16	9.985339E-18
4.840000E+03	4.068959E-16	9.912281E-18
4.850000E+03	4.045288E-16	9.852789E-18
4.860000E+03	4.027491E-16	9.807624E-18
4.870000E+03	4.015845E-16	9.777452E-18
4.880000E+03	4.010501E-16	9.762636E-18
4.890000E+03	4.011484E-16	9.763222E-18
4.900000E+03	4.018749E-16	9.779099E-18
4.910000E+03	4.032119E-16	9.809819E-18
4.920000E+03	4.051152E-16	9.854308E-18
4.930000E+03	4.075447E-16	9.911577E-18
4.940000E+03	4.104175E-16	9.979608E-18
4.950000E+03	4.136480E-16	1.005631E-17
4.960000E+03	4.171285E-16	1.013906E-17
4.970000E+03	4.207194E-16	1.022447E-17
4.980000E+03	4.242739E-16	1.030896E-17
4.990000E+03	4.276361E-16	1.038875E-17
5.000000E+03	4.306516E-16	1.046009E-17
5.010000E+03	4.331686E-16	1.051930E-17
5.020000E+03	4.350861E-16	1.056394E-17
5.030000E+03	4.363816E-16	1.059346E-17
5.040000E+03	4.370812E-16	1.060851E-17
5.050000E+03	4.372376E-16	1.061037E-17
5.060000E+03	4.369368E-16	1.060115E-17
5.070000E+03	4.362821E-16	1.058334E-17
5.080000E+03	4.353758E-16	1.055944E-17
5.090000E+03	4.343144E-16	1.053179E-17
5.100000E+03	4.331792E-16	1.050236E-17
5.110000E+03	4.320486E-16	1.047306E-17
5.120000E+03	4.309876E-16	1.044546E-17
5.130000E+03	4.300579E-16	1.042105E-17
5.140000E+03	4.293098E-16	1.040106E-17
5.150000E+03	4.287780E-16	1.038631E-17
5.160000E+03	4.284952E-16	1.037760E-17
5.170000E+03	4.284989E-16	1.037584E-17
5.180000E+03	4.288013E-16	1.038131E-17
5.190000E+03	4.294239E-16	1.039453E-17
5.200000E+03	4.303808E-16	1.041584E-17
5.210000E+03	4.316793E-16	1.044542E-17
5.220000E+03	4.333238E-16	1.048335E-17
5.230000E+03	4.353152E-16	1.052967E-17
5.240000E+03	4.376478E-16	1.058423E-17
5.250000E+03	4.403125E-16	1.064680E-17
5.260000E+03	4.432970E-16	1.071709E-17
5.270000E+03	4.465883E-16	1.079477E-17
5.280000E+03	4.501615E-16	1.087924E-17
5.290000E+03	4.539943E-16	1.096996E-17
5.300000E+03	4.580667E-16	1.106644E-17
5.310000E+03	4.623428E-16	1.116781E-17
5.320000E+03	4.668084E-16	1.127373E-17
5.330000E+03	4.714182E-16	1.138310E-17
5.340000E+03	4.761475E-16	1.149532E-17
5.350000E+03	4.809591E-16	1.160950E-17
5.360000E+03	4.858004E-16	1.172436E-17
5.370000E+03	4.906329E-16	1.183897E-17
5.380000E+03	4.954022E-16	1.195203E-17
5.390000E+03	5.000377E-16	1.206183E-17
5.400000E+03	5.044832E-16	1.216701E-17
5.410000E+03	5.086626E-16	1.226575E-17
5.420000E+03	5.125073E-16	1.235639E-17
5.430000E+03	5.159317E-16	1.243688E-17
5.440000E+03	5.188687E-16	1.250560E-17
5.450000E+03	5.212275E-16	1.256037E-17
5.460000E+03	5.229383E-16	1.259952E-17
5.470000E+03	5.239111E-16	1.262089E-17
5.480000E+03	5.240776E-16	1.262283E-17
5.490000E+03	5.233527E-16	1.260332E-17
5.500000E+03	5.216799E-16	1.256099E-17
5.510000E+03	5.190019E-16	1.249449E-17
5.520000E+03	5.152639E-16	1.240250E-17
5.530000E+03	5.104589E-16	1.228487E-17
5.540000E+03	5.045804E-16	1.214145E-17
5.550000E+03	4.976726E-16	1.197332E-17
5.560000E+03	4.897920E-16	1.178186E-17
5.570000E+03	4.810401E-16	1.156950E-17
5.580000E+03	4.715394E-16	1.133922E-17
5.590000E+03	4.614219E-16	1.109419E-17
5.600000E+03	4.508291E-16	1.083781E-17
5.610000E+03	4.399041E-16	1.057353E-17
5.620000E+03	4.287962E-16	1.030495E-17
5.630000E+03	4.176507E-16	1.003556E-17
5.640000E+03	4.066135E-16	9.768856E-18
5.650000E+03	3.958219E-16	9.508143E-18
5.660000E+03	3.854104E-16	9.256643E-18
5.670000E+03	3.754907E-16	9.017036E-18
5.680000E+03	3.661773E-16	8.792068E-18
5.690000E+03	3.575621E-16	8.583934E-18
5.700000E+03	3.497320E-16	8.394714E-18
5.710000E+03	3.427482E-16	8.225868E-18
5.720000E+03	3.366638E-16	8.078658E-18
5.730000E+03	3.315191E-16	7.954046E-18
5.740000E+03	3.273329E-16	7.852472E-18
5.750000E+03	3.241152E-16	7.774161E-18
5.760000E+03	3.218631E-16	7.719039E-18
5.770000E+03	3.205640E-16	7.686791E-18
5.780000E+03	3.201852E-16	7.676623E-18
5.790000E+03	3.206804E-16	7.687417E-18
5.800000E+03	3.219936E-16	7.717821E-18
5.810000E+03	3.240466E-16	7.765954E-18
5.820000E+03	3.267395E-16	7.829417E-18
5.830000E+03	3.299698E-16	7.905743E-18
5.840000E+03	3.336118E-16	7.991920E-18
5.850000E+03	3.375445E-16	8.085044E-18
5.860000E+03	3.416417E-16	8.182091E-18
5.870000E+03	3.458138E-16	8.280914E-18
5.880000E+03	3.499698E-16	8.379335E-18
5.890000E+03	3.540343E-16	8.475549E-18
5.900000E+03	3.579358E-16	8.567845E-18
5.910000E+03	3.616158E-16	8.654825E-18
5.920000E+03	3.650145E-16	8.735062E-18
5.930000E+03	3.680860E-16	8.807459E-18
5.940000E+03	3.707911E-16	8.871083E-18
5.950000E+03	3.731002E-16	8.925228E-18
5.960000E+03	3.749804E-16	8.969111E-18
5.970000E+03	3.764162E-16	9.002365E-18
5.980000E+03	3.773972E-16	9.024748E-18
5.990000E+03	3.779212E-16	9.036210E-18
6.000000E+03	3.779989E-16	9.037012E-18
6.010000E+03	3.776508E-16	9.027646E-18
6.020000E+03	3.769138E-16	9.008997E-18
6.030000E+03	3.758224E-16	8.981897E-18
6.040000E+03	3.744247E-16	8.947494E-18
6.050000E+03	3.727799E-16	8.907206E-18
6.060000E+03	3.709402E-16	8.862286E-18
6.070000E+03	3.689748E-16	8.814383E-18
6.080000E+03	3.669367E-16	8.764766E-18
6.090000E+03	3.648976E-16	8.715149E-18
6.100000E+03	3.629162E-16	8.666935E-18
6.110000E+03	3.610647E-16	8.621843E-18
6.120000E+03	3.594085E-16	8.581439E-18
6.130000E+03	3.580120E-16	8.547255E-18
6.140000E+03	3.569492E-16	8.521056E-18
6.150000E+03	3.562813E-16	8.504303E-18
6.160000E+03	3.560678E-16	8.498414E-18
6.170000E+03	3.563616E-16	8.504645E-18
6.180000E+03	3.572054E-16	8.524014E-18
6.190000E+03	3.586320E-16	8.557300E-18
6.200000E+03	3.606392E-16	8.604448E-18
6.210000E+03	3.632164E-16	8.665200E-18
6.220000E+03	3.663423E-16	8.739045E-18
6.230000E+03	3.699645E-16	8.824734E-18
6.240000E+03	3.740196E-16	8.920747E-18
6.250000E+03	3.784262E-16	9.025145E-18
6.260000E+03	3.830770E-16	9.135363E-18
6.270000E+03	3.878608E-16	9.248752E-18
6.280000E+03	3.926466E-16	9.362188E-18
6.290000E+03	3.973130E-16	9.472776E-18
6.300000E+03	4.017299E-16	9.577415E-18
6.310000E+03	4.057820E-16	9.673358E-18
6.320000E+03	4.093947E-16	9.758831E-18
6.330000E+03	4.125120E-16	9.832501E-18
6.340000E+03	4.151010E-16	9.893584E-18
6.350000E+03	4.171515E-16	9.941840E-18
6.360000E+03	4.186749E-16	9.977548E-18
6.370000E+03	4.196950E-16	1.000127E-17
6.380000E+03	4.202262E-16	1.001336E-17
6.390000E+03	4.202739E-16	1.001394E-17
6.400000E+03	4.198543E-16	1.000340E-17
6.410000E+03	4.189765E-16	9.981964E-18
6.420000E+03	4.176324E-16	9.949436E-18
6.430000E+03	4.158170E-16	9.905699E-18
6.440000E+03	4.134963E-16	9.849944E-18
6.450000E+03	4.106287E-16	9.781181E-18
6.460000E+03	4.071872E-16	9.698770E-18
6.470000E+03	4.031390E-16	9.601931E-18
6.480000E+03	3.984738E-16	9.490419E-18
6.490000E+03	3.932261E-16	9.365058E-18
6.500000E+03	3.874815E-16	9.227885E-18
6.510000E+03	3.813633E-16	9.081843E-18
6.520000E+03	3.750076E-16	8.930166E-18
6.530000E+03	3.685514E-16	8.776121E-18
6.540000E+03	3.621195E-16	8.622678E-18
6.550000E+03	3.558312E-16	8.472677E-18
6.560000E+03	3.498015E-16	8.328854E-18
6.570000E+03	3.441116E-16	8.193142E-18
6.580000E+03	3.388199E-16	8.066932E-18
6.590000E+03	3.339165E-16	7.949983E-18
6.600000E+03	3.293538E-16	7.841165E-18
6.610000E+03	3.250889E-16	7.739449E-18
6.620000E+03	3.210796E-16	7.643836E-18
6.630000E+03	3.172758E-16	7.553132E-18
6.640000E+03	3.136487E-16	7.466646E-18
6.650000E+03	3.101561E-16	7.383378E-18
6.660000E+03	3.067709E-16	7.302678E-18
6.670000E+03	3.034659E-16	7.223901E-18
6.680000E+03	3.002168E-16	7.146466E-18
6.690000E+03	2.970133E-16	7.070131E-18
6.700000E+03	2.938420E-16	6.994572E-18
6.710000E+03	2.906990E-16	6.919698E-18
6.720000E+03	2.875963E-16	6.845797E-18
6.730000E+03	2.845376E-16	6.772952E-18
6.740000E+03	2.815431E-16	6.701646E-18
6.750000E+03	2.786334E-16	6.632368E-18
6.760000E+03	2.758350E-16	6.565749E-18
6.770000E+03	2.731691E-16	6.502294E-18
6.780000E+03	2.706683E-16	6.442780E-18
6.790000E+03	2.683601E-16	6.387857E-18
6.800000E+03	2.662825E-16	6.338433E-18
6.810000E+03	2.644650E-16	6.295209E-18
6.820000E+03	2.629380E-16	6.258909E-18
6.830000E+03	2.617427E-16	6.230513E-18
6.840000E+03	2.609093E-16	6.210741E-18
6.850000E+03	2.604795E-16	6.200583E-18
6.860000E+03	2.604961E-16	6.201063E-18
6.870000E+03	2.610011E-16	6.213179E-18
6.880000E+03	2.620443E-16	6.238115E-18
6.890000E+03	2.636588E-16	6.276662E-18
6.900000E+03	2.658878E-16	6.329849E-18
6.910000E+03	2.687575E-16	6.398300E-18
6.920000E+03	2.722928E-16	6.482612E-18
6.930000E+03	2.765084E-16	6.583134E-18
6.940000E+03	2.814020E-16	6.699813E-18
6.950000E+03	2.869538E-16	6.832180E-18
6.960000E+03	2.931108E-16	6.978973E-18
6.970000E+03	2.997770E-16	7.137911E-18
6.980000E+03	3.067842E-16	7.304990E-18
6.990000E+03	3.139089E-16	7.474891E-18
7.000000E+03	3.208824E-16	7.641213E-18
7.010000E+03	3.274155E-16	7.797072E-18
7.020000E+03	3.332033E-16	7.935205E-18
7.030000E+03	3.380107E-16	8.050014E-18
7.040000E+03	3.417497E-16	8.139398E-18
7.050000E+03	3.444425E-16	8.203887E-18
7.060000E+03	3.461703E-16	8.245407E-18
7.070000E+03	3.470984E-16	8.267899E-18
7.080000E+03	3.474387E-16	8.276402E-18
7.090000E+03	3.474234E-16	8.276450E-18
7.100000E+03	3.472843E-16	8.273561E-18
7.110000E+03	3.472702E-16	8.273665E-18
7.120000E+03	3.475873E-16	8.281674E-18
7.130000E+03	3.483875E-16	8.301211E-18
7.140000E+03	3.497907E-16	8.335131E-18
7.150000E+03	3.518911E-16	8.385686E-18
7.160000E+03	3.547456E-16	8.454233E-18
7.170000E+03	3.583772E-16	8.541324E-18
7.180000E+03	3.627805E-16	8.646835E-18
7.190000E+03	3.678883E-16	8.769168E-18
7.200000E+03	3.736018E-16	8.905974E-18
7.210000E+03	3.797970E-16	9.054299E-18
7.220000E+03	3.863438E-16	9.211042E-18
7.230000E+03	3.930876E-16	9.372525E-18
7.240000E+03	3.998699E-16	9.534970E-18
7.250000E+03	4.065071E-16	9.693994E-18
7.260000E+03	4.128135E-16	9.845174E-18
7.270000E+03	4.185869E-16	9.983687E-18
7.280000E+03	4.236372E-16	1.010499E-17
7.290000E+03	4.277742E-16	1.020455E-17
7.300000E+03	4.308341E-16	1.027845E-17
7.310000E+03	4.327011E-16	1.032392E-17
7.320000E+03	4.333104E-16	1.033942E-17
7.330000E+03	4.326337E-16	1.032424E-17
7.340000E+03	4.307048E-16	1.027920E-17
7.350000E+03	4.275975E-16	1.020604E-17
7.360000E+03	4.234188E-16	1.010732E-17
7.370000E+03	4.182950E-16	9.986036E-18
7.380000E+03	4.123740E-16	9.845712E-18
7.390000E+03	4.058074E-16	9.689965E-18
7.400000E+03	3.987317E-16	9.522046E-18
7.410000E+03	3.912789E-16	9.345106E-18
7.420000E+03	3.835494E-16	9.161537E-18
7.430000E+03	3.756379E-16	8.973597E-18
7.440000E+03	3.676138E-16	8.782945E-18
7.450000E+03	3.595377E-16	8.591023E-18
7.460000E+03	3.514731E-16	8.399349E-18
7.470000E+03	3.434807E-16	8.209371E-18
7.480000E+03	3.356139E-16	8.022369E-18
7.490000E+03	3.279312E-16	7.839736E-18
7.500000E+03	3.204874E-16	7.662786E-18
7.510000E+03	3.133307E-16	7.492673E-18
7.520000E+03	3.065179E-16	7.330754E-18
7.530000E+03	3.000964E-16	7.178167E-18
7.540000E+03	2.940988E-16	7.035691E-18
7.550000E+03	2.885668E-16	6.904332E-18
7.560000E+03	2.835197E-16	6.784553E-18
7.570000E+03	2.789818E-16	6.676940E-18
7.580000E+03	2.749683E-16	6.581859E-18
7.590000E+03	2.714866E-16	6.499494E-18
7.600000E+03	2.685475E-16	6.430109E-18
7.610000E+03	2.661513E-16	6.373717E-18
7.620000E+03	2.642916E-16	6.330169E-18
7.630000E+03	2.629628E-16	6.299337E-18
7.640000E+03	2.621580E-16	6.281060E-18
7.650000E+03	2.618602E-16	6.274937E-18
7.660000E+03	2.620524E-16	6.280568E-18
7.670000E+03	2.627139E-16	6.297460E-18
7.680000E+03	2.638080E-16	6.324739E-18
7.690000E+03	2.653051E-16	6.361701E-18
7.700000E+03	2.671508E-16	6.407047E-18
7.710000E+03	2.692895E-16	6.459446E-18
7.720000E+03	2.716475E-16	6.517134E-18
7.730000E+03	2.741571E-16	6.578491E-18
7.740000E+03	2.767330E-16	6.641470E-18
7.750000E+03	2.792956E-16	6.704160E-18
7.760000E+03	2.817541E-16	6.764382E-18
