#wls	flux	fluxerr
1.600000E+03	4.303727E-16	1.635189E-17
1.640000E+03	4.391385E-16	1.667664E-17
1.680000E+03	4.476329E-16	1.699053E-17
1.720000E+03	4.560732E-16	1.730181E-17
1.760000E+03	4.642418E-16	1.760221E-17
1.800000E+03	4.722739E-16	1.789686E-17
1.840000E+03	4.799414E-16	1.817711E-17
1.880000E+03	4.874758E-16	1.845173E-17
1.920000E+03	4.946438E-16	1.871188E-17
1.960000E+03	5.014911E-16	1.895930E-17
2.000000E+03	5.079690E-16	1.919215E-17
2.040000E+03	5.140277E-16	1.940857E-17
2.080000E+03	5.197160E-16	1.961040E-17
2.120000E+03	5.249851E-16	1.979583E-17
2.160000E+03	5.297860E-16	1.996302E-17
2.200000E+03	5.340700E-16	2.011016E-17
2.240000E+03	5.378887E-16	2.023921E-17
2.280000E+03	5.410957E-16	2.034471E-17
2.320000E+03	5.437450E-16	2.042872E-17
2.360000E+03	5.458912E-16	2.049332E-17
2.400000E+03	5.473926E-16	2.053324E-17
2.440000E+03	5.482097E-16	2.054704E-17
2.480000E+03	5.484973E-16	2.054058E-17
2.520000E+03	5.481209E-16	2.050887E-17
2.560000E+03	5.471389E-16	2.045415E-17
2.600000E+03	5.456064E-16	2.037854E-17
2.640000E+03	5.433957E-16	2.027731E-17
2.680000E+03	5.406492E-16	2.015587E-17
2.720000E+03	5.373254E-16	2.001272E-17
2.760000E+03	5.334664E-16	1.984948E-17
2.800000E+03	5.291049E-16	1.966744E-17
2.840000E+03	5.242640E-16	1.946751E-17
2.880000E+03	5.190306E-16	1.925300E-17
2.920000E+03	5.133252E-16	1.902099E-17
2.960000E+03	5.073443E-16	1.877884E-17
3.000000E+03	5.010390E-16	1.852478E-17
3.010000E+03	4.993666E-16	1.845773E-17
3.020000E+03	4.977179E-16	1.839157E-17
3.030000E+03	4.960889E-16	1.832615E-17
3.040000E+03	4.944127E-16	1.825899E-17
3.050000E+03	4.926875E-16	1.819003E-17
3.060000E+03	4.909741E-16	1.812152E-17
3.070000E+03	4.892074E-16	1.805106E-17
3.080000E+03	4.874468E-16	1.798083E-17
3.090000E+03	4.856885E-16	1.791071E-17
3.100000E+03	4.839290E-16	1.784055E-17
3.110000E+03	4.821064E-16	1.776808E-17
3.120000E+03	4.802770E-16	1.769537E-17
3.130000E+03	4.784374E-16	1.762231E-17
3.140000E+03	4.765842E-16	1.754876E-17
3.150000E+03	4.747139E-16	1.747460E-17
3.160000E+03	4.728236E-16	1.739972E-17
3.170000E+03	4.709637E-16	1.732598E-17
3.180000E+03	4.690226E-16	1.724927E-17
3.190000E+03	4.671045E-16	1.717342E-17
3.200000E+03	4.651524E-16	1.709634E-17
3.210000E+03	4.631635E-16	1.701794E-17
3.220000E+03	4.611854E-16	1.693995E-17
3.230000E+03	4.592133E-16	1.686221E-17
3.240000E+03	4.571938E-16	1.678274E-17
3.250000E+03	4.551728E-16	1.670325E-17
3.260000E+03	4.531458E-16	1.662356E-17
3.270000E+03	4.510623E-16	1.654182E-17
3.280000E+03	4.490121E-16	1.646133E-17
3.290000E+03	4.468994E-16	1.637858E-17
3.300000E+03	4.448114E-16	1.629675E-17
3.310000E+03	4.426993E-16	1.621408E-17
3.320000E+03	4.405602E-16	1.613044E-17
3.330000E+03	4.384335E-16	1.604728E-17
3.340000E+03	4.362733E-16	1.596293E-17
3.350000E+03	4.341182E-16	1.587879E-17
3.360000E+03	4.319248E-16	1.579329E-17
3.370000E+03	4.297700E-16	1.570923E-17
3.380000E+03	4.275716E-16	1.562360E-17
3.390000E+03	4.254045E-16	1.553915E-17
3.400000E+03	4.231904E-16	1.545302E-17
3.410000E+03	4.210021E-16	1.536786E-17
3.420000E+03	4.188004E-16	1.528225E-17
3.430000E+03	4.166188E-16	1.519741E-17
3.440000E+03	4.144548E-16	1.511324E-17
3.450000E+03	4.122721E-16	1.502843E-17
3.460000E+03	4.101038E-16	1.494417E-17
3.470000E+03	4.079479E-16	1.486040E-17
3.480000E+03	4.058347E-16	1.477822E-17
3.490000E+03	4.036994E-16	1.469527E-17
3.500000E+03	4.016038E-16	1.461380E-17
3.510000E+03	3.995461E-16	1.453374E-17
3.520000E+03	3.975245E-16	1.445503E-17
3.530000E+03	3.955098E-16	1.437660E-17
3.540000E+03	3.935311E-16	1.429951E-17
3.550000E+03	3.916157E-16	1.422476E-17
3.560000E+03	3.897360E-16	1.415133E-17
3.570000E+03	3.878936E-16	1.407929E-17
3.580000E+03	3.861157E-16	1.400962E-17
3.590000E+03	3.844035E-16	1.394236E-17
3.600000E+03	3.827589E-16	1.387758E-17
3.610000E+03	3.811842E-16	1.381536E-17
3.620000E+03	3.796824E-16	1.375580E-17
3.630000E+03	3.782803E-16	1.369988E-17
3.640000E+03	3.769587E-16	1.364689E-17
3.650000E+03	3.757441E-16	1.359780E-17
3.660000E+03	3.746412E-16	1.355275E-17
3.670000E+03	3.736548E-16	1.351194E-17
3.680000E+03	3.728106E-16	1.347627E-17
3.690000E+03	3.720932E-16	1.344519E-17
3.700000E+03	3.715285E-16	1.341963E-17
3.710000E+03	3.711027E-16	1.339909E-17
3.720000E+03	3.708606E-16	1.338516E-17
3.730000E+03	3.707883E-16	1.337736E-17
3.740000E+03	3.708916E-16	1.337587E-17
3.750000E+03	3.711942E-16	1.338155E-17
3.760000E+03	3.716826E-16	1.339390E-17
3.770000E+03	3.723964E-16	1.341434E-17
3.780000E+03	3.733031E-16	1.344169E-17
3.790000E+03	3.744393E-16	1.347725E-17
3.800000E+03	3.757875E-16	1.352039E-17
3.810000E+03	3.773466E-16	1.357107E-17
3.820000E+03	3.791291E-16	1.362971E-17
3.830000E+03	3.811290E-16	1.369610E-17
3.840000E+03	3.833535E-16	1.377049E-17
3.850000E+03	3.857602E-16	1.385133E-17
3.860000E+03	3.883519E-16	1.393873E-17
3.870000E+03	3.911276E-16	1.403263E-17
3.880000E+03	3.940687E-16	1.413238E-17
3.890000E+03	3.971397E-16	1.423668E-17
3.900000E+03	4.003323E-16	1.434522E-17
3.910000E+03	4.036360E-16	1.445764E-17
3.920000E+03	4.069949E-16	1.457192E-17
3.930000E+03	4.103954E-16	1.468757E-17
3.940000E+03	4.138073E-16	1.480352E-17
3.950000E+03	4.172136E-16	1.491915E-17
3.960000E+03	4.205552E-16	1.503234E-17
3.970000E+03	4.238403E-16	1.514340E-17
3.980000E+03	4.269962E-16	1.524974E-17
3.990000E+03	4.300174E-16	1.535115E-17
4.000000E+03	4.328722E-16	1.544652E-17
4.010000E+03	4.355179E-16	1.553433E-17
4.020000E+03	4.379269E-16	1.561360E-17
4.030000E+03	4.400747E-16	1.568348E-17
4.040000E+03	4.419521E-16	1.574365E-17
4.050000E+03	4.435301E-16	1.579308E-17
4.060000E+03	4.447965E-16	1.583135E-17
4.070000E+03	4.457330E-16	1.585784E-17
4.080000E+03	4.463612E-16	1.587332E-17
4.090000E+03	4.466622E-16	1.587714E-17
4.100000E+03	4.466454E-16	1.586964E-17
4.110000E+03	4.463357E-16	1.585173E-17
4.120000E+03	4.457300E-16	1.582330E-17
4.130000E+03	4.448612E-16	1.578555E-17
4.140000E+03	4.437452E-16	1.573904E-17
4.150000E+03	4.424012E-16	1.568447E-17
4.160000E+03	4.408801E-16	1.562365E-17
4.170000E+03	4.391865E-16	1.555676E-17
4.180000E+03	4.373558E-16	1.548506E-17
4.190000E+03	4.354333E-16	1.541015E-17
4.200000E+03	4.334288E-16	1.533239E-17
4.210000E+03	4.313961E-16	1.525369E-17
4.220000E+03	4.293458E-16	1.517442E-17
4.230000E+03	4.273215E-16	1.509613E-17
4.240000E+03	4.253409E-16	1.501943E-17
4.250000E+03	4.234367E-16	1.494548E-17
4.260000E+03	4.216246E-16	1.487483E-17
4.270000E+03	4.199347E-16	1.480854E-17
4.280000E+03	4.183881E-16	1.474734E-17
4.290000E+03	4.169975E-16	1.469169E-17
4.300000E+03	4.157829E-16	1.464227E-17
4.310000E+03	4.147632E-16	1.459974E-17
4.320000E+03	4.139568E-16	1.456474E-17
4.330000E+03	4.133683E-16	1.453742E-17
4.340000E+03	4.130292E-16	1.451888E-17
4.350000E+03	4.129368E-16	1.450902E-17
4.360000E+03	4.131213E-16	1.450888E-17
4.370000E+03	4.135731E-16	1.451811E-17
4.380000E+03	4.143210E-16	1.453771E-17
4.390000E+03	4.153731E-16	1.456795E-17
4.400000E+03	4.167373E-16	1.460910E-17
4.410000E+03	4.184192E-16	1.466132E-17
4.420000E+03	4.204281E-16	1.472494E-17
4.430000E+03	4.227699E-16	1.480015E-17
4.440000E+03	4.254464E-16	1.488699E-17
4.450000E+03	4.284547E-16	1.498535E-17
4.460000E+03	4.317808E-16	1.509472E-17
4.470000E+03	4.354222E-16	1.521499E-17
4.480000E+03	4.393518E-16	1.534521E-17
4.490000E+03	4.435471E-16	1.548458E-17
4.500000E+03	4.479835E-16	1.563222E-17
4.510000E+03	4.526160E-16	1.578656E-17
4.520000E+03	4.574090E-16	1.594635E-17
4.530000E+03	4.623063E-16	1.610961E-17
4.540000E+03	4.672433E-16	1.627409E-17
4.550000E+03	4.721535E-16	1.643749E-17
4.560000E+03	4.769700E-16	1.659746E-17
4.570000E+03	4.816074E-16	1.675105E-17
4.580000E+03	4.859891E-16	1.689560E-17
4.590000E+03	4.900240E-16	1.702796E-17
4.600000E+03	4.936277E-16	1.714521E-17
4.610000E+03	4.967316E-16	1.724500E-17
4.620000E+03	4.992486E-16	1.732433E-17
4.630000E+03	5.011197E-16	1.738117E-17
4.640000E+03	5.022982E-16	1.741394E-17
4.650000E+03	5.027399E-16	1.742115E-17
4.660000E+03	5.024238E-16	1.740210E-17
4.670000E+03	5.013592E-16	1.735716E-17
4.680000E+03	4.995497E-16	1.728647E-17
4.690000E+03	4.970353E-16	1.719147E-17
4.700000E+03	4.938668E-16	1.707394E-17
4.710000E+03	4.901103E-16	1.693621E-17
4.720000E+03	4.858384E-16	1.678079E-17
4.730000E+03	4.811513E-16	1.661119E-17
4.740000E+03	4.761324E-16	1.643030E-17
4.750000E+03	4.708758E-16	1.624137E-17
4.760000E+03	4.654881E-16	1.604810E-17
4.770000E+03	4.600581E-16	1.585356E-17
4.780000E+03	4.546831E-16	1.566109E-17
4.790000E+03	4.494561E-16	1.547390E-17
4.800000E+03	4.444591E-16	1.529480E-17
4.810000E+03	4.397678E-16	1.512638E-17
4.820000E+03	4.354610E-16	1.497134E-17
4.830000E+03	4.315889E-16	1.483138E-17
4.840000E+03	4.282133E-16	1.470861E-17
4.850000E+03	4.253719E-16	1.460430E-17
4.860000E+03	4.230974E-16	1.451954E-17
4.870000E+03	4.214177E-16	1.445526E-17
4.880000E+03	4.203350E-16	1.441152E-17
4.890000E+03	4.198552E-16	1.438848E-17
4.900000E+03	4.199668E-16	1.438573E-17
4.910000E+03	4.206362E-16	1.440208E-17
4.920000E+03	4.218353E-16	1.443655E-17
4.930000E+03	4.235078E-16	1.448719E-17
4.940000E+03	4.255879E-16	1.455172E-17
4.950000E+03	4.279926E-16	1.462729E-17
4.960000E+03	4.306332E-16	1.471086E-17
4.970000E+03	4.334186E-16	1.479931E-17
4.980000E+03	4.362402E-16	1.488891E-17
4.990000E+03	4.390107E-16	1.497670E-17
5.000000E+03	4.416307E-16	1.505929E-17
5.010000E+03	4.440228E-16	1.513404E-17
5.020000E+03	4.461313E-16	1.519907E-17
5.030000E+03	4.479109E-16	1.525285E-17
5.040000E+03	4.493476E-16	1.529492E-17
5.050000E+03	4.504390E-16	1.532521E-17
5.060000E+03	4.512074E-16	1.534450E-17
5.070000E+03	4.516915E-16	1.535412E-17
5.080000E+03	4.519425E-16	1.535582E-17
5.090000E+03	4.520254E-16	1.535182E-17
5.100000E+03	4.519945E-16	1.534397E-17
5.110000E+03	4.519254E-16	1.533484E-17
5.120000E+03	4.518718E-16	1.532626E-17
5.130000E+03	4.519034E-16	1.532059E-17
5.140000E+03	4.520698E-16	1.531950E-17
5.150000E+03	4.524187E-16	1.532461E-17
5.160000E+03	4.529918E-16	1.533732E-17
5.170000E+03	4.538236E-16	1.535878E-17
5.180000E+03	4.549469E-16	1.539011E-17
5.190000E+03	4.563740E-16	1.543169E-17
5.200000E+03	4.581306E-16	1.548439E-17
5.210000E+03	4.602231E-16	1.554841E-17
5.220000E+03	4.626575E-16	1.562393E-17
5.230000E+03	4.654408E-16	1.571119E-17
5.240000E+03	4.685611E-16	1.580976E-17
5.250000E+03	4.720227E-16	1.591977E-17
5.260000E+03	4.758115E-16	1.604074E-17
5.270000E+03	4.799203E-16	1.617242E-17
5.280000E+03	4.843238E-16	1.631392E-17
5.290000E+03	4.890134E-16	1.646497E-17
5.300000E+03	4.939630E-16	1.662466E-17
5.310000E+03	4.991531E-16	1.679233E-17
5.320000E+03	5.045459E-16	1.696670E-17
5.330000E+03	5.101209E-16	1.714707E-17
5.340000E+03	5.158383E-16	1.733211E-17
5.350000E+03	5.216586E-16	1.752048E-17
5.360000E+03	5.275425E-16	1.771085E-17
5.370000E+03	5.334272E-16	1.790113E-17
5.380000E+03	5.392632E-16	1.808965E-17
5.390000E+03	5.449693E-16	1.827369E-17
5.400000E+03	5.504776E-16	1.845098E-17
5.410000E+03	5.556966E-16	1.861847E-17
5.420000E+03	5.605297E-16	1.877294E-17
5.430000E+03	5.648939E-16	1.891161E-17
5.440000E+03	5.686813E-16	1.903091E-17
5.450000E+03	5.718013E-16	1.912781E-17
5.460000E+03	5.741589E-16	1.919919E-17
5.470000E+03	5.756574E-16	1.924182E-17
5.480000E+03	5.762183E-16	1.925313E-17
5.490000E+03	5.757613E-16	1.923046E-17
5.500000E+03	5.742248E-16	1.917180E-17
5.510000E+03	5.715585E-16	1.907552E-17
5.520000E+03	5.677378E-16	1.894083E-17
5.530000E+03	5.627672E-16	1.876793E-17
5.540000E+03	5.566695E-16	1.855762E-17
5.550000E+03	5.494994E-16	1.831177E-17
5.560000E+03	5.413255E-16	1.803269E-17
5.570000E+03	5.322562E-16	1.772403E-17
5.580000E+03	5.223983E-16	1.738939E-17
5.590000E+03	5.118965E-16	1.703360E-17
5.600000E+03	5.008961E-16	1.666151E-17
5.610000E+03	4.895407E-16	1.627792E-17
5.620000E+03	4.779962E-16	1.588836E-17
5.630000E+03	4.664179E-16	1.549798E-17
5.640000E+03	4.549516E-16	1.511163E-17
5.650000E+03	4.437412E-16	1.473408E-17
5.660000E+03	4.329239E-16	1.436988E-17
5.670000E+03	4.226175E-16	1.402291E-17
5.680000E+03	4.129347E-16	1.369689E-17
5.690000E+03	4.039620E-16	1.339468E-17
5.700000E+03	3.957885E-16	1.311919E-17
5.710000E+03	3.884802E-16	1.287259E-17
5.720000E+03	3.820849E-16	1.265642E-17
5.730000E+03	3.766400E-16	1.247190E-17
5.740000E+03	3.721681E-16	1.231974E-17
5.750000E+03	3.686773E-16	1.220018E-17
5.760000E+03	3.661607E-16	1.211295E-17
5.770000E+03	3.646009E-16	1.205744E-17
5.780000E+03	3.639553E-16	1.203223E-17
5.790000E+03	3.641784E-16	1.203577E-17
5.800000E+03	3.652090E-16	1.206601E-17
5.810000E+03	3.669751E-16	1.212056E-17
5.820000E+03	3.693907E-16	1.219655E-17
5.830000E+03	3.723698E-16	1.229113E-17
5.840000E+03	3.758170E-16	1.240113E-17
5.850000E+03	3.796257E-16	1.252302E-17
5.860000E+03	3.837026E-16	1.265371E-17
5.870000E+03	3.879443E-16	1.278980E-17
5.880000E+03	3.922533E-16	1.292805E-17
5.890000E+03	3.965361E-16	1.306540E-17
5.900000E+03	4.007051E-16	1.319896E-17
5.910000E+03	4.046752E-16	1.332593E-17
5.920000E+03	4.083734E-16	1.344392E-17
5.930000E+03	4.117392E-16	1.355095E-17
5.940000E+03	4.147142E-16	1.364509E-17
5.950000E+03	4.172501E-16	1.372478E-17
5.960000E+03	4.193179E-16	1.378908E-17
5.970000E+03	4.208916E-16	1.383715E-17
5.980000E+03	4.219614E-16	1.386867E-17
5.990000E+03	4.225288E-16	1.388371E-17
6.000000E+03	4.226070E-16	1.388272E-17
6.010000E+03	4.222156E-16	1.386636E-17
6.020000E+03	4.213842E-16	1.383560E-17
6.030000E+03	4.201595E-16	1.379200E-17
6.040000E+03	4.185917E-16	1.373720E-17
6.050000E+03	4.167294E-16	1.367283E-17
6.060000E+03	4.146385E-16	1.360102E-17
6.070000E+03	4.123767E-16	1.352371E-17
6.080000E+03	4.100162E-16	1.344324E-17
6.090000E+03	4.076223E-16	1.336176E-17
6.100000E+03	4.052644E-16	1.328155E-17
6.110000E+03	4.030066E-16	1.320470E-17
6.120000E+03	4.009105E-16	1.313324E-17
6.130000E+03	3.990379E-16	1.306918E-17
6.140000E+03	3.974454E-16	1.301438E-17
6.150000E+03	3.961837E-16	1.297047E-17
6.160000E+03	3.952920E-16	1.293875E-17
6.170000E+03	3.948085E-16	1.292046E-17
6.180000E+03	3.947579E-16	1.291639E-17
6.190000E+03	3.951582E-16	1.292713E-17
6.200000E+03	3.960124E-16	1.295277E-17
6.210000E+03	3.973082E-16	1.299290E-17
6.220000E+03	3.990320E-16	1.304707E-17
6.230000E+03	4.011466E-16	1.311405E-17
6.240000E+03	4.036046E-16	1.319229E-17
6.250000E+03	4.063555E-16	1.328013E-17
6.260000E+03	4.093158E-16	1.337485E-17
6.270000E+03	4.124053E-16	1.347381E-17
6.280000E+03	4.155401E-16	1.357428E-17
6.290000E+03	4.186405E-16	1.367366E-17
6.300000E+03	4.216145E-16	1.376893E-17
6.310000E+03	4.243889E-16	1.385772E-17
6.320000E+03	4.269047E-16	1.393810E-17
6.330000E+03	4.291005E-16	1.400807E-17
6.340000E+03	4.309394E-16	1.406643E-17
6.350000E+03	4.323773E-16	1.411174E-17
6.360000E+03	4.333973E-16	1.414346E-17
6.370000E+03	4.339816E-16	1.416101E-17
6.380000E+03	4.341230E-16	1.416417E-17
6.390000E+03	4.338099E-16	1.415254E-17
6.400000E+03	4.330421E-16	1.412615E-17
6.410000E+03	4.318226E-16	1.408508E-17
6.420000E+03	4.301470E-16	1.402919E-17
6.430000E+03	4.280180E-16	1.395858E-17
6.440000E+03	4.254512E-16	1.387376E-17
6.450000E+03	4.224536E-16	1.377495E-17
6.460000E+03	4.190481E-16	1.366292E-17
6.470000E+03	4.152617E-16	1.353853E-17
6.480000E+03	4.111307E-16	1.340297E-17
6.490000E+03	4.067050E-16	1.325787E-17
6.500000E+03	4.020309E-16	1.310474E-17
6.510000E+03	3.971827E-16	1.294600E-17
6.520000E+03	3.922183E-16	1.278354E-17
6.530000E+03	3.872088E-16	1.261967E-17
6.540000E+03	3.822187E-16	1.245649E-17
6.550000E+03	3.773026E-16	1.229578E-17
6.560000E+03	3.725138E-16	1.213928E-17
6.570000E+03	3.678863E-16	1.198808E-17
6.580000E+03	3.634491E-16	1.184314E-17
6.590000E+03	3.592143E-16	1.170484E-17
6.600000E+03	3.551817E-16	1.157319E-17
6.610000E+03	3.513376E-16	1.144771E-17
6.620000E+03	3.476717E-16	1.132809E-17
6.630000E+03	3.441570E-16	1.121344E-17
6.640000E+03	3.407677E-16	1.110291E-17
6.650000E+03	3.374774E-16	1.099565E-17
6.660000E+03	3.342648E-16	1.089096E-17
6.670000E+03	3.311041E-16	1.078800E-17
6.680000E+03	3.279809E-16	1.068630E-17
6.690000E+03	3.248822E-16	1.058543E-17
6.700000E+03	3.217975E-16	1.048505E-17
6.710000E+03	3.187291E-16	1.038524E-17
6.720000E+03	3.156819E-16	1.028615E-17
6.730000E+03	3.126627E-16	1.018801E-17
6.740000E+03	3.096946E-16	1.009155E-17
6.750000E+03	3.067907E-16	9.997224E-18
6.760000E+03	3.039790E-16	9.905927E-18
6.770000E+03	3.012905E-16	9.818677E-18
6.780000E+03	2.987492E-16	9.736248E-18
6.790000E+03	2.963916E-16	9.659835E-18
6.800000E+03	2.942526E-16	9.590572E-18
6.810000E+03	2.923685E-16	9.529644E-18
6.820000E+03	2.907768E-16	9.478278E-18
6.830000E+03	2.895158E-16	9.437716E-18
6.840000E+03	2.886237E-16	9.409211E-18
6.850000E+03	2.881417E-16	9.394104E-18
6.860000E+03	2.880995E-16	9.393368E-18
6.870000E+03	2.885344E-16	9.408223E-18
6.880000E+03	2.894798E-16	9.439760E-18
6.890000E+03	2.909535E-16	9.488566E-18
6.900000E+03	2.929796E-16	9.555430E-18
6.910000E+03	2.955591E-16	9.640390E-18
6.920000E+03	2.986948E-16	9.743543E-18
6.930000E+03	3.023653E-16	9.864199E-18
6.940000E+03	3.065358E-16	1.000123E-17
6.950000E+03	3.111495E-16	1.015278E-17
6.960000E+03	3.161413E-16	1.031674E-17
6.970000E+03	3.214203E-16	1.049015E-17
6.980000E+03	3.268715E-16	1.066926E-17
6.990000E+03	3.323803E-16	1.085032E-17
7.000000E+03	3.378231E-16	1.102932E-17
7.010000E+03	3.430851E-16	1.120250E-17
7.020000E+03	3.480517E-16	1.136612E-17
7.030000E+03	3.526467E-16	1.151769E-17
7.040000E+03	3.568104E-16	1.165526E-17
7.050000E+03	3.605165E-16	1.177796E-17
7.060000E+03	3.637861E-16	1.188647E-17
7.070000E+03	3.666595E-16	1.198212E-17
7.080000E+03	3.692096E-16	1.206728E-17
7.090000E+03	3.715302E-16	1.214502E-17
7.100000E+03	3.737285E-16	1.221882E-17
7.110000E+03	3.759170E-16	1.229239E-17
7.120000E+03	3.782108E-16	1.236947E-17
7.130000E+03	3.807021E-16	1.245309E-17
7.140000E+03	3.834824E-16	1.254624E-17
7.150000E+03	3.866253E-16	1.265135E-17
7.160000E+03	3.901726E-16	1.276978E-17
7.170000E+03	3.941473E-16	1.290231E-17
7.180000E+03	3.985475E-16	1.304887E-17
7.190000E+03	4.033467E-16	1.320861E-17
7.200000E+03	4.084987E-16	1.338004E-17
7.210000E+03	4.139195E-16	1.356039E-17
7.220000E+03	4.195240E-16	1.374691E-17
7.230000E+03	4.251937E-16	1.393569E-17
7.240000E+03	4.308048E-16	1.412271E-17
7.250000E+03	4.362119E-16	1.430318E-17
7.260000E+03	4.412682E-16	1.447230E-17
7.270000E+03	4.458318E-16	1.462540E-17
7.280000E+03	4.497549E-16	1.475763E-17
7.290000E+03	4.529072E-16	1.486469E-17
7.300000E+03	4.551824E-16	1.494308E-17
7.310000E+03	4.564921E-16	1.498988E-17
7.320000E+03	4.567696E-16	1.500287E-17
7.330000E+03	4.559908E-16	1.498124E-17
7.340000E+03	4.541502E-16	1.492478E-17
7.350000E+03	4.512837E-16	1.483464E-17
7.360000E+03	4.474470E-16	1.471262E-17
7.370000E+03	4.427109E-16	1.456103E-17
7.380000E+03	4.371743E-16	1.438308E-17
7.390000E+03	4.309402E-16	1.418216E-17
7.400000E+03	4.241113E-16	1.396160E-17
7.410000E+03	4.168028E-16	1.372519E-17
7.420000E+03	4.091271E-16	1.347662E-17
7.430000E+03	4.011811E-16	1.321905E-17
7.440000E+03	3.930618E-16	1.295568E-17
7.450000E+03	3.848649E-16	1.268965E-17
7.460000E+03	3.766696E-16	1.242356E-17
7.470000E+03	3.685499E-16	1.215986E-17
7.480000E+03	3.605890E-16	1.190129E-17
7.490000E+03	3.528404E-16	1.164962E-17
7.500000E+03	3.453771E-16	1.140725E-17
7.510000E+03	3.382519E-16	1.117595E-17
7.520000E+03	3.315210E-16	1.095756E-17
7.530000E+03	3.252204E-16	1.075331E-17
7.540000E+03	3.193958E-16	1.056469E-17
7.550000E+03	3.140693E-16	1.039248E-17
7.560000E+03	3.092554E-16	1.023714E-17
7.570000E+03	3.049747E-16	1.009940E-17
7.580000E+03	3.012263E-16	9.979227E-18
7.590000E+03	2.980176E-16	9.876889E-18
7.600000E+03	2.953480E-16	9.792392E-18
7.610000E+03	2.932143E-16	9.725644E-18
7.620000E+03	2.916056E-16	9.676303E-18
7.630000E+03	2.905117E-16	9.644051E-18
7.640000E+03	2.899265E-16	9.628709E-18
7.650000E+03	2.898203E-16	9.629306E-18
7.660000E+03	2.901781E-16	9.645368E-18
7.670000E+03	2.909720E-16	9.675980E-18
7.680000E+03	2.921638E-16	9.719896E-18
7.690000E+03	2.937132E-16	9.775791E-18
7.700000E+03	2.955770E-16	9.842238E-18
7.710000E+03	2.976974E-16	9.917330E-18
7.720000E+03	3.000144E-16	9.999075E-18
7.730000E+03	3.024665E-16	1.008544E-17
7.740000E+03	3.049807E-16	1.017398E-17
7.750000E+03	3.074898E-16	1.026247E-17
7.760000E+03	3.099185E-16	1.034839E-17
