#wls	flux	fluxerr
1.600000E+03	3.720686E-16	9.142983E-18
1.640000E+03	3.799514E-16	9.335245E-18
1.680000E+03	3.877025E-16	9.524173E-18
1.720000E+03	3.953619E-16	9.710746E-18
1.760000E+03	4.028174E-16	9.892211E-18
1.800000E+03	4.101870E-16	1.007146E-17
1.840000E+03	4.173563E-16	1.024569E-17
1.880000E+03	4.243667E-16	1.041590E-17
1.920000E+03	4.310976E-16	1.057915E-17
1.960000E+03	4.376729E-16	1.073846E-17
2.000000E+03	4.438858E-16	1.088878E-17
2.040000E+03	4.498611E-16	1.103315E-17
2.080000E+03	4.554719E-16	1.116847E-17
2.120000E+03	4.607602E-16	1.129578E-17
2.160000E+03	4.657692E-16	1.141612E-17
2.200000E+03	4.702829E-16	1.152421E-17
2.240000E+03	4.744300E-16	1.162321E-17
2.280000E+03	4.781671E-16	1.171206E-17
2.320000E+03	4.814504E-16	1.178969E-17
2.360000E+03	4.842365E-16	1.185505E-17
2.400000E+03	4.866534E-16	1.191126E-17
2.440000E+03	4.884863E-16	1.195309E-17
2.480000E+03	4.898617E-16	1.198363E-17
2.520000E+03	4.908172E-16	1.200382E-17
2.560000E+03	4.912238E-16	1.201049E-17
2.600000E+03	4.911175E-16	1.200456E-17
2.640000E+03	4.905297E-16	1.198678E-17
2.680000E+03	4.894862E-16	1.195781E-17
2.720000E+03	4.879313E-16	1.191629E-17
2.760000E+03	4.859553E-16	1.186443E-17
2.800000E+03	4.834911E-16	1.180060E-17
2.840000E+03	4.806780E-16	1.172823E-17
2.880000E+03	4.774297E-16	1.164521E-17
2.920000E+03	4.737885E-16	1.155258E-17
2.960000E+03	4.698409E-16	1.145247E-17
3.000000E+03	4.654676E-16	1.134197E-17
3.010000E+03	4.643160E-16	1.131292E-17
3.020000E+03	4.631720E-16	1.128406E-17
3.030000E+03	4.619748E-16	1.125390E-17
3.040000E+03	4.607799E-16	1.122381E-17
3.050000E+03	4.595844E-16	1.119369E-17
3.060000E+03	4.583294E-16	1.116213E-17
3.070000E+03	4.570689E-16	1.113043E-17
3.080000E+03	4.557453E-16	1.109720E-17
3.090000E+03	4.544650E-16	1.106502E-17
3.100000E+03	4.531170E-16	1.103120E-17
3.110000E+03	4.518052E-16	1.099826E-17
3.120000E+03	4.504212E-16	1.096356E-17
3.130000E+03	4.490661E-16	1.092957E-17
3.140000E+03	4.476346E-16	1.089372E-17
3.150000E+03	4.462253E-16	1.085841E-17
3.160000E+03	4.447846E-16	1.082234E-17
3.170000E+03	4.433098E-16	1.078544E-17
3.180000E+03	4.417985E-16	1.074765E-17
3.190000E+03	4.402954E-16	1.071007E-17
3.200000E+03	4.387960E-16	1.067258E-17
3.210000E+03	4.372505E-16	1.063397E-17
3.220000E+03	4.357018E-16	1.059528E-17
3.230000E+03	4.341015E-16	1.055535E-17
3.240000E+03	4.324914E-16	1.051517E-17
3.250000E+03	4.308678E-16	1.047468E-17
3.260000E+03	4.292269E-16	1.043376E-17
3.270000E+03	4.275655E-16	1.039235E-17
3.280000E+03	4.258801E-16	1.035036E-17
3.290000E+03	4.241675E-16	1.030772E-17
3.300000E+03	4.224645E-16	1.026530E-17
3.310000E+03	4.206881E-16	1.022112E-17
3.320000E+03	4.189529E-16	1.017793E-17
3.330000E+03	4.171395E-16	1.013285E-17
3.340000E+03	4.153589E-16	1.008857E-17
3.350000E+03	4.135322E-16	1.004318E-17
3.360000E+03	4.116938E-16	9.997506E-18
3.370000E+03	4.098403E-16	9.951470E-18
3.380000E+03	4.079686E-16	9.904999E-18
3.390000E+03	4.060764E-16	9.858034E-18
3.400000E+03	4.041945E-16	9.811323E-18
3.410000E+03	4.022866E-16	9.763987E-18
3.420000E+03	4.003513E-16	9.715992E-18
3.430000E+03	3.984189E-16	9.668075E-18
3.440000E+03	3.964566E-16	9.619435E-18
3.450000E+03	3.945246E-16	9.571538E-18
3.460000E+03	3.925598E-16	9.522851E-18
3.470000E+03	3.906202E-16	9.474782E-18
3.480000E+03	3.886736E-16	9.426547E-18
3.490000E+03	3.867183E-16	9.378108E-18
3.500000E+03	3.847803E-16	9.330094E-18
3.510000E+03	3.828299E-16	9.281788E-18
3.520000E+03	3.808931E-16	9.233816E-18
3.530000E+03	3.789684E-16	9.186144E-18
3.540000E+03	3.770549E-16	9.138751E-18
3.550000E+03	3.751526E-16	9.091634E-18
3.560000E+03	3.732862E-16	9.045394E-18
3.570000E+03	3.714320E-16	8.999457E-18
3.580000E+03	3.695921E-16	8.953872E-18
3.590000E+03	3.678145E-16	8.909801E-18
3.600000E+03	3.660555E-16	8.866187E-18
3.610000E+03	3.643627E-16	8.824183E-18
3.620000E+03	3.627178E-16	8.783345E-18
3.630000E+03	3.611257E-16	8.743789E-18
3.640000E+03	3.596126E-16	8.706153E-18
3.650000E+03	3.581646E-16	8.670095E-18
3.660000E+03	3.568279E-16	8.636738E-18
3.670000E+03	3.555709E-16	8.605311E-18
3.680000E+03	3.544396E-16	8.576932E-18
3.690000E+03	3.534232E-16	8.551336E-18
3.700000E+03	3.525309E-16	8.528742E-18
3.710000E+03	3.518076E-16	8.510239E-18
3.720000E+03	3.512282E-16	8.495216E-18
3.730000E+03	3.508208E-16	8.484354E-18
3.740000E+03	3.505970E-16	8.477932E-18
3.750000E+03	3.505849E-16	8.476623E-18
3.760000E+03	3.507799E-16	8.480320E-18
3.770000E+03	3.512101E-16	8.489696E-18
3.780000E+03	3.518862E-16	8.505012E-18
3.790000E+03	3.528031E-16	8.526139E-18
3.800000E+03	3.539980E-16	8.553974E-18
3.810000E+03	3.554603E-16	8.588260E-18
3.820000E+03	3.571924E-16	8.629050E-18
3.830000E+03	3.592071E-16	8.676655E-18
3.840000E+03	3.614995E-16	8.730950E-18
3.850000E+03	3.640465E-16	8.791376E-18
3.860000E+03	3.668472E-16	8.857912E-18
3.870000E+03	3.698824E-16	8.930088E-18
3.880000E+03	3.731294E-16	9.007353E-18
3.890000E+03	3.765623E-16	9.089084E-18
3.900000E+03	3.801660E-16	9.174913E-18
3.910000E+03	3.838843E-16	9.263483E-18
3.920000E+03	3.877119E-16	9.354662E-18
3.930000E+03	3.916161E-16	9.447661E-18
3.940000E+03	3.955504E-16	9.541362E-18
3.950000E+03	3.994812E-16	9.634950E-18
3.960000E+03	4.033869E-16	9.727903E-18
3.970000E+03	4.072328E-16	9.819389E-18
3.980000E+03	4.109606E-16	9.908000E-18
3.990000E+03	4.145730E-16	9.993800E-18
4.000000E+03	4.179997E-16	1.007510E-17
4.010000E+03	4.212310E-16	1.015167E-17
4.020000E+03	4.242335E-16	1.022270E-17
4.030000E+03	4.269535E-16	1.028690E-17
4.040000E+03	4.293748E-16	1.034388E-17
4.050000E+03	4.314851E-16	1.039335E-17
4.060000E+03	4.332435E-16	1.043434E-17
4.070000E+03	4.346383E-16	1.046655E-17
4.080000E+03	4.356740E-16	1.049010E-17
4.090000E+03	4.363392E-16	1.050472E-17
4.100000E+03	4.366387E-16	1.051054E-17
4.110000E+03	4.365725E-16	1.050754E-17
4.120000E+03	4.361654E-16	1.049634E-17
4.130000E+03	4.354173E-16	1.047694E-17
4.140000E+03	4.343720E-16	1.045038E-17
4.150000E+03	4.330298E-16	1.041669E-17
4.160000E+03	4.314339E-16	1.037690E-17
4.170000E+03	4.296217E-16	1.033192E-17
4.180000E+03	4.276160E-16	1.028229E-17
4.190000E+03	4.254681E-16	1.022925E-17
4.200000E+03	4.232132E-16	1.017366E-17
4.210000E+03	4.208864E-16	1.011634E-17
4.220000E+03	4.185291E-16	1.005831E-17
4.230000E+03	4.161807E-16	1.000050E-17
4.240000E+03	4.138620E-16	9.943422E-18
4.250000E+03	4.116066E-16	9.887874E-18
4.260000E+03	4.094368E-16	9.834395E-18
4.270000E+03	4.073801E-16	9.783647E-18
4.280000E+03	4.054472E-16	9.735880E-18
4.290000E+03	4.036680E-16	9.691815E-18
4.300000E+03	4.020437E-16	9.651480E-18
4.310000E+03	4.006092E-16	9.615708E-18
4.320000E+03	3.993587E-16	9.584359E-18
4.330000E+03	3.983198E-16	9.558095E-18
4.340000E+03	3.975006E-16	9.537105E-18
4.350000E+03	3.969224E-16	9.521902E-18
4.360000E+03	3.965885E-16	9.512560E-18
4.370000E+03	3.965219E-16	9.509630E-18
4.380000E+03	3.967336E-16	9.513373E-18
4.390000E+03	3.972406E-16	9.524191E-18
4.400000E+03	3.980467E-16	9.542176E-18
4.410000E+03	3.991663E-16	9.567667E-18
4.420000E+03	4.006004E-16	9.600685E-18
4.430000E+03	4.023474E-16	9.641193E-18
4.440000E+03	4.044087E-16	9.689215E-18
4.450000E+03	4.067760E-16	9.744554E-18
4.460000E+03	4.094472E-16	9.807154E-18
4.470000E+03	4.124307E-16	9.877215E-18
4.480000E+03	4.157223E-16	9.954631E-18
4.490000E+03	4.193022E-16	1.003893E-17
4.500000E+03	4.231645E-16	1.012995E-17
4.510000E+03	4.272625E-16	1.022660E-17
4.520000E+03	4.315642E-16	1.032809E-17
4.530000E+03	4.360244E-16	1.043334E-17
4.540000E+03	4.405907E-16	1.054110E-17
4.550000E+03	4.451970E-16	1.064979E-17
4.560000E+03	4.497754E-16	1.075777E-17
4.570000E+03	4.542448E-16	1.086312E-17
4.580000E+03	4.585225E-16	1.096385E-17
4.590000E+03	4.625150E-16	1.105773E-17
4.600000E+03	4.661331E-16	1.114263E-17
4.610000E+03	4.692887E-16	1.121646E-17
4.620000E+03	4.718866E-16	1.127694E-17
4.630000E+03	4.738641E-16	1.132257E-17
4.640000E+03	4.751431E-16	1.135150E-17
4.650000E+03	4.756848E-16	1.136281E-17
4.660000E+03	4.754636E-16	1.135590E-17
4.670000E+03	4.744718E-16	1.133059E-17
4.680000E+03	4.727227E-16	1.128720E-17
4.690000E+03	4.702666E-16	1.122694E-17
4.700000E+03	4.671500E-16	1.115094E-17
4.710000E+03	4.634471E-16	1.106096E-17
4.720000E+03	4.592494E-16	1.095921E-17
4.730000E+03	4.546533E-16	1.084797E-17
4.740000E+03	4.497558E-16	1.072958E-17
4.750000E+03	4.446665E-16	1.060664E-17
4.760000E+03	4.394884E-16	1.048163E-17
4.770000E+03	4.343215E-16	1.035692E-17
4.780000E+03	4.292703E-16	1.023500E-17
4.790000E+03	4.244131E-16	1.011774E-17
4.800000E+03	4.198274E-16	1.000699E-17
4.810000E+03	4.155846E-16	9.904444E-18
4.820000E+03	4.117445E-16	9.811523E-18
4.830000E+03	4.083651E-16	9.729605E-18
4.840000E+03	4.054925E-16	9.659785E-18
4.850000E+03	4.031694E-16	9.603072E-18
4.860000E+03	4.014255E-16	9.560173E-18
4.870000E+03	4.002871E-16	9.531703E-18
4.880000E+03	3.997693E-16	9.518018E-18
4.890000E+03	3.998732E-16	9.519137E-18
4.900000E+03	4.005921E-16	9.534896E-18
4.910000E+03	4.019090E-16	9.564880E-18
4.920000E+03	4.037790E-16	9.608021E-18
4.930000E+03	4.061595E-16	9.663295E-18
4.940000E+03	4.089698E-16	9.728778E-18
4.950000E+03	4.121248E-16	9.802440E-18
4.960000E+03	4.155153E-16	9.881685E-18
4.970000E+03	4.190073E-16	9.963324E-18
4.980000E+03	4.224607E-16	1.004402E-17
4.990000E+03	4.257254E-16	1.012021E-17
5.000000E+03	4.286544E-16	1.018840E-17
5.010000E+03	4.311112E-16	1.024535E-17
5.020000E+03	4.330087E-16	1.028900E-17
5.030000E+03	4.343147E-16	1.031858E-17
5.040000E+03	4.350458E-16	1.033450E-17
5.050000E+03	4.352517E-16	1.033794E-17
5.060000E+03	4.350104E-16	1.033076E-17
5.070000E+03	4.344159E-16	1.031520E-17
5.080000E+03	4.335650E-16	1.029355E-17
5.090000E+03	4.325534E-16	1.026810E-17
5.100000E+03	4.314610E-16	1.024074E-17
5.110000E+03	4.303642E-16	1.021329E-17
5.120000E+03	4.293291E-16	1.018731E-17
5.130000E+03	4.284177E-16	1.016427E-17
5.140000E+03	4.276791E-16	1.014534E-17
5.150000E+03	4.271494E-16	1.013137E-17
5.160000E+03	4.268618E-16	1.012315E-17
5.170000E+03	4.268532E-16	1.012156E-17
5.180000E+03	4.271367E-16	1.012688E-17
5.190000E+03	4.277337E-16	1.013964E-17
5.200000E+03	4.286575E-16	1.016015E-17
5.210000E+03	4.299162E-16	1.018859E-17
5.220000E+03	4.315137E-16	1.022505E-17
5.230000E+03	4.334502E-16	1.026953E-17
5.240000E+03	4.357204E-16	1.032192E-17
5.250000E+03	4.383157E-16	1.038199E-17
5.260000E+03	4.412230E-16	1.044943E-17
5.270000E+03	4.444304E-16	1.052397E-17
5.280000E+03	4.479132E-16	1.060501E-17
5.290000E+03	4.516492E-16	1.069203E-17
5.300000E+03	4.556185E-16	1.078454E-17
5.310000E+03	4.597853E-16	1.088171E-17
5.320000E+03	4.641349E-16	1.098319E-17
5.330000E+03	4.686216E-16	1.108788E-17
5.340000E+03	4.732205E-16	1.119521E-17
5.350000E+03	4.778933E-16	1.130426E-17
5.360000E+03	4.825873E-16	1.141378E-17
5.370000E+03	4.872642E-16	1.152288E-17
5.380000E+03	4.918704E-16	1.163028E-17
5.390000E+03	4.963366E-16	1.173435E-17
5.400000E+03	5.006084E-16	1.183379E-17
5.410000E+03	5.046123E-16	1.192689E-17
5.420000E+03	5.082821E-16	1.201207E-17
5.430000E+03	5.115343E-16	1.208736E-17
5.440000E+03	5.143031E-16	1.215122E-17
5.450000E+03	5.165009E-16	1.220158E-17
5.460000E+03	5.180599E-16	1.223684E-17
5.470000E+03	5.188923E-16	1.225494E-17
5.480000E+03	5.189325E-16	1.225433E-17
5.490000E+03	5.180988E-16	1.223310E-17
5.500000E+03	5.163374E-16	1.218997E-17
5.510000E+03	5.135942E-16	1.212368E-17
5.520000E+03	5.098195E-16	1.203307E-17
5.530000E+03	5.050102E-16	1.191807E-17
5.540000E+03	4.991598E-16	1.177854E-17
5.550000E+03	4.923130E-16	1.161553E-17
5.560000E+03	4.845286E-16	1.143046E-17
5.570000E+03	4.759007E-16	1.122554E-17
5.580000E+03	4.665453E-16	1.100352E-17
5.590000E+03	4.565910E-16	1.076744E-17
5.600000E+03	4.461745E-16	1.052051E-17
5.610000E+03	4.354364E-16	1.026608E-17
5.620000E+03	4.245241E-16	1.000760E-17
5.630000E+03	4.135778E-16	9.748388E-18
5.640000E+03	4.027393E-16	9.491782E-18
5.650000E+03	3.921433E-16	9.240961E-18
5.660000E+03	3.819205E-16	8.998996E-18
5.670000E+03	3.721800E-16	8.768455E-18
5.680000E+03	3.630340E-16	8.551978E-18
5.690000E+03	3.545719E-16	8.351667E-18
5.700000E+03	3.468777E-16	8.169490E-18
5.710000E+03	3.400098E-16	8.006820E-18
5.720000E+03	3.340217E-16	7.864908E-18
5.730000E+03	3.289527E-16	7.744673E-18
5.740000E+03	3.248195E-16	7.646498E-18
5.750000E+03	3.216338E-16	7.570654E-18
5.760000E+03	3.193924E-16	7.517055E-18
5.770000E+03	3.180803E-16	7.485343E-18
5.780000E+03	3.176673E-16	7.474798E-18
5.790000E+03	3.181071E-16	7.484326E-18
5.800000E+03	3.193418E-16	7.512556E-18
5.810000E+03	3.212979E-16	7.557757E-18
5.820000E+03	3.238804E-16	7.617685E-18
5.830000E+03	3.269891E-16	7.689981E-18
5.840000E+03	3.305042E-16	7.771822E-18
5.850000E+03	3.343137E-16	7.860576E-18
5.860000E+03	3.382991E-16	7.953452E-18
5.870000E+03	3.423694E-16	8.048312E-18
5.880000E+03	3.464326E-16	8.142990E-18
5.890000E+03	3.504146E-16	8.235750E-18
5.900000E+03	3.542436E-16	8.324899E-18
5.910000E+03	3.578612E-16	8.409072E-18
5.920000E+03	3.612094E-16	8.486904E-18
5.930000E+03	3.642416E-16	8.557303E-18
5.940000E+03	3.669185E-16	8.619353E-18
5.950000E+03	3.692111E-16	8.672370E-18
5.960000E+03	3.710868E-16	8.715592E-18
5.970000E+03	3.725309E-16	8.748680E-18
5.980000E+03	3.735342E-16	8.771417E-18
5.990000E+03	3.740939E-16	8.783743E-18
6.000000E+03	3.742207E-16	8.785912E-18
6.010000E+03	3.739352E-16	8.778411E-18
6.020000E+03	3.732726E-16	8.762067E-18
6.030000E+03	3.722658E-16	8.737656E-18
6.040000E+03	3.709624E-16	8.706297E-18
6.050000E+03	3.694192E-16	8.669326E-18
6.060000E+03	3.676874E-16	8.627944E-18
6.070000E+03	3.658346E-16	8.583741E-18
6.080000E+03	3.639132E-16	8.537945E-18
6.090000E+03	3.619941E-16	8.492220E-18
6.100000E+03	3.601359E-16	8.447940E-18
6.110000E+03	3.584091E-16	8.406759E-18
6.120000E+03	3.568779E-16	8.370182E-18
6.130000E+03	3.556055E-16	8.339691E-18
6.140000E+03	3.546641E-16	8.316976E-18
6.150000E+03	3.541127E-16	8.303418E-18
6.160000E+03	3.540078E-16	8.300343E-18
6.170000E+03	3.544014E-16	8.308968E-18
6.180000E+03	3.553327E-16	8.330204E-18
6.190000E+03	3.568300E-16	8.364719E-18
6.200000E+03	3.588929E-16	8.412496E-18
6.210000E+03	3.615104E-16	8.473278E-18
6.220000E+03	3.646587E-16	8.546502E-18
6.230000E+03	3.682869E-16	8.630975E-18
6.240000E+03	3.723332E-16	8.725245E-18
6.250000E+03	3.767174E-16	8.827433E-18
6.260000E+03	3.813349E-16	8.935086E-18
6.270000E+03	3.860789E-16	9.045701E-18
6.280000E+03	3.908232E-16	9.156321E-18
6.290000E+03	3.954502E-16	9.264194E-18
6.300000E+03	3.998376E-16	9.366450E-18
6.310000E+03	4.038778E-16	9.460576E-18
6.320000E+03	4.074931E-16	9.544751E-18
6.330000E+03	4.106256E-16	9.617620E-18
6.340000E+03	4.132437E-16	9.678445E-18
6.350000E+03	4.153308E-16	9.726842E-18
6.360000E+03	4.168915E-16	9.762917E-18
6.370000E+03	4.179456E-16	9.787135E-18
6.380000E+03	4.185053E-16	9.799790E-18
6.390000E+03	4.185747E-16	9.800972E-18
6.400000E+03	4.181674E-16	9.791005E-18
6.410000E+03	4.172923E-16	9.770098E-18
6.420000E+03	4.159390E-16	9.738009E-18
6.430000E+03	4.141002E-16	9.694567E-18
6.440000E+03	4.117472E-16	9.639101E-18
6.450000E+03	4.088454E-16	9.570804E-18
6.460000E+03	4.053729E-16	9.489166E-18
6.470000E+03	4.013024E-16	9.393546E-18
6.480000E+03	3.966343E-16	9.283955E-18
6.490000E+03	3.914120E-16	9.161412E-18
6.500000E+03	3.857112E-16	9.027686E-18
6.510000E+03	3.796447E-16	8.885421E-18
6.520000E+03	3.733439E-16	8.737690E-18
6.530000E+03	3.669420E-16	8.587612E-18
6.540000E+03	3.605600E-16	8.438020E-18
6.550000E+03	3.543140E-16	8.291626E-18
6.560000E+03	3.483139E-16	8.151004E-18
6.570000E+03	3.426305E-16	8.017809E-18
6.580000E+03	3.373139E-16	7.893212E-18
6.590000E+03	3.323649E-16	7.777232E-18
6.600000E+03	3.277483E-16	7.669045E-18
6.610000E+03	3.234261E-16	7.567758E-18
6.620000E+03	3.193589E-16	7.472449E-18
6.630000E+03	3.154985E-16	7.381990E-18
6.640000E+03	3.118168E-16	7.295726E-18
6.650000E+03	3.082728E-16	7.212694E-18
6.660000E+03	3.048396E-16	7.132265E-18
6.670000E+03	3.014917E-16	7.053840E-18
6.680000E+03	2.982047E-16	6.976851E-18
6.690000E+03	2.949700E-16	6.901094E-18
6.700000E+03	2.917751E-16	6.826279E-18
6.710000E+03	2.886156E-16	6.752299E-18
6.720000E+03	2.855030E-16	6.679428E-18
6.730000E+03	2.824414E-16	6.607756E-18
6.740000E+03	2.794497E-16	6.537729E-18
6.750000E+03	2.765479E-16	6.469812E-18
6.760000E+03	2.737622E-16	6.404621E-18
6.770000E+03	2.711127E-16	6.342622E-18
6.780000E+03	2.686312E-16	6.284561E-18
6.790000E+03	2.663443E-16	6.231060E-18
6.800000E+03	2.642892E-16	6.182989E-18
6.810000E+03	2.624949E-16	6.141025E-18
6.820000E+03	2.609915E-16	6.105874E-18
6.830000E+03	2.598193E-16	6.078478E-18
6.840000E+03	2.590083E-16	6.059540E-18
6.850000E+03	2.585999E-16	6.050028E-18
6.860000E+03	2.586352E-16	6.050902E-18
6.870000E+03	2.591537E-16	6.063088E-18
6.880000E+03	2.602030E-16	6.087700E-18
6.890000E+03	2.618155E-16	6.125496E-18
6.900000E+03	2.640323E-16	6.177439E-18
6.910000E+03	2.668770E-16	6.244081E-18
6.920000E+03	2.703736E-16	6.325983E-18
6.930000E+03	2.745332E-16	6.423410E-18
6.940000E+03	2.793484E-16	6.536188E-18
6.950000E+03	2.847980E-16	6.663821E-18
6.960000E+03	2.908216E-16	6.804900E-18
6.970000E+03	2.973148E-16	6.956978E-18
6.980000E+03	3.041199E-16	7.116371E-18
6.990000E+03	3.110275E-16	7.278177E-18
7.000000E+03	3.177801E-16	7.436374E-18
7.010000E+03	3.241082E-16	7.584655E-18
7.020000E+03	3.297436E-16	7.716739E-18
7.030000E+03	3.344846E-16	7.827913E-18
7.040000E+03	3.382290E-16	7.915775E-18
7.050000E+03	3.409837E-16	7.980491E-18
7.060000E+03	3.428277E-16	8.023908E-18
7.070000E+03	3.439089E-16	8.049481E-18
7.080000E+03	3.444222E-16	8.061776E-18
7.090000E+03	3.445904E-16	8.066003E-18
7.100000E+03	3.446335E-16	8.067312E-18
7.110000E+03	3.447838E-16	8.071143E-18
7.120000E+03	3.452343E-16	8.082011E-18
7.130000E+03	3.461405E-16	8.103559E-18
7.140000E+03	3.476229E-16	8.138612E-18
7.150000E+03	3.497713E-16	8.189270E-18
7.160000E+03	3.526456E-16	8.256942E-18
7.170000E+03	3.562658E-16	8.342095E-18
7.180000E+03	3.606202E-16	8.444462E-18
7.190000E+03	3.656511E-16	8.562693E-18
7.200000E+03	3.712705E-16	8.694728E-18
7.210000E+03	3.773586E-16	8.837768E-18
7.220000E+03	3.837888E-16	8.988847E-18
7.230000E+03	3.904089E-16	9.144404E-18
7.240000E+03	3.970625E-16	9.300776E-18
7.250000E+03	4.035689E-16	9.453730E-18
7.260000E+03	4.097470E-16	9.599026E-18
7.270000E+03	4.153995E-16	9.732042E-18
7.280000E+03	4.203415E-16	9.848441E-18
7.290000E+03	4.243929E-16	9.944001E-18
7.300000E+03	4.273996E-16	1.001511E-17
7.310000E+03	4.292443E-16	1.005901E-17
7.320000E+03	4.298631E-16	1.007421E-17
7.330000E+03	4.292318E-16	1.006012E-17
7.340000E+03	4.273767E-16	1.001736E-17
7.350000E+03	4.243652E-16	9.947504E-18
7.360000E+03	4.203015E-16	9.852988E-18
7.370000E+03	4.153046E-16	9.736595E-18
7.380000E+03	4.095136E-16	9.601580E-18
7.390000E+03	4.030748E-16	9.451370E-18
7.400000E+03	3.961220E-16	9.289098E-18
7.410000E+03	3.887835E-16	9.117770E-18
7.420000E+03	3.811563E-16	8.939657E-18
7.430000E+03	3.733385E-16	8.757057E-18
7.440000E+03	3.654035E-16	8.571692E-18
7.450000E+03	3.574136E-16	8.385021E-18
7.460000E+03	3.494325E-16	8.198535E-18
7.470000E+03	3.415206E-16	8.013654E-18
7.480000E+03	3.337319E-16	7.831643E-18
7.490000E+03	3.261234E-16	7.653839E-18
7.500000E+03	3.187494E-16	7.481519E-18
7.510000E+03	3.116581E-16	7.315813E-18
7.520000E+03	3.049039E-16	7.157999E-18
7.530000E+03	2.985327E-16	7.009156E-18
7.540000E+03	2.925766E-16	6.870042E-18
7.550000E+03	2.870772E-16	6.741634E-18
7.560000E+03	2.820533E-16	6.624375E-18
7.570000E+03	2.775297E-16	6.518854E-18
7.580000E+03	2.735223E-16	6.425444E-18
7.590000E+03	2.700384E-16	6.344323E-18
7.600000E+03	2.670885E-16	6.275742E-18
7.610000E+03	2.646742E-16	6.219737E-18
7.620000E+03	2.627892E-16	6.176170E-18
7.630000E+03	2.614275E-16	6.144902E-18
7.640000E+03	2.605831E-16	6.125793E-18
7.650000E+03	2.602384E-16	6.118438E-18
7.660000E+03	2.603757E-16	6.122424E-18
7.670000E+03	2.609747E-16	6.137275E-18
7.680000E+03	2.619981E-16	6.162120E-18
7.690000E+03	2.634150E-16	6.196234E-18
7.700000E+03	2.651730E-16	6.238390E-18
7.710000E+03	2.672183E-16	6.287324E-18
7.720000E+03	2.694780E-16	6.341325E-18
7.730000E+03	2.718866E-16	6.398851E-18
7.740000E+03	2.743619E-16	6.457970E-18
7.750000E+03	2.768269E-16	6.516870E-18
7.760000E+03	2.791931E-16	6.573466E-18
