#wls	flux	fluxerr
1.600000E+03	4.511598E-16	1.462280E-17
1.640000E+03	4.600540E-16	1.487940E-17
1.680000E+03	4.689123E-16	1.513282E-17
1.720000E+03	4.775101E-16	1.537576E-17
1.760000E+03	4.857963E-16	1.560659E-17
1.800000E+03	4.939103E-16	1.582977E-17
1.840000E+03	5.018062E-16	1.604382E-17
1.880000E+03	5.093360E-16	1.624402E-17
1.920000E+03	5.164453E-16	1.642865E-17
1.960000E+03	5.232811E-16	1.660242E-17
2.000000E+03	5.296907E-16	1.676052E-17
2.040000E+03	5.357226E-16	1.690453E-17
2.080000E+03	5.412202E-16	1.702956E-17
2.120000E+03	5.463371E-16	1.714053E-17
2.160000E+03	5.508123E-16	1.722933E-17
2.200000E+03	5.548022E-16	1.730097E-17
2.240000E+03	5.582561E-16	1.735397E-17
2.280000E+03	5.611247E-16	1.738692E-17
2.320000E+03	5.632572E-16	1.739530E-17
2.360000E+03	5.647146E-16	1.738119E-17
2.400000E+03	5.655583E-16	1.734665E-17
2.440000E+03	5.657494E-16	1.729068E-17
2.480000E+03	5.650551E-16	1.720637E-17
2.520000E+03	5.637469E-16	1.710226E-17
2.560000E+03	5.616997E-16	1.697476E-17
2.600000E+03	5.589879E-16	1.682638E-17
2.640000E+03	5.555000E-16	1.665401E-17
2.680000E+03	5.514060E-16	1.646304E-17
2.720000E+03	5.466009E-16	1.625058E-17
2.760000E+03	5.412465E-16	1.602171E-17
2.800000E+03	5.353231E-16	1.577611E-17
2.840000E+03	5.288918E-16	1.551582E-17
2.880000E+03	5.220029E-16	1.524256E-17
2.920000E+03	5.147690E-16	1.495984E-17
2.960000E+03	5.072076E-16	1.466836E-17
3.000000E+03	4.993903E-16	1.437038E-17
3.010000E+03	4.974534E-16	1.429654E-17
3.020000E+03	4.954926E-16	1.422207E-17
3.030000E+03	4.934407E-16	1.414506E-17
3.040000E+03	4.914287E-16	1.406926E-17
3.050000E+03	4.894528E-16	1.399456E-17
3.060000E+03	4.874462E-16	1.391906E-17
3.070000E+03	4.854076E-16	1.384271E-17
3.080000E+03	4.833976E-16	1.376725E-17
3.090000E+03	4.813514E-16	1.369084E-17
3.100000E+03	4.793283E-16	1.361517E-17
3.110000E+03	4.772650E-16	1.353842E-17
3.120000E+03	4.752194E-16	1.346227E-17
3.130000E+03	4.731881E-16	1.338659E-17
3.140000E+03	4.711100E-16	1.330968E-17
3.150000E+03	4.690976E-16	1.323470E-17
3.160000E+03	4.670334E-16	1.315835E-17
3.170000E+03	4.649717E-16	1.308215E-17
3.180000E+03	4.629636E-16	1.300755E-17
3.190000E+03	4.608966E-16	1.293138E-17
3.200000E+03	4.588757E-16	1.285659E-17
3.210000E+03	4.568435E-16	1.278157E-17
3.220000E+03	4.547972E-16	1.270626E-17
3.230000E+03	4.527850E-16	1.263198E-17
3.240000E+03	4.507519E-16	1.255721E-17
3.250000E+03	4.487449E-16	1.248325E-17
3.260000E+03	4.467108E-16	1.240864E-17
3.270000E+03	4.446954E-16	1.233465E-17
3.280000E+03	4.426945E-16	1.226115E-17
3.290000E+03	4.407041E-16	1.218803E-17
3.300000E+03	4.387205E-16	1.211520E-17
3.310000E+03	4.367401E-16	1.204255E-17
3.320000E+03	4.347596E-16	1.197000E-17
3.330000E+03	4.328194E-16	1.189865E-17
3.340000E+03	4.308717E-16	1.182719E-17
3.350000E+03	4.289141E-16	1.175556E-17
3.360000E+03	4.269857E-16	1.168483E-17
3.370000E+03	4.250823E-16	1.161487E-17
3.380000E+03	4.232001E-16	1.154560E-17
3.390000E+03	4.212966E-16	1.147584E-17
3.400000E+03	4.194478E-16	1.140766E-17
3.410000E+03	4.176110E-16	1.133991E-17
3.420000E+03	4.158208E-16	1.127352E-17
3.430000E+03	4.140005E-16	1.120641E-17
3.440000E+03	4.122578E-16	1.114149E-17
3.450000E+03	4.105172E-16	1.107672E-17
3.460000E+03	4.088124E-16	1.101300E-17
3.470000E+03	4.071408E-16	1.095027E-17
3.480000E+03	4.055008E-16	1.088847E-17
3.490000E+03	4.038905E-16	1.082756E-17
3.500000E+03	4.023411E-16	1.076837E-17
3.510000E+03	4.008502E-16	1.071081E-17
3.520000E+03	3.993848E-16	1.065402E-17
3.530000E+03	3.979758E-16	1.059880E-17
3.540000E+03	3.966223E-16	1.054512E-17
3.550000E+03	3.953236E-16	1.049298E-17
3.560000E+03	3.941085E-16	1.044311E-17
3.570000E+03	3.929481E-16	1.039474E-17
3.580000E+03	3.918436E-16	1.034790E-17
3.590000E+03	3.908501E-16	1.030404E-17
3.600000E+03	3.899143E-16	1.026174E-17
3.610000E+03	3.890901E-16	1.022241E-17
3.620000E+03	3.883525E-16	1.018537E-17
3.630000E+03	3.877033E-16	1.015067E-17
3.640000E+03	3.871692E-16	1.011898E-17
3.650000E+03	3.867517E-16	1.009035E-17
3.660000E+03	3.864524E-16	1.006478E-17
3.670000E+03	3.862735E-16	1.004232E-17
3.680000E+03	3.862170E-16	1.002301E-17
3.690000E+03	3.863077E-16	1.000748E-17
3.700000E+03	3.865465E-16	9.995724E-18
3.710000E+03	3.869137E-16	9.987216E-18
3.720000E+03	3.874534E-16	9.983078E-18
3.730000E+03	3.881246E-16	9.982231E-18
3.740000E+03	3.889694E-16	9.985735E-18
3.750000E+03	3.899875E-16	9.993559E-18
3.760000E+03	3.911580E-16	1.000515E-17
3.770000E+03	3.924997E-16	1.002096E-17
3.780000E+03	3.940100E-16	1.004090E-17
3.790000E+03	3.957045E-16	1.006534E-17
3.800000E+03	3.975418E-16	1.009321E-17
3.810000E+03	3.995532E-16	1.012529E-17
3.820000E+03	4.017319E-16	1.016136E-17
3.830000E+03	4.040696E-16	1.020121E-17
3.840000E+03	4.065392E-16	1.024412E-17
3.850000E+03	4.091647E-16	1.029069E-17
3.860000E+03	4.119165E-16	1.034014E-17
3.870000E+03	4.147807E-16	1.039210E-17
3.880000E+03	4.177423E-16	1.044620E-17
3.890000E+03	4.208007E-16	1.050239E-17
3.900000E+03	4.239376E-16	1.056022E-17
3.910000E+03	4.271170E-16	1.061877E-17
3.920000E+03	4.303491E-16	1.067829E-17
3.930000E+03	4.335798E-16	1.073743E-17
3.940000E+03	4.368008E-16	1.079599E-17
3.950000E+03	4.399872E-16	1.085337E-17
3.960000E+03	4.431282E-16	1.090928E-17
3.970000E+03	4.461678E-16	1.096238E-17
3.980000E+03	4.490947E-16	1.101240E-17
3.990000E+03	4.518971E-16	1.105905E-17
4.000000E+03	4.545211E-16	1.110106E-17
4.010000E+03	4.569705E-16	1.113854E-17
4.020000E+03	4.592094E-16	1.117064E-17
4.030000E+03	4.612048E-16	1.119659E-17
4.040000E+03	4.629544E-16	1.121637E-17
4.050000E+03	4.644457E-16	1.122972E-17
4.060000E+03	4.656707E-16	1.123649E-17
4.070000E+03	4.666140E-16	1.123634E-17
4.080000E+03	4.672777E-16	1.122937E-17
4.090000E+03	4.676683E-16	1.121578E-17
4.100000E+03	4.677852E-16	1.119559E-17
4.110000E+03	4.676548E-16	1.116948E-17
4.120000E+03	4.672949E-16	1.113791E-17
4.130000E+03	4.666927E-16	1.110061E-17
4.140000E+03	4.659056E-16	1.105897E-17
4.150000E+03	4.649261E-16	1.101286E-17
4.160000E+03	4.637928E-16	1.096322E-17
4.170000E+03	4.625242E-16	1.091050E-17
4.180000E+03	4.611402E-16	1.085519E-17
4.190000E+03	4.596722E-16	1.079805E-17
4.200000E+03	4.581422E-16	1.073962E-17
4.210000E+03	4.565824E-16	1.068065E-17
4.220000E+03	4.550153E-16	1.062168E-17
4.230000E+03	4.534637E-16	1.056324E-17
4.240000E+03	4.519589E-16	1.050605E-17
4.250000E+03	4.505139E-16	1.045042E-17
4.260000E+03	4.491501E-16	1.039683E-17
4.270000E+03	4.479047E-16	1.034614E-17
4.280000E+03	4.467809E-16	1.029839E-17
4.290000E+03	4.458060E-16	1.025420E-17
4.300000E+03	4.449985E-16	1.021398E-17
4.310000E+03	4.443684E-16	1.017794E-17
4.320000E+03	4.439485E-16	1.014679E-17
4.330000E+03	4.437402E-16	1.012054E-17
4.340000E+03	4.437594E-16	1.009953E-17
4.350000E+03	4.440355E-16	1.008438E-17
4.360000E+03	4.445600E-16	1.007489E-17
4.370000E+03	4.453590E-16	1.007159E-17
4.380000E+03	4.464426E-16	1.007468E-17
4.390000E+03	4.478124E-16	1.008417E-17
4.400000E+03	4.494828E-16	1.010032E-17
4.410000E+03	4.514521E-16	1.012307E-17
4.420000E+03	4.537221E-16	1.015242E-17
4.430000E+03	4.562915E-16	1.018829E-17
4.440000E+03	4.591548E-16	1.023052E-17
4.450000E+03	4.623093E-16	1.027901E-17
4.460000E+03	4.657411E-16	1.033342E-17
4.470000E+03	4.694315E-16	1.039328E-17
4.480000E+03	4.733693E-16	1.045833E-17
4.490000E+03	4.775242E-16	1.052787E-17
4.500000E+03	4.818730E-16	1.060134E-17
4.510000E+03	4.863656E-16	1.067764E-17
4.520000E+03	4.909719E-16	1.075607E-17
4.530000E+03	4.956282E-16	1.083525E-17
4.540000E+03	5.002849E-16	1.091408E-17
4.550000E+03	5.048802E-16	1.099123E-17
4.560000E+03	5.093473E-16	1.106524E-17
4.570000E+03	5.136227E-16	1.113477E-17
4.580000E+03	5.176342E-16	1.119828E-17
4.590000E+03	5.213155E-16	1.125439E-17
4.600000E+03	5.245882E-16	1.130145E-17
4.610000E+03	5.273975E-16	1.133834E-17
4.620000E+03	5.296811E-16	1.136379E-17
4.630000E+03	5.313907E-16	1.137683E-17
4.640000E+03	5.324813E-16	1.137660E-17
4.650000E+03	5.329328E-16	1.136274E-17
4.660000E+03	5.327183E-16	1.133477E-17
4.670000E+03	5.318515E-16	1.129307E-17
4.680000E+03	5.303403E-16	1.123789E-17
4.690000E+03	5.282130E-16	1.116991E-17
4.700000E+03	5.255108E-16	1.109009E-17
4.710000E+03	5.222859E-16	1.099961E-17
4.720000E+03	5.186004E-16	1.089983E-17
4.730000E+03	5.145232E-16	1.079225E-17
4.740000E+03	5.101353E-16	1.067863E-17
4.750000E+03	5.055153E-16	1.056064E-17
4.760000E+03	5.007444E-16	1.044000E-17
4.770000E+03	4.959052E-16	1.031846E-17
4.780000E+03	4.910800E-16	1.019772E-17
4.790000E+03	4.863305E-16	1.007907E-17
4.800000E+03	4.817389E-16	9.964184E-18
4.810000E+03	4.773596E-16	9.854172E-18
4.820000E+03	4.732532E-16	9.750249E-18
4.830000E+03	4.694798E-16	9.653614E-18
4.840000E+03	4.660752E-16	9.564963E-18
4.850000E+03	4.630903E-16	9.485292E-18
4.860000E+03	4.605409E-16	9.414868E-18
4.870000E+03	4.584667E-16	9.354452E-18
4.880000E+03	4.568729E-16	9.304088E-18
4.890000E+03	4.557715E-16	9.263970E-18
4.900000E+03	4.551561E-16	9.233905E-18
4.910000E+03	4.550212E-16	9.213726E-18
4.920000E+03	4.553407E-16	9.202850E-18
4.930000E+03	4.560933E-16	9.200799E-18
4.940000E+03	4.572256E-16	9.206448E-18
4.950000E+03	4.586900E-16	9.218798E-18
4.960000E+03	4.604204E-16	9.236489E-18
4.970000E+03	4.623613E-16	9.258383E-18
4.980000E+03	4.644394E-16	9.282991E-18
4.990000E+03	4.665821E-16	9.308852E-18
5.000000E+03	4.687368E-16	9.334916E-18
5.010000E+03	4.708423E-16	9.359966E-18
5.020000E+03	4.728584E-16	9.383214E-18
5.030000E+03	4.747416E-16	9.403805E-18
5.040000E+03	4.764827E-16	9.421581E-18
5.050000E+03	4.780706E-16	9.436335E-18
5.060000E+03	4.795175E-16	9.448328E-18
5.070000E+03	4.808364E-16	9.457831E-18
5.080000E+03	4.820600E-16	9.465503E-18
5.090000E+03	4.832224E-16	9.472022E-18
5.100000E+03	4.843564E-16	9.478042E-18
5.110000E+03	4.855027E-16	9.484360E-18
5.120000E+03	4.867070E-16	9.491869E-18
5.130000E+03	4.880086E-16	9.501330E-18
5.140000E+03	4.894439E-16	9.513448E-18
5.150000E+03	4.910408E-16	9.528748E-18
5.160000E+03	4.928332E-16	9.547876E-18
5.170000E+03	4.948455E-16	9.571292E-18
5.180000E+03	4.970927E-16	9.599264E-18
5.190000E+03	4.996010E-16	9.632279E-18
5.200000E+03	5.023713E-16	9.670338E-18
5.210000E+03	5.054112E-16	9.713564E-18
5.220000E+03	5.087355E-16	9.762222E-18
5.230000E+03	5.123342E-16	9.816100E-18
5.240000E+03	5.162100E-16	9.875229E-18
5.250000E+03	5.203517E-16	9.939381E-18
5.260000E+03	5.247561E-16	1.000847E-17
5.270000E+03	5.294109E-16	1.008225E-17
5.280000E+03	5.343005E-16	1.016042E-17
5.290000E+03	5.393999E-16	1.024248E-17
5.300000E+03	5.446862E-16	1.032798E-17
5.310000E+03	5.501376E-16	1.041652E-17
5.320000E+03	5.557175E-16	1.050738E-17
5.330000E+03	5.613961E-16	1.060001E-17
5.340000E+03	5.671278E-16	1.069355E-17
5.350000E+03	5.728679E-16	1.078717E-17
5.360000E+03	5.785731E-16	1.088004E-17
5.370000E+03	5.841769E-16	1.097095E-17
5.380000E+03	5.896313E-16	1.105899E-17
5.390000E+03	5.948642E-16	1.114285E-17
5.400000E+03	5.997986E-16	1.122109E-17
5.410000E+03	6.043731E-16	1.129260E-17
5.420000E+03	6.084999E-16	1.135576E-17
5.430000E+03	6.121089E-16	1.140930E-17
5.440000E+03	6.151245E-16	1.145185E-17
5.450000E+03	6.174725E-16	1.148208E-17
5.460000E+03	6.190754E-16	1.149857E-17
5.470000E+03	6.198791E-16	1.150039E-17
5.480000E+03	6.198105E-16	1.148622E-17
5.490000E+03	6.188244E-16	1.145528E-17
5.500000E+03	6.168741E-16	1.140676E-17
5.510000E+03	6.139396E-16	1.134034E-17
5.520000E+03	6.100046E-16	1.125578E-17
5.530000E+03	6.050836E-16	1.115340E-17
5.540000E+03	5.991984E-16	1.103365E-17
5.550000E+03	5.924029E-16	1.089756E-17
5.560000E+03	5.847703E-16	1.074653E-17
5.570000E+03	5.763746E-16	1.058195E-17
5.580000E+03	5.673225E-16	1.040581E-17
5.590000E+03	5.577268E-16	1.022020E-17
5.600000E+03	5.477140E-16	1.002746E-17
5.610000E+03	5.373994E-16	9.829694E-18
5.620000E+03	5.269218E-16	9.629461E-18
5.630000E+03	5.163985E-16	9.428891E-18
5.640000E+03	5.059641E-16	9.230434E-18
5.650000E+03	4.957276E-16	9.036062E-18
5.660000E+03	4.858108E-16	8.847974E-18
5.670000E+03	4.763119E-16	8.667932E-18
5.680000E+03	4.673203E-16	8.497534E-18
5.690000E+03	4.589246E-16	8.338360E-18
5.700000E+03	4.512025E-16	8.191789E-18
5.710000E+03	4.442078E-16	8.058760E-18
5.720000E+03	4.379966E-16	7.940253E-18
5.730000E+03	4.326041E-16	7.836870E-18
5.740000E+03	4.280655E-16	7.749212E-18
5.750000E+03	4.243859E-16	7.677333E-18
5.760000E+03	4.215642E-16	7.621178E-18
5.770000E+03	4.195890E-16	7.580509E-18
5.780000E+03	4.184305E-16	7.554754E-18
5.790000E+03	4.180376E-16	7.542963E-18
5.800000E+03	4.183647E-16	7.544287E-18
5.810000E+03	4.193448E-16	7.557498E-18
5.820000E+03	4.209077E-16	7.581309E-18
5.830000E+03	4.229780E-16	7.614346E-18
5.840000E+03	4.254722E-16	7.655096E-18
5.850000E+03	4.283128E-16	7.702155E-18
5.860000E+03	4.314139E-16	7.753970E-18
5.870000E+03	4.346983E-16	7.809152E-18
5.880000E+03	4.380825E-16	7.866201E-18
5.890000E+03	4.414854E-16	7.923661E-18
5.900000E+03	4.448376E-16	7.980294E-18
5.910000E+03	4.480699E-16	8.034859E-18
5.920000E+03	4.511143E-16	8.086148E-18
5.930000E+03	4.539138E-16	8.133143E-18
5.940000E+03	4.564232E-16	8.175048E-18
5.950000E+03	4.585879E-16	8.210892E-18
5.960000E+03	4.603887E-16	8.240342E-18
5.970000E+03	4.617894E-16	8.262758E-18
5.980000E+03	4.627854E-16	8.278070E-18
5.990000E+03	4.633649E-16	8.286074E-18
6.000000E+03	4.635389E-16	8.286975E-18
6.010000E+03	4.633183E-16	8.280976E-18
6.020000E+03	4.627266E-16	8.268501E-18
6.030000E+03	4.617943E-16	8.250103E-18
6.040000E+03	4.605540E-16	8.226368E-18
6.050000E+03	4.590522E-16	8.198130E-18
6.060000E+03	4.573309E-16	8.166142E-18
6.070000E+03	4.554357E-16	8.131216E-18
6.080000E+03	4.534224E-16	8.094354E-18
6.090000E+03	4.513439E-16	8.056497E-18
6.100000E+03	4.492482E-16	8.018502E-18
6.110000E+03	4.471865E-16	7.981283E-18
6.120000E+03	4.452077E-16	7.945714E-18
6.130000E+03	4.433575E-16	7.912607E-18
6.140000E+03	4.416775E-16	7.882705E-18
6.150000E+03	4.402000E-16	7.856587E-18
6.160000E+03	4.389597E-16	7.834868E-18
6.170000E+03	4.379750E-16	7.817882E-18
6.180000E+03	4.372575E-16	7.805834E-18
6.190000E+03	4.368140E-16	7.798852E-18
6.200000E+03	4.366477E-16	7.796990E-18
6.210000E+03	4.367492E-16	7.800081E-18
6.220000E+03	4.371059E-16	7.807899E-18
6.230000E+03	4.376938E-16	7.820015E-18
6.240000E+03	4.384814E-16	7.835865E-18
6.250000E+03	4.394332E-16	7.854816E-18
6.260000E+03	4.405025E-16	7.876035E-18
6.270000E+03	4.416342E-16	7.898534E-18
6.280000E+03	4.427898E-16	7.921623E-18
6.290000E+03	4.439054E-16	7.944158E-18
6.300000E+03	4.449456E-16	7.965502E-18
6.310000E+03	4.458615E-16	7.984777E-18
6.320000E+03	4.466177E-16	8.001345E-18
6.330000E+03	4.471753E-16	8.014502E-18
6.340000E+03	4.475189E-16	8.023966E-18
6.350000E+03	4.476156E-16	8.029140E-18
6.360000E+03	4.474557E-16	8.029841E-18
6.370000E+03	4.470241E-16	8.025790E-18
6.380000E+03	4.463096E-16	8.016775E-18
6.390000E+03	4.453131E-16	8.002802E-18
6.400000E+03	4.440244E-16	7.983678E-18
6.410000E+03	4.424498E-16	7.959504E-18
6.420000E+03	4.405937E-16	7.930347E-18
6.430000E+03	4.384593E-16	7.896254E-18
6.440000E+03	4.360531E-16	7.857328E-18
6.450000E+03	4.333990E-16	7.813991E-18
6.460000E+03	4.305068E-16	7.766408E-18
6.470000E+03	4.274048E-16	7.715074E-18
6.480000E+03	4.241116E-16	7.660317E-18
6.490000E+03	4.206633E-16	7.602779E-18
6.500000E+03	4.170866E-16	7.542934E-18
6.510000E+03	4.134193E-16	7.481456E-18
6.520000E+03	4.096881E-16	7.418822E-18
6.530000E+03	4.059367E-16	7.355819E-18
6.540000E+03	4.021948E-16	7.292977E-18
6.550000E+03	3.984887E-16	7.230775E-18
6.560000E+03	3.948403E-16	7.169605E-18
6.570000E+03	3.912738E-16	7.109907E-18
6.580000E+03	3.877975E-16	7.051832E-18
6.590000E+03	3.844166E-16	6.995474E-18
6.600000E+03	3.811250E-16	6.940723E-18
6.610000E+03	3.779157E-16	6.887451E-18
6.620000E+03	3.747775E-16	6.835457E-18
6.630000E+03	3.716971E-16	6.784498E-18
6.640000E+03	3.686604E-16	6.734315E-18
6.650000E+03	3.656538E-16	6.684659E-18
6.660000E+03	3.626649E-16	6.635304E-18
6.670000E+03	3.596839E-16	6.586067E-18
6.680000E+03	3.566995E-16	6.536741E-18
6.690000E+03	3.537124E-16	6.487337E-18
6.700000E+03	3.507275E-16	6.437939E-18
6.710000E+03	3.477463E-16	6.388577E-18
6.720000E+03	3.447744E-16	6.339352E-18
6.730000E+03	3.418333E-16	6.290656E-18
6.740000E+03	3.389394E-16	6.242793E-18
6.750000E+03	3.361084E-16	6.196051E-18
6.760000E+03	3.333619E-16	6.150831E-18
6.770000E+03	3.307272E-16	6.107641E-18
6.780000E+03	3.282259E-16	6.066883E-18
6.790000E+03	3.258913E-16	6.029181E-18
6.800000E+03	3.237433E-16	5.994906E-18
6.810000E+03	3.218129E-16	5.964645E-18
6.820000E+03	3.201311E-16	5.938984E-18
6.830000E+03	3.187184E-16	5.918313E-18
6.840000E+03	3.176057E-16	5.903221E-18
6.850000E+03	3.168230E-16	5.894284E-18
6.860000E+03	3.163919E-16	5.891917E-18
6.870000E+03	3.163350E-16	5.896565E-18
6.880000E+03	3.166723E-16	5.908619E-18
6.890000E+03	3.174223E-16	5.928449E-18
6.900000E+03	3.185916E-16	5.956199E-18
6.910000E+03	3.201839E-16	5.991966E-18
6.920000E+03	3.222000E-16	6.035789E-18
6.930000E+03	3.246251E-16	6.087415E-18
6.940000E+03	3.274427E-16	6.146562E-18
6.950000E+03	3.306183E-16	6.212604E-18
6.960000E+03	3.341115E-16	6.284808E-18
6.970000E+03	3.378773E-16	6.362346E-18
6.980000E+03	3.418600E-16	6.444189E-18
6.990000E+03	3.459913E-16	6.529062E-18
7.000000E+03	3.502230E-16	6.616068E-18
7.010000E+03	3.544847E-16	6.703887E-18
7.020000E+03	3.587335E-16	6.791710E-18
7.030000E+03	3.629275E-16	6.878748E-18
7.040000E+03	3.670275E-16	6.964257E-18
7.050000E+03	3.710246E-16	7.048067E-18
7.060000E+03	3.749096E-16	7.129997E-18
7.070000E+03	3.786934E-16	7.210256E-18
7.080000E+03	3.823888E-16	7.289082E-18
7.090000E+03	3.860205E-16	7.366945E-18
7.100000E+03	3.896192E-16	7.444434E-18
7.110000E+03	3.932188E-16	7.522197E-18
7.120000E+03	3.968532E-16	7.600890E-18
7.130000E+03	4.005590E-16	7.681220E-18
7.140000E+03	4.043530E-16	7.763520E-18
7.150000E+03	4.082644E-16	7.848361E-18
7.160000E+03	4.122930E-16	7.935754E-18
7.170000E+03	4.164429E-16	8.025792E-18
7.180000E+03	4.207067E-16	8.118349E-18
7.190000E+03	4.250494E-16	8.212757E-18
7.200000E+03	4.294392E-16	8.308418E-18
7.210000E+03	4.338283E-16	8.404412E-18
7.220000E+03	4.381574E-16	8.499599E-18
7.230000E+03	4.423534E-16	8.592557E-18
7.240000E+03	4.463512E-16	8.682017E-18
7.250000E+03	4.500584E-16	8.766169E-18
7.260000E+03	4.533956E-16	8.843448E-18
7.270000E+03	4.562725E-16	8.912066E-18
7.280000E+03	4.586193E-16	8.970626E-18
7.290000E+03	4.603499E-16	9.017403E-18
7.300000E+03	4.614063E-16	9.051208E-18
7.310000E+03	4.617381E-16	9.071002E-18
7.320000E+03	4.613052E-16	9.075934E-18
7.330000E+03	4.601030E-16	9.065848E-18
7.340000E+03	4.581157E-16	9.040369E-18
7.350000E+03	4.553804E-16	9.000160E-18
7.360000E+03	4.519267E-16	8.945737E-18
7.370000E+03	4.477979E-16	8.877892E-18
7.380000E+03	4.430596E-16	8.797861E-18
7.390000E+03	4.377735E-16	8.706815E-18
7.400000E+03	4.320179E-16	8.606256E-18
7.410000E+03	4.258682E-16	8.497639E-18
7.420000E+03	4.193893E-16	8.382216E-18
7.430000E+03	4.126677E-16	8.261683E-18
7.440000E+03	4.057665E-16	8.137274E-18
7.450000E+03	3.987626E-16	8.010510E-18
7.460000E+03	3.917248E-16	7.882756E-18
7.470000E+03	3.847237E-16	7.755426E-18
7.480000E+03	3.778169E-16	7.629683E-18
7.490000E+03	3.710637E-16	7.506725E-18
7.500000E+03	3.645247E-16	7.387786E-18
7.510000E+03	3.582467E-16	7.273828E-18
7.520000E+03	3.522770E-16	7.165834E-18
7.530000E+03	3.466621E-16	7.064773E-18
7.540000E+03	3.414317E-16	6.971282E-18
7.550000E+03	3.366140E-16	6.885973E-18
7.560000E+03	3.322155E-16	6.809019E-18
7.570000E+03	3.282548E-16	6.740844E-18
7.580000E+03	3.247331E-16	6.681514E-18
7.590000E+03	3.216524E-16	6.631119E-18
7.600000E+03	3.190116E-16	6.589682E-18
7.610000E+03	3.168067E-16	6.557171E-18
7.620000E+03	3.150307E-16	6.533487E-18
7.630000E+03	3.136696E-16	6.518391E-18
7.640000E+03	3.127194E-16	6.511844E-18
7.650000E+03	3.121601E-16	6.513480E-18
7.660000E+03	3.119684E-16	6.522858E-18
7.670000E+03	3.121253E-16	6.539625E-18
7.680000E+03	3.126034E-16	6.563248E-18
7.690000E+03	3.133706E-16	6.593094E-18
7.700000E+03	3.143899E-16	6.628416E-18
7.710000E+03	3.156148E-16	6.668266E-18
7.720000E+03	3.170030E-16	6.711771E-18
7.730000E+03	3.185032E-16	6.757868E-18
7.740000E+03	3.200613E-16	6.805417E-18
7.750000E+03	3.216209E-16	6.853225E-18
7.760000E+03	3.231218E-16	6.900003E-18
