#wls	flux	fluxerr
1.600000E+03	3.031377E-16	3.847129E-17
1.640000E+03	3.100482E-16	3.931649E-17
1.680000E+03	3.169538E-16	4.015881E-17
1.720000E+03	3.238307E-16	4.099517E-17
1.760000E+03	3.306528E-16	4.182221E-17
1.800000E+03	3.374537E-16	4.264412E-17
1.840000E+03	3.441441E-16	4.344957E-17
1.880000E+03	3.506923E-16	4.423451E-17
1.920000E+03	3.571929E-16	4.501085E-17
1.960000E+03	3.635503E-16	4.576649E-17
2.000000E+03	3.697295E-16	4.649700E-17
2.040000E+03	3.757594E-16	4.720602E-17
2.080000E+03	3.816030E-16	4.788889E-17
2.120000E+03	3.872880E-16	4.854908E-17
2.160000E+03	3.926394E-16	4.916467E-17
2.200000E+03	3.978162E-16	4.975563E-17
2.240000E+03	4.027072E-16	5.030806E-17
2.280000E+03	4.072664E-16	5.081628E-17
2.320000E+03	4.115137E-16	5.128287E-17
2.360000E+03	4.154674E-16	5.171019E-17
2.400000E+03	4.190756E-16	5.209186E-17
2.440000E+03	4.223517E-16	5.242967E-17
2.480000E+03	4.251734E-16	5.270855E-17
2.520000E+03	4.276810E-16	5.294608E-17
2.560000E+03	4.297474E-16	5.312667E-17
2.600000E+03	4.313752E-16	5.325081E-17
2.640000E+03	4.325625E-16	5.331851E-17
2.680000E+03	4.333648E-16	5.333679E-17
2.720000E+03	4.337087E-16	5.329683E-17
2.760000E+03	4.335800E-16	5.319715E-17
2.800000E+03	4.330745E-16	5.304975E-17
2.840000E+03	4.320522E-16	5.283773E-17
2.880000E+03	4.305966E-16	5.257161E-17
2.920000E+03	4.287243E-16	5.225369E-17
2.960000E+03	4.263950E-16	5.187935E-17
3.000000E+03	4.236160E-16	5.144980E-17
3.010000E+03	4.228755E-16	5.133681E-17
3.020000E+03	4.221225E-16	5.122227E-17
3.030000E+03	4.213090E-16	5.110039E-17
3.040000E+03	4.204802E-16	5.097663E-17
3.050000E+03	4.196340E-16	5.085077E-17
3.060000E+03	4.187686E-16	5.072258E-17
3.070000E+03	4.178823E-16	5.059186E-17
3.080000E+03	4.169302E-16	5.045318E-17
3.090000E+03	4.159974E-16	5.031684E-17
3.100000E+03	4.150388E-16	5.017740E-17
3.110000E+03	4.140529E-16	5.003466E-17
3.120000E+03	4.130380E-16	4.988845E-17
3.130000E+03	4.119928E-16	4.973860E-17
3.140000E+03	4.109562E-16	4.958981E-17
3.150000E+03	4.098856E-16	4.943695E-17
3.160000E+03	4.087800E-16	4.927991E-17
3.170000E+03	4.076768E-16	4.912317E-17
3.180000E+03	4.065354E-16	4.896189E-17
3.190000E+03	4.053922E-16	4.880043E-17
3.200000E+03	4.042450E-16	4.863853E-17
3.210000E+03	4.030549E-16	4.847152E-17
3.220000E+03	4.018572E-16	4.830364E-17
3.230000E+03	4.006143E-16	4.813038E-17
3.240000E+03	3.993954E-16	4.796008E-17
3.250000E+03	3.981284E-16	4.778405E-17
3.260000E+03	3.968806E-16	4.761040E-17
3.270000E+03	3.955820E-16	4.743072E-17
3.280000E+03	3.942982E-16	4.725287E-17
3.290000E+03	3.929938E-16	4.707264E-17
3.300000E+03	3.916674E-16	4.688984E-17
3.310000E+03	3.903489E-16	4.670807E-17
3.320000E+03	3.890050E-16	4.652334E-17
3.330000E+03	3.876649E-16	4.633914E-17
3.340000E+03	3.862963E-16	4.615163E-17
3.350000E+03	3.849279E-16	4.596423E-17
3.360000E+03	3.835576E-16	4.577670E-17
3.370000E+03	3.821552E-16	4.558542E-17
3.380000E+03	3.807763E-16	4.539704E-17
3.390000E+03	3.793905E-16	4.520794E-17
3.400000E+03	3.779966E-16	4.501796E-17
3.410000E+03	3.765934E-16	4.482699E-17
3.420000E+03	3.751803E-16	4.463493E-17
3.430000E+03	3.737821E-16	4.444476E-17
3.440000E+03	3.723723E-16	4.425331E-17
3.450000E+03	3.709754E-16	4.406350E-17
3.460000E+03	3.695906E-16	4.387523E-17
3.470000E+03	3.682171E-16	4.368842E-17
3.480000E+03	3.668311E-16	4.350021E-17
3.490000E+03	3.654799E-16	4.331626E-17
3.500000E+03	3.641399E-16	4.313373E-17
3.510000E+03	3.628121E-16	4.295276E-17
3.520000E+03	3.615191E-16	4.277601E-17
3.530000E+03	3.602402E-16	4.260102E-17
3.540000E+03	3.589769E-16	4.242798E-17
3.550000E+03	3.577729E-16	4.226206E-17
3.560000E+03	3.565879E-16	4.209848E-17
3.570000E+03	3.554649E-16	4.194230E-17
3.580000E+03	3.543661E-16	4.178905E-17
3.590000E+03	3.533333E-16	4.164369E-17
3.600000E+03	3.523500E-16	4.150422E-17
3.610000E+03	3.514379E-16	4.137321E-17
3.620000E+03	3.505814E-16	4.124881E-17
3.630000E+03	3.498024E-16	4.113358E-17
3.640000E+03	3.491043E-16	4.102790E-17
3.650000E+03	3.484904E-16	4.093216E-17
3.660000E+03	3.479645E-16	4.084677E-17
3.670000E+03	3.475468E-16	4.077410E-17
3.680000E+03	3.472243E-16	4.071259E-17
3.690000E+03	3.470007E-16	4.066267E-17
3.700000E+03	3.468958E-16	4.062661E-17
3.710000E+03	3.469124E-16	4.060476E-17
3.720000E+03	3.470533E-16	4.059739E-17
3.730000E+03	3.473211E-16	4.060479E-17
3.740000E+03	3.477327E-16	4.062890E-17
3.750000E+03	3.482749E-16	4.066816E-17
3.760000E+03	3.489488E-16	4.072267E-17
3.770000E+03	3.497694E-16	4.079415E-17
3.780000E+03	3.507222E-16	4.088089E-17
3.790000E+03	3.518339E-16	4.098597E-17
3.800000E+03	3.530885E-16	4.110748E-17
3.810000E+03	3.544830E-16	4.124505E-17
3.820000E+03	3.560135E-16	4.139820E-17
3.830000E+03	3.576752E-16	4.156635E-17
3.840000E+03	3.594749E-16	4.175026E-17
3.850000E+03	3.614051E-16	4.194902E-17
3.860000E+03	3.634449E-16	4.216018E-17
3.870000E+03	3.656094E-16	4.238549E-17
3.880000E+03	3.678631E-16	4.262078E-17
3.890000E+03	3.702063E-16	4.286610E-17
3.900000E+03	3.726381E-16	4.312130E-17
3.910000E+03	3.751203E-16	4.338195E-17
3.920000E+03	3.776618E-16	4.364908E-17
3.930000E+03	3.802463E-16	4.392079E-17
3.940000E+03	3.828456E-16	4.419381E-17
3.950000E+03	3.854427E-16	4.446618E-17
3.960000E+03	3.880313E-16	4.473718E-17
3.970000E+03	3.905824E-16	4.500346E-17
3.980000E+03	3.930895E-16	4.526430E-17
3.990000E+03	3.955349E-16	4.551764E-17
4.000000E+03	3.979012E-16	4.576154E-17
4.010000E+03	4.001617E-16	4.599291E-17
4.020000E+03	4.023010E-16	4.621004E-17
4.030000E+03	4.043257E-16	4.641368E-17
4.040000E+03	4.062021E-16	4.660001E-17
4.050000E+03	4.079192E-16	4.676780E-17
4.060000E+03	4.094778E-16	4.691717E-17
4.070000E+03	4.108601E-16	4.704612E-17
4.080000E+03	4.120706E-16	4.715522E-17
4.090000E+03	4.130964E-16	4.724302E-17
4.100000E+03	4.139270E-16	4.730835E-17
4.110000E+03	4.145826E-16	4.735358E-17
4.120000E+03	4.150480E-16	4.737701E-17
4.130000E+03	4.153384E-16	4.738042E-17
4.140000E+03	4.154526E-16	4.736371E-17
4.150000E+03	4.154006E-16	4.732806E-17
4.160000E+03	4.151945E-16	4.727487E-17
4.170000E+03	4.148477E-16	4.720572E-17
4.180000E+03	4.143588E-16	4.712048E-17
4.190000E+03	4.137530E-16	4.702205E-17
4.200000E+03	4.130481E-16	4.691245E-17
4.210000E+03	4.122549E-16	4.679297E-17
4.220000E+03	4.113854E-16	4.666497E-17
4.230000E+03	4.104602E-16	4.653080E-17
4.240000E+03	4.094999E-16	4.639283E-17
4.250000E+03	4.085183E-16	4.625260E-17
4.260000E+03	4.075292E-16	4.611171E-17
4.270000E+03	4.065539E-16	4.597255E-17
4.280000E+03	4.056061E-16	4.583668E-17
4.290000E+03	4.047065E-16	4.570642E-17
4.300000E+03	4.038550E-16	4.558176E-17
4.310000E+03	4.030842E-16	4.546638E-17
4.320000E+03	4.023869E-16	4.535944E-17
4.330000E+03	4.017938E-16	4.526439E-17
4.340000E+03	4.013025E-16	4.518093E-17
4.350000E+03	4.009225E-16	4.511011E-17
4.360000E+03	4.006673E-16	4.505345E-17
4.370000E+03	4.005370E-16	4.501091E-17
4.380000E+03	4.005295E-16	4.498227E-17
4.390000E+03	4.006470E-16	4.496770E-17
4.400000E+03	4.008887E-16	4.496713E-17
4.410000E+03	4.012464E-16	4.497958E-17
4.420000E+03	4.017035E-16	4.500321E-17
4.430000E+03	4.022592E-16	4.503789E-17
4.440000E+03	4.028992E-16	4.508199E-17
4.450000E+03	4.036074E-16	4.513372E-17
4.460000E+03	4.043772E-16	4.519231E-17
4.470000E+03	4.052053E-16	4.525741E-17
4.480000E+03	4.060764E-16	4.532726E-17
4.490000E+03	4.069893E-16	4.540176E-17
4.500000E+03	4.079255E-16	4.547882E-17
4.510000E+03	4.088812E-16	4.555802E-17
4.520000E+03	4.098356E-16	4.563706E-17
4.530000E+03	4.107777E-16	4.571468E-17
4.540000E+03	4.116905E-16	4.578904E-17
4.550000E+03	4.125620E-16	4.585878E-17
4.560000E+03	4.133747E-16	4.592198E-17
4.570000E+03	4.141166E-16	4.597732E-17
4.580000E+03	4.147707E-16	4.602294E-17
4.590000E+03	4.153211E-16	4.605709E-17
4.600000E+03	4.157579E-16	4.607869E-17
4.610000E+03	4.160672E-16	4.608625E-17
4.620000E+03	4.162423E-16	4.607902E-17
4.630000E+03	4.162676E-16	4.605532E-17
4.640000E+03	4.161450E-16	4.601540E-17
4.650000E+03	4.158683E-16	4.595860E-17
4.660000E+03	4.154386E-16	4.588506E-17
4.670000E+03	4.148498E-16	4.579415E-17
4.680000E+03	4.141126E-16	4.568708E-17
4.690000E+03	4.132256E-16	4.556373E-17
4.700000E+03	4.121992E-16	4.542527E-17
4.710000E+03	4.110417E-16	4.527265E-17
4.720000E+03	4.097677E-16	4.510749E-17
4.730000E+03	4.083801E-16	4.493014E-17
4.740000E+03	4.068972E-16	4.474264E-17
4.750000E+03	4.053254E-16	4.454569E-17
4.760000E+03	4.036726E-16	4.434018E-17
4.770000E+03	4.019471E-16	4.412707E-17
4.780000E+03	4.001502E-16	4.390646E-17
4.790000E+03	3.983135E-16	4.368186E-17
4.800000E+03	3.964641E-16	4.345624E-17
4.810000E+03	3.946367E-16	4.323340E-17
4.820000E+03	3.928430E-16	4.301463E-17
4.830000E+03	3.911150E-16	4.280340E-17
4.840000E+03	3.894658E-16	4.260115E-17
4.850000E+03	3.879066E-16	4.240909E-17
4.860000E+03	3.864475E-16	4.222829E-17
4.870000E+03	3.851043E-16	4.206049E-17
4.880000E+03	3.838748E-16	4.190540E-17
4.890000E+03	3.827670E-16	4.176388E-17
4.900000E+03	3.817831E-16	4.163617E-17
4.910000E+03	3.809274E-16	4.152270E-17
4.920000E+03	3.801906E-16	4.142245E-17
4.930000E+03	3.795778E-16	4.133594E-17
4.940000E+03	3.790808E-16	4.126227E-17
4.950000E+03	3.786941E-16	4.120083E-17
4.960000E+03	3.784153E-16	4.115133E-17
4.970000E+03	3.782331E-16	4.111254E-17
4.980000E+03	3.781477E-16	4.108445E-17
4.990000E+03	3.781428E-16	4.106530E-17
5.000000E+03	3.782142E-16	4.105460E-17
5.010000E+03	3.783572E-16	4.105186E-17
5.020000E+03	3.785598E-16	4.105574E-17
5.030000E+03	3.788183E-16	4.106585E-17
5.040000E+03	3.791252E-16	4.108137E-17
5.050000E+03	3.794739E-16	4.110157E-17
5.060000E+03	3.798581E-16	4.112577E-17
5.070000E+03	3.802725E-16	4.115341E-17
5.080000E+03	3.807164E-16	4.118438E-17
5.090000E+03	3.811855E-16	4.121825E-17
5.100000E+03	3.816768E-16	4.125466E-17
5.110000E+03	3.821871E-16	4.129330E-17
5.120000E+03	3.827140E-16	4.133388E-17
5.130000E+03	3.832596E-16	4.137665E-17
5.140000E+03	3.838141E-16	4.142053E-17
5.150000E+03	3.843876E-16	4.146664E-17
5.160000E+03	3.849708E-16	4.151394E-17
5.170000E+03	3.855656E-16	4.156269E-17
5.180000E+03	3.861663E-16	4.161222E-17
5.190000E+03	3.867784E-16	4.166317E-17
5.200000E+03	3.873914E-16	4.171437E-17
5.210000E+03	3.880062E-16	4.176596E-17
5.220000E+03	3.886189E-16	4.181750E-17
5.230000E+03	3.892256E-16	4.186859E-17
5.240000E+03	3.898212E-16	4.191867E-17
5.250000E+03	3.904004E-16	4.196718E-17
5.260000E+03	3.909570E-16	4.201346E-17
5.270000E+03	3.914806E-16	4.205639E-17
5.280000E+03	3.919677E-16	4.209562E-17
5.290000E+03	3.924104E-16	4.213030E-17
5.300000E+03	3.927966E-16	4.215913E-17
5.310000E+03	3.931214E-16	4.218159E-17
5.320000E+03	3.933712E-16	4.219625E-17
5.330000E+03	3.935405E-16	4.220252E-17
5.340000E+03	3.936109E-16	4.219845E-17
5.350000E+03	3.935802E-16	4.218379E-17
5.360000E+03	3.934296E-16	4.215654E-17
5.370000E+03	3.931517E-16	4.211593E-17
5.380000E+03	3.927315E-16	4.206036E-17
5.390000E+03	3.921615E-16	4.198901E-17
5.400000E+03	3.914263E-16	4.190028E-17
5.410000E+03	3.905115E-16	4.179259E-17
5.420000E+03	3.894145E-16	4.166572E-17
5.430000E+03	3.881187E-16	4.151787E-17
5.440000E+03	3.866206E-16	4.134868E-17
5.450000E+03	3.849139E-16	4.115750E-17
5.460000E+03	3.829907E-16	4.094348E-17
5.470000E+03	3.808603E-16	4.070763E-17
5.480000E+03	3.785225E-16	4.044994E-17
5.490000E+03	3.759984E-16	4.017265E-17
5.500000E+03	3.732953E-16	3.987658E-17
5.510000E+03	3.704159E-16	3.956199E-17
5.520000E+03	3.673503E-16	3.922783E-17
5.530000E+03	3.641132E-16	3.887570E-17
5.540000E+03	3.607141E-16	3.850659E-17
5.550000E+03	3.571683E-16	3.812213E-17
5.560000E+03	3.534928E-16	3.772415E-17
5.570000E+03	3.497058E-16	3.731459E-17
5.580000E+03	3.458239E-16	3.689520E-17
5.590000E+03	3.418746E-16	3.646893E-17
5.600000E+03	3.378793E-16	3.603805E-17
5.610000E+03	3.338563E-16	3.560452E-17
5.620000E+03	3.298279E-16	3.517067E-17
5.630000E+03	3.258187E-16	3.473917E-17
5.640000E+03	3.218502E-16	3.431226E-17
5.650000E+03	3.179460E-16	3.389246E-17
5.660000E+03	3.141190E-16	3.348115E-17
5.670000E+03	3.103941E-16	3.308095E-17
5.680000E+03	3.067881E-16	3.269366E-17
5.690000E+03	3.033133E-16	3.232057E-17
5.700000E+03	2.999865E-16	3.196346E-17
5.710000E+03	2.968166E-16	3.162328E-17
5.720000E+03	2.938198E-16	3.130174E-17
5.730000E+03	2.909985E-16	3.099908E-17
5.740000E+03	2.883651E-16	3.071662E-17
5.750000E+03	2.859186E-16	3.045424E-17
5.760000E+03	2.836674E-16	3.021283E-17
5.770000E+03	2.816129E-16	2.999252E-17
5.780000E+03	2.797492E-16	2.979269E-17
5.790000E+03	2.780797E-16	2.961369E-17
5.800000E+03	2.766013E-16	2.945519E-17
5.810000E+03	2.753038E-16	2.931610E-17
5.820000E+03	2.741872E-16	2.919639E-17
5.830000E+03	2.732448E-16	2.909538E-17
5.840000E+03	2.724665E-16	2.901196E-17
5.850000E+03	2.718442E-16	2.894528E-17
5.860000E+03	2.713720E-16	2.889472E-17
5.870000E+03	2.710385E-16	2.885904E-17
5.880000E+03	2.708373E-16	2.883758E-17
5.890000E+03	2.707571E-16	2.882912E-17
5.900000E+03	2.707892E-16	2.883274E-17
5.910000E+03	2.709224E-16	2.884725E-17
5.920000E+03	2.711547E-16	2.887243E-17
5.930000E+03	2.714762E-16	2.890724E-17
5.940000E+03	2.718807E-16	2.895100E-17
5.950000E+03	2.723603E-16	2.900289E-17
5.960000E+03	2.729136E-16	2.906274E-17
5.970000E+03	2.735345E-16	2.912993E-17
5.980000E+03	2.742212E-16	2.920424E-17
5.990000E+03	2.749729E-16	2.928559E-17
6.000000E+03	2.757899E-16	2.937404E-17
6.010000E+03	2.766710E-16	2.946946E-17
6.020000E+03	2.776190E-16	2.957211E-17
6.030000E+03	2.786374E-16	2.968242E-17
6.040000E+03	2.797309E-16	2.980085E-17
6.050000E+03	2.808991E-16	2.992738E-17
6.060000E+03	2.821537E-16	3.006326E-17
6.070000E+03	2.834953E-16	3.020856E-17
6.080000E+03	2.849334E-16	3.036427E-17
6.090000E+03	2.864688E-16	3.053053E-17
6.100000E+03	2.881079E-16	3.070798E-17
6.110000E+03	2.898566E-16	3.089727E-17
6.120000E+03	2.917197E-16	3.109893E-17
6.130000E+03	2.936954E-16	3.131277E-17
6.140000E+03	2.957865E-16	3.153907E-17
6.150000E+03	2.979878E-16	3.177732E-17
6.160000E+03	3.002956E-16	3.202710E-17
6.170000E+03	3.027005E-16	3.228743E-17
6.180000E+03	3.051878E-16	3.255675E-17
6.190000E+03	3.077553E-16	3.283483E-17
6.200000E+03	3.104047E-16	3.312186E-17
6.210000E+03	3.131230E-16	3.341646E-17
6.220000E+03	3.158977E-16	3.371730E-17
6.230000E+03	3.187205E-16	3.402351E-17
6.240000E+03	3.215657E-16	3.433233E-17
6.250000E+03	3.244190E-16	3.464225E-17
6.260000E+03	3.272594E-16	3.495102E-17
6.270000E+03	3.300677E-16	3.525659E-17
6.280000E+03	3.328167E-16	3.555608E-17
6.290000E+03	3.354817E-16	3.584682E-17
6.300000E+03	3.380402E-16	3.612641E-17
6.310000E+03	3.404692E-16	3.639239E-17
6.320000E+03	3.427353E-16	3.664117E-17
6.330000E+03	3.448192E-16	3.687069E-17
6.340000E+03	3.466916E-16	3.707782E-17
6.350000E+03	3.483322E-16	3.726035E-17
6.360000E+03	3.497110E-16	3.741507E-17
6.370000E+03	3.508185E-16	3.754094E-17
6.380000E+03	3.516262E-16	3.763490E-17
6.390000E+03	3.521265E-16	3.769611E-17
6.400000E+03	3.523042E-16	3.772292E-17
6.410000E+03	3.521474E-16	3.771404E-17
6.420000E+03	3.516592E-16	3.766976E-17
6.430000E+03	3.508311E-16	3.758917E-17
6.440000E+03	3.496695E-16	3.747292E-17
6.450000E+03	3.481731E-16	3.732084E-17
6.460000E+03	3.463591E-16	3.713474E-17
6.470000E+03	3.442324E-16	3.691513E-17
6.480000E+03	3.418084E-16	3.666364E-17
6.490000E+03	3.391049E-16	3.638214E-17
6.500000E+03	3.361417E-16	3.607275E-17
6.510000E+03	3.329365E-16	3.573732E-17
6.520000E+03	3.295157E-16	3.537868E-17
6.530000E+03	3.259031E-16	3.499936E-17
6.540000E+03	3.221260E-16	3.460228E-17
6.550000E+03	3.182122E-16	3.419040E-17
6.560000E+03	3.141857E-16	3.376628E-17
6.570000E+03	3.100732E-16	3.333278E-17
6.580000E+03	3.058977E-16	3.289238E-17
6.590000E+03	3.016844E-16	3.244775E-17
6.600000E+03	2.974543E-16	3.200117E-17
6.610000E+03	2.932339E-16	3.155546E-17
6.620000E+03	2.890381E-16	3.111225E-17
6.630000E+03	2.848878E-16	3.067376E-17
6.640000E+03	2.807993E-16	3.024176E-17
6.650000E+03	2.767904E-16	2.981817E-17
6.660000E+03	2.728750E-16	2.940448E-17
6.670000E+03	2.690688E-16	2.900240E-17
6.680000E+03	2.653832E-16	2.861316E-17
6.690000E+03	2.618259E-16	2.823761E-17
6.700000E+03	2.584126E-16	2.787742E-17
6.710000E+03	2.551519E-16	2.753355E-17
6.720000E+03	2.520515E-16	2.720686E-17
6.730000E+03	2.491189E-16	2.689814E-17
6.740000E+03	2.463604E-16	2.660810E-17
6.750000E+03	2.437847E-16	2.633769E-17
6.760000E+03	2.413970E-16	2.608750E-17
6.770000E+03	2.391993E-16	2.585774E-17
6.780000E+03	2.372014E-16	2.564950E-17
6.790000E+03	2.354044E-16	2.546292E-17
6.800000E+03	2.338143E-16	2.529864E-17
6.810000E+03	2.324285E-16	2.515644E-17
6.820000E+03	2.312578E-16	2.503748E-17
6.830000E+03	2.302991E-16	2.494146E-17
6.840000E+03	2.295566E-16	2.486884E-17
6.850000E+03	2.290321E-16	2.481985E-17
6.860000E+03	2.287265E-16	2.479461E-17
6.870000E+03	2.286406E-16	2.479322E-17
6.880000E+03	2.287775E-16	2.481604E-17
6.890000E+03	2.291319E-16	2.486252E-17
6.900000E+03	2.297060E-16	2.493293E-17
6.910000E+03	2.305018E-16	2.502750E-17
6.920000E+03	2.315154E-16	2.514583E-17
6.930000E+03	2.327482E-16	2.528810E-17
6.940000E+03	2.341924E-16	2.545349E-17
6.950000E+03	2.358512E-16	2.564238E-17
6.960000E+03	2.377221E-16	2.585449E-17
6.970000E+03	2.397958E-16	2.608887E-17
6.980000E+03	2.420744E-16	2.634575E-17
6.990000E+03	2.445540E-16	2.662474E-17
7.000000E+03	2.472236E-16	2.692467E-17
7.010000E+03	2.500845E-16	2.724569E-17
7.020000E+03	2.531277E-16	2.758685E-17
7.030000E+03	2.563503E-16	2.794787E-17
7.040000E+03	2.597391E-16	2.832731E-17
7.050000E+03	2.632931E-16	2.872510E-17
7.060000E+03	2.670009E-16	2.914001E-17
7.070000E+03	2.708534E-16	2.957108E-17
7.080000E+03	2.748408E-16	3.001724E-17
7.090000E+03	2.789524E-16	3.047735E-17
7.100000E+03	2.831723E-16	3.094969E-17
7.110000E+03	2.874908E-16	3.143323E-17
7.120000E+03	2.918935E-16	3.192638E-17
7.130000E+03	2.963645E-16	3.242743E-17
7.140000E+03	3.008824E-16	3.293406E-17
7.150000E+03	3.054320E-16	3.344461E-17
7.160000E+03	3.099886E-16	3.395637E-17
7.170000E+03	3.145298E-16	3.446690E-17
7.180000E+03	3.190317E-16	3.497359E-17
7.190000E+03	3.234690E-16	3.547365E-17
7.200000E+03	3.278151E-16	3.596416E-17
7.210000E+03	3.320380E-16	3.644161E-17
7.220000E+03	3.361134E-16	3.690330E-17
7.230000E+03	3.400079E-16	3.734557E-17
7.240000E+03	3.436971E-16	3.776571E-17
7.250000E+03	3.471434E-16	3.815957E-17
7.260000E+03	3.503281E-16	3.852506E-17
7.270000E+03	3.532112E-16	3.885774E-17
7.280000E+03	3.557773E-16	3.915590E-17
7.290000E+03	3.580044E-16	3.941706E-17
7.300000E+03	3.598595E-16	3.963754E-17
7.310000E+03	3.613406E-16	3.981709E-17
7.320000E+03	3.624216E-16	3.995277E-17
7.330000E+03	3.630989E-16	4.004414E-17
7.340000E+03	3.633642E-16	4.009022E-17
7.350000E+03	3.632175E-16	4.009096E-17
7.360000E+03	3.626549E-16	4.004588E-17
7.370000E+03	3.616899E-16	3.995639E-17
7.380000E+03	3.603314E-16	3.982344E-17
7.390000E+03	3.585874E-16	3.964786E-17
7.400000E+03	3.564789E-16	3.943190E-17
7.410000E+03	3.540300E-16	3.917819E-17
7.420000E+03	3.512586E-16	3.888864E-17
7.430000E+03	3.481937E-16	3.856644E-17
7.440000E+03	3.448663E-16	3.821495E-17
7.450000E+03	3.413125E-16	3.783817E-17
7.460000E+03	3.375605E-16	3.743915E-17
7.470000E+03	3.336556E-16	3.702291E-17
7.480000E+03	3.296209E-16	3.659199E-17
7.490000E+03	3.255003E-16	3.615122E-17
7.500000E+03	3.213189E-16	3.570339E-17
7.510000E+03	3.171131E-16	3.525253E-17
7.520000E+03	3.129049E-16	3.480107E-17
7.530000E+03	3.087228E-16	3.435218E-17
7.540000E+03	3.045897E-16	3.390840E-17
7.550000E+03	3.005347E-16	3.347297E-17
7.560000E+03	2.965695E-16	3.304721E-17
7.570000E+03	2.927191E-16	3.263392E-17
7.580000E+03	2.889946E-16	3.223433E-17
7.590000E+03	2.854115E-16	3.185021E-17
7.600000E+03	2.819795E-16	3.148265E-17
7.610000E+03	2.787051E-16	3.113239E-17
7.620000E+03	2.755926E-16	3.079995E-17
7.630000E+03	2.726439E-16	3.048555E-17
7.640000E+03	2.698621E-16	3.018955E-17
7.650000E+03	2.672444E-16	2.991169E-17
7.660000E+03	2.647826E-16	2.965106E-17
7.670000E+03	2.624703E-16	2.940695E-17
7.680000E+03	2.603061E-16	2.917926E-17
7.690000E+03	2.582767E-16	2.896649E-17
7.700000E+03	2.563679E-16	2.876708E-17
7.710000E+03	2.545707E-16	2.858004E-17
7.720000E+03	2.528719E-16	2.840390E-17
7.730000E+03	2.512610E-16	2.823749E-17
7.740000E+03	2.497165E-16	2.807841E-17
7.750000E+03	2.482270E-16	2.792539E-17
7.760000E+03	2.467806E-16	2.777708E-17
