#wls	flux	fluxerr
1.600000E+03	3.004005E-16	4.053889E-17
1.640000E+03	3.072582E-16	4.143339E-17
1.680000E+03	3.141110E-16	4.232503E-17
1.720000E+03	3.209352E-16	4.321055E-17
1.760000E+03	3.277047E-16	4.408640E-17
1.800000E+03	3.344534E-16	4.495705E-17
1.840000E+03	3.410923E-16	4.581051E-17
1.880000E+03	3.476529E-16	4.665095E-17
1.920000E+03	3.541044E-16	4.747422E-17
1.960000E+03	3.604142E-16	4.827588E-17
2.000000E+03	3.665471E-16	4.905125E-17
2.040000E+03	3.725329E-16	4.980426E-17
2.080000E+03	3.783344E-16	5.052995E-17
2.120000E+03	3.839133E-16	5.122320E-17
2.160000E+03	3.892960E-16	5.188757E-17
2.200000E+03	3.943736E-16	5.250854E-17
2.240000E+03	3.992372E-16	5.309831E-17
2.280000E+03	4.037745E-16	5.364198E-17
2.320000E+03	4.080060E-16	5.414237E-17
2.360000E+03	4.119507E-16	5.460205E-17
2.400000E+03	4.155578E-16	5.501438E-17
2.440000E+03	4.187749E-16	5.537254E-17
2.480000E+03	4.216141E-16	5.567827E-17
2.520000E+03	4.240845E-16	5.593291E-17
2.560000E+03	4.261269E-16	5.612881E-17
2.600000E+03	4.278080E-16	5.627492E-17
2.640000E+03	4.290620E-16	5.636277E-17
2.680000E+03	4.298840E-16	5.639192E-17
2.720000E+03	4.302650E-16	5.636139E-17
2.760000E+03	4.302499E-16	5.627730E-17
2.800000E+03	4.298176E-16	5.613712E-17
2.840000E+03	4.288885E-16	5.593071E-17
2.880000E+03	4.275470E-16	5.566934E-17
2.920000E+03	4.258102E-16	5.535552E-17
2.960000E+03	4.236877E-16	5.499074E-17
3.000000E+03	4.211342E-16	5.456940E-17
3.010000E+03	4.204180E-16	5.445391E-17
3.020000E+03	4.196911E-16	5.433702E-17
3.030000E+03	4.189518E-16	5.421849E-17
3.040000E+03	4.181979E-16	5.409806E-17
3.050000E+03	4.173829E-16	5.396971E-17
3.060000E+03	4.165951E-16	5.384486E-17
3.070000E+03	4.157435E-16	5.371177E-17
3.080000E+03	4.148712E-16	5.357600E-17
3.090000E+03	4.140195E-16	5.344289E-17
3.100000E+03	4.131007E-16	5.330111E-17
3.110000E+03	4.121982E-16	5.316145E-17
3.120000E+03	4.112679E-16	5.301820E-17
3.130000E+03	4.103082E-16	5.287118E-17
3.140000E+03	4.093181E-16	5.272025E-17
3.150000E+03	4.083358E-16	5.257034E-17
3.160000E+03	4.073193E-16	5.241606E-17
3.170000E+03	4.062676E-16	5.225727E-17
3.180000E+03	4.052180E-16	5.209877E-17
3.190000E+03	4.041676E-16	5.194021E-17
3.200000E+03	4.030772E-16	5.177652E-17
3.210000E+03	4.019822E-16	5.161230E-17
3.220000E+03	4.008808E-16	5.144728E-17
3.230000E+03	3.997705E-16	5.128114E-17
3.240000E+03	3.986142E-16	5.110917E-17
3.250000E+03	3.974461E-16	5.093572E-17
3.260000E+03	3.962981E-16	5.076490E-17
3.270000E+03	3.951001E-16	5.058772E-17
3.280000E+03	3.939176E-16	5.041258E-17
3.290000E+03	3.927153E-16	5.023495E-17
3.300000E+03	3.915234E-16	5.005872E-17
3.310000E+03	3.902761E-16	4.987547E-17
3.320000E+03	3.890667E-16	4.969713E-17
3.330000E+03	3.877996E-16	4.951147E-17
3.340000E+03	3.865653E-16	4.933008E-17
3.350000E+03	3.853008E-16	4.914489E-17
3.360000E+03	3.840344E-16	4.895954E-17
3.370000E+03	3.827644E-16	4.877380E-17
3.380000E+03	3.814886E-16	4.858741E-17
3.390000E+03	3.802056E-16	4.840016E-17
3.400000E+03	3.789411E-16	4.821535E-17
3.410000E+03	3.776390E-16	4.802584E-17
3.420000E+03	3.763524E-16	4.783839E-17
3.430000E+03	3.750792E-16	4.765271E-17
3.440000E+03	3.737922E-16	4.746536E-17
3.450000E+03	3.725162E-16	4.727951E-17
3.460000E+03	3.712255E-16	4.709187E-17
3.470000E+03	3.699688E-16	4.690864E-17
3.480000E+03	3.686971E-16	4.672358E-17
3.490000E+03	3.674580E-16	4.654275E-17
3.500000E+03	3.662276E-16	4.636311E-17
3.510000E+03	3.650068E-16	4.618475E-17
3.520000E+03	3.638184E-16	4.601060E-17
3.530000E+03	3.626629E-16	4.584067E-17
3.540000E+03	3.615197E-16	4.567238E-17
3.550000E+03	3.604117E-16	4.550863E-17
3.560000E+03	3.593408E-16	4.534962E-17
3.570000E+03	3.583085E-16	4.519557E-17
3.580000E+03	3.573175E-16	4.504677E-17
3.590000E+03	3.563897E-16	4.490602E-17
3.600000E+03	3.555081E-16	4.477114E-17
3.610000E+03	3.546764E-16	4.464259E-17
3.620000E+03	3.539346E-16	4.452540E-17
3.630000E+03	3.532493E-16	4.441534E-17
3.640000E+03	3.526421E-16	4.431513E-17
3.650000E+03	3.521341E-16	4.422740E-17
3.660000E+03	3.516941E-16	4.414822E-17
3.670000E+03	3.513606E-16	4.408239E-17
3.680000E+03	3.511365E-16	4.403027E-17
3.690000E+03	3.510090E-16	4.399023E-17
3.700000E+03	3.510141E-16	4.396675E-17
3.710000E+03	3.511227E-16	4.395617E-17
3.720000E+03	3.513540E-16	4.396086E-17
3.730000E+03	3.517107E-16	4.398117E-17
3.740000E+03	3.522102E-16	4.401919E-17
3.750000E+03	3.528391E-16	4.407328E-17
3.760000E+03	3.536134E-16	4.414536E-17
3.770000E+03	3.545333E-16	4.423545E-17
3.780000E+03	3.555845E-16	4.434173E-17
3.790000E+03	3.567942E-16	4.446758E-17
3.800000E+03	3.581461E-16	4.461091E-17
3.810000E+03	3.596376E-16	4.477137E-17
3.820000E+03	3.612646E-16	4.494845E-17
3.830000E+03	3.630357E-16	4.514316E-17
3.840000E+03	3.649315E-16	4.535307E-17
3.850000E+03	3.669578E-16	4.557888E-17
3.860000E+03	3.691185E-16	4.582102E-17
3.870000E+03	3.713783E-16	4.607512E-17
3.880000E+03	3.737391E-16	4.634138E-17
3.890000E+03	3.761890E-16	4.661829E-17
3.900000E+03	3.787145E-16	4.690417E-17
3.910000E+03	3.813136E-16	4.719877E-17
3.920000E+03	3.839588E-16	4.749865E-17
3.930000E+03	3.866342E-16	4.780185E-17
3.940000E+03	3.893348E-16	4.810773E-17
3.950000E+03	3.920313E-16	4.841269E-17
3.960000E+03	3.947177E-16	4.871596E-17
3.970000E+03	3.973757E-16	4.901533E-17
3.980000E+03	3.999760E-16	4.930716E-17
3.990000E+03	4.025124E-16	4.959069E-17
4.000000E+03	4.049565E-16	4.986247E-17
4.010000E+03	4.073026E-16	5.012181E-17
4.020000E+03	4.095350E-16	5.036680E-17
4.030000E+03	4.116289E-16	5.059440E-17
4.040000E+03	4.135816E-16	5.080434E-17
4.050000E+03	4.153613E-16	5.099273E-17
4.060000E+03	4.169893E-16	5.116222E-17
4.070000E+03	4.184274E-16	5.130817E-17
4.080000E+03	4.196904E-16	5.143243E-17
4.090000E+03	4.207553E-16	5.153223E-17
4.100000E+03	4.216406E-16	5.160987E-17
4.110000E+03	4.223287E-16	5.166324E-17
4.120000E+03	4.228232E-16	5.169284E-17
4.130000E+03	4.231397E-16	5.170060E-17
4.140000E+03	4.232681E-16	5.168533E-17
4.150000E+03	4.232367E-16	5.165055E-17
4.160000E+03	4.230399E-16	5.159558E-17
4.170000E+03	4.226836E-16	5.152121E-17
4.180000E+03	4.222004E-16	5.143143E-17
4.190000E+03	4.215908E-16	5.132633E-17
4.200000E+03	4.208732E-16	5.120819E-17
4.210000E+03	4.200669E-16	5.107936E-17
4.220000E+03	4.191842E-16	5.094138E-17
4.230000E+03	4.182457E-16	5.079676E-17
4.240000E+03	4.172651E-16	5.064719E-17
4.250000E+03	4.162563E-16	5.049435E-17
4.260000E+03	4.152409E-16	5.034087E-17
4.270000E+03	4.142400E-16	5.018931E-17
4.280000E+03	4.132603E-16	5.004050E-17
4.290000E+03	4.123225E-16	4.989692E-17
4.300000E+03	4.114463E-16	4.976094E-17
4.310000E+03	4.106305E-16	4.963243E-17
4.320000E+03	4.099004E-16	4.951442E-17
4.330000E+03	4.092599E-16	4.940735E-17
4.340000E+03	4.087251E-16	4.931318E-17
4.350000E+03	4.082979E-16	4.923209E-17
4.360000E+03	4.079855E-16	4.916493E-17
4.370000E+03	4.077871E-16	4.911160E-17
4.380000E+03	4.077185E-16	4.907395E-17
4.390000E+03	4.077635E-16	4.905003E-17
4.400000E+03	4.079276E-16	4.904047E-17
4.410000E+03	4.082029E-16	4.904430E-17
4.420000E+03	4.085852E-16	4.906099E-17
4.430000E+03	4.090569E-16	4.908841E-17
4.440000E+03	4.096159E-16	4.912629E-17
4.450000E+03	4.102468E-16	4.917276E-17
4.460000E+03	4.109433E-16	4.922706E-17
4.470000E+03	4.116974E-16	4.928823E-17
4.480000E+03	4.124993E-16	4.935509E-17
4.490000E+03	4.133430E-16	4.942689E-17
4.500000E+03	4.142101E-16	4.950143E-17
4.510000E+03	4.150966E-16	4.957826E-17
4.520000E+03	4.159819E-16	4.965489E-17
4.530000E+03	4.168546E-16	4.972997E-17
4.540000E+03	4.176975E-16	4.980147E-17
4.550000E+03	4.184932E-16	4.986729E-17
4.560000E+03	4.192287E-16	4.992593E-17
4.570000E+03	4.198866E-16	4.997533E-17
4.580000E+03	4.204498E-16	5.001345E-17
4.590000E+03	4.209068E-16	5.003898E-17
4.600000E+03	4.212425E-16	5.005012E-17
4.610000E+03	4.214379E-16	5.004467E-17
4.620000E+03	4.214909E-16	5.002238E-17
4.630000E+03	4.213914E-16	4.998211E-17
4.640000E+03	4.211312E-16	4.992291E-17
4.650000E+03	4.207047E-16	4.984416E-17
4.660000E+03	4.201136E-16	4.974608E-17
4.670000E+03	4.193621E-16	4.962923E-17
4.680000E+03	4.184473E-16	4.949327E-17
4.690000E+03	4.173831E-16	4.933990E-17
4.700000E+03	4.161813E-16	4.917053E-17
4.710000E+03	4.148413E-16	4.898513E-17
4.720000E+03	4.133933E-16	4.878730E-17
4.730000E+03	4.118409E-16	4.857747E-17
4.740000E+03	4.102037E-16	4.835797E-17
4.750000E+03	4.085020E-16	4.813122E-17
4.760000E+03	4.067482E-16	4.789870E-17
4.770000E+03	4.049602E-16	4.766250E-17
4.780000E+03	4.031466E-16	4.742367E-17
4.790000E+03	4.013302E-16	4.718488E-17
4.800000E+03	3.995330E-16	4.694871E-17
4.810000E+03	3.977759E-16	4.671762E-17
4.820000E+03	3.960749E-16	4.649347E-17
4.830000E+03	3.944488E-16	4.627846E-17
4.840000E+03	3.929059E-16	4.607356E-17
4.850000E+03	3.914579E-16	4.588012E-17
4.860000E+03	3.901142E-16	4.569920E-17
4.870000E+03	3.888782E-16	4.553122E-17
4.880000E+03	3.877597E-16	4.537729E-17
4.890000E+03	3.867585E-16	4.523735E-17
4.900000E+03	3.858804E-16	4.511209E-17
4.910000E+03	3.851211E-16	4.500096E-17
4.920000E+03	3.844790E-16	4.490377E-17
4.930000E+03	3.839546E-16	4.482054E-17
4.940000E+03	3.835389E-16	4.475023E-17
4.950000E+03	3.832299E-16	4.469255E-17
4.960000E+03	3.830203E-16	4.464667E-17
4.970000E+03	3.829019E-16	4.461161E-17
4.980000E+03	3.828664E-16	4.458637E-17
4.990000E+03	3.829084E-16	4.457034E-17
5.000000E+03	3.830191E-16	4.456247E-17
5.010000E+03	3.831895E-16	4.456170E-17
5.020000E+03	3.834146E-16	4.456745E-17
5.030000E+03	3.836783E-16	4.457784E-17
5.040000E+03	3.839850E-16	4.459337E-17
5.050000E+03	3.843235E-16	4.461275E-17
5.060000E+03	3.846877E-16	4.463526E-17
5.070000E+03	3.850763E-16	4.466075E-17
5.080000E+03	3.854806E-16	4.468822E-17
5.090000E+03	3.859007E-16	4.471767E-17
5.100000E+03	3.863336E-16	4.474875E-17
5.110000E+03	3.867807E-16	4.478164E-17
5.120000E+03	3.872360E-16	4.481564E-17
5.130000E+03	3.877020E-16	4.485103E-17
5.140000E+03	3.881735E-16	4.488722E-17
5.150000E+03	3.886530E-16	4.492451E-17
5.160000E+03	3.891396E-16	4.496277E-17
5.170000E+03	3.896320E-16	4.500188E-17
5.180000E+03	3.901325E-16	4.504210E-17
5.190000E+03	3.906314E-16	4.508231E-17
5.200000E+03	3.911344E-16	4.512317E-17
5.210000E+03	3.916308E-16	4.516345E-17
5.220000E+03	3.921252E-16	4.520370E-17
5.230000E+03	3.926138E-16	4.524346E-17
5.240000E+03	3.930842E-16	4.528132E-17
5.250000E+03	3.935390E-16	4.531760E-17
5.260000E+03	3.939688E-16	4.535119E-17
5.270000E+03	3.943672E-16	4.538138E-17
5.280000E+03	3.947314E-16	4.540786E-17
5.290000E+03	3.950460E-16	4.542885E-17
5.300000E+03	3.953071E-16	4.544392E-17
5.310000E+03	3.955104E-16	4.545259E-17
5.320000E+03	3.956351E-16	4.545247E-17
5.330000E+03	3.956840E-16	4.544391E-17
5.340000E+03	3.956396E-16	4.542489E-17
5.350000E+03	3.954958E-16	4.539473E-17
5.360000E+03	3.952419E-16	4.535223E-17
5.370000E+03	3.948592E-16	4.529522E-17
5.380000E+03	3.943439E-16	4.522330E-17
5.390000E+03	3.936841E-16	4.513511E-17
5.400000E+03	3.928598E-16	4.502836E-17
5.410000E+03	3.918709E-16	4.490306E-17
5.420000E+03	3.906982E-16	4.475702E-17
5.430000E+03	3.893356E-16	4.458954E-17
5.440000E+03	3.877778E-16	4.440004E-17
5.450000E+03	3.860215E-16	4.418816E-17
5.460000E+03	3.840652E-16	4.395372E-17
5.470000E+03	3.819094E-16	4.369679E-17
5.480000E+03	3.795641E-16	4.341854E-17
5.490000E+03	3.770303E-16	4.311908E-17
5.500000E+03	3.743188E-16	4.279966E-17
5.510000E+03	3.714242E-16	4.245967E-17
5.520000E+03	3.683619E-16	4.210087E-17
5.530000E+03	3.651279E-16	4.172282E-17
5.540000E+03	3.617353E-16	4.132700E-17
5.550000E+03	3.581992E-16	4.091515E-17
5.560000E+03	3.545260E-16	4.048801E-17
5.570000E+03	3.507384E-16	4.004816E-17
5.580000E+03	3.468567E-16	3.959792E-17
5.590000E+03	3.429024E-16	3.913974E-17
5.600000E+03	3.388912E-16	3.867542E-17
5.610000E+03	3.348527E-16	3.820832E-17
5.620000E+03	3.308068E-16	3.774071E-17
5.630000E+03	3.267795E-16	3.727555E-17
5.640000E+03	3.227903E-16	3.681504E-17
5.650000E+03	3.188640E-16	3.636202E-17
5.660000E+03	3.150183E-16	3.591849E-17
5.670000E+03	3.112761E-16	3.548703E-17
5.680000E+03	3.076522E-16	3.506935E-17
5.690000E+03	3.041693E-16	3.466800E-17
5.700000E+03	3.008362E-16	3.428397E-17
5.710000E+03	2.976716E-16	3.391940E-17
5.720000E+03	2.946808E-16	3.357486E-17
5.730000E+03	2.918784E-16	3.325201E-17
5.740000E+03	2.892687E-16	3.295133E-17
5.750000E+03	2.868596E-16	3.267371E-17
5.760000E+03	2.846514E-16	3.241916E-17
5.770000E+03	2.826453E-16	3.218781E-17
5.780000E+03	2.808440E-16	3.197997E-17
5.790000E+03	2.792423E-16	3.179502E-17
5.800000E+03	2.778396E-16	3.163290E-17
5.810000E+03	2.766308E-16	3.149302E-17
5.820000E+03	2.756071E-16	3.137435E-17
5.830000E+03	2.747640E-16	3.127640E-17
5.840000E+03	2.740933E-16	3.119822E-17
5.850000E+03	2.735838E-16	3.113852E-17
5.860000E+03	2.732259E-16	3.109622E-17
5.870000E+03	2.730156E-16	3.107085E-17
5.880000E+03	2.729377E-16	3.106068E-17
5.890000E+03	2.729824E-16	3.106460E-17
5.900000E+03	2.731432E-16	3.108185E-17
5.910000E+03	2.734080E-16	3.111106E-17
5.920000E+03	2.737714E-16	3.115162E-17
5.930000E+03	2.742198E-16	3.120198E-17
5.940000E+03	2.747519E-16	3.126200E-17
5.950000E+03	2.753592E-16	3.133070E-17
5.960000E+03	2.760365E-16	3.140749E-17
5.970000E+03	2.767775E-16	3.149165E-17
5.980000E+03	2.775823E-16	3.158321E-17
5.990000E+03	2.784468E-16	3.168169E-17
6.000000E+03	2.793738E-16	3.178741E-17
6.010000E+03	2.803585E-16	3.189983E-17
6.020000E+03	2.814060E-16	3.201953E-17
6.030000E+03	2.825168E-16	3.214656E-17
6.040000E+03	2.836948E-16	3.228138E-17
6.050000E+03	2.849420E-16	3.242422E-17
6.060000E+03	2.862668E-16	3.257603E-17
6.070000E+03	2.876723E-16	3.273717E-17
6.080000E+03	2.891615E-16	3.290797E-17
6.090000E+03	2.907406E-16	3.308916E-17
6.100000E+03	2.924122E-16	3.328104E-17
6.110000E+03	2.941817E-16	3.348421E-17
6.120000E+03	2.960533E-16	3.369916E-17
6.130000E+03	2.980246E-16	3.392563E-17
6.140000E+03	3.001003E-16	3.416415E-17
6.150000E+03	3.022808E-16	3.441478E-17
6.160000E+03	3.045588E-16	3.467668E-17
6.170000E+03	3.069336E-16	3.494980E-17
6.180000E+03	3.093997E-16	3.523350E-17
6.190000E+03	3.119456E-16	3.552649E-17
6.200000E+03	3.145674E-16	3.582833E-17
6.210000E+03	3.172521E-16	3.613753E-17
6.220000E+03	3.199846E-16	3.645239E-17
6.230000E+03	3.227475E-16	3.677093E-17
6.240000E+03	3.255250E-16	3.709136E-17
6.250000E+03	3.282972E-16	3.741140E-17
6.260000E+03	3.310435E-16	3.772872E-17
6.270000E+03	3.337423E-16	3.804085E-17
6.280000E+03	3.363742E-16	3.834557E-17
6.290000E+03	3.389188E-16	3.864057E-17
6.300000E+03	3.413484E-16	3.892266E-17
6.310000E+03	3.436413E-16	3.918940E-17
6.320000E+03	3.457693E-16	3.943754E-17
6.330000E+03	3.477148E-16	3.966508E-17
6.340000E+03	3.494505E-16	3.986890E-17
6.350000E+03	3.509538E-16	4.004639E-17
6.360000E+03	3.522038E-16	4.019516E-17
6.370000E+03	3.531854E-16	4.031349E-17
6.380000E+03	3.538748E-16	4.039862E-17
6.390000E+03	3.542657E-16	4.044985E-17
6.400000E+03	3.543438E-16	4.046549E-17
6.410000E+03	3.541017E-16	4.044471E-17
6.420000E+03	3.535355E-16	4.038701E-17
6.430000E+03	3.526408E-16	4.029189E-17
6.440000E+03	3.514203E-16	4.015964E-17
6.450000E+03	3.498803E-16	3.999092E-17
6.460000E+03	3.480297E-16	3.978677E-17
6.470000E+03	3.458806E-16	3.954853E-17
6.480000E+03	3.434440E-16	3.927744E-17
6.490000E+03	3.407372E-16	3.897545E-17
6.500000E+03	3.377753E-16	3.864426E-17
6.510000E+03	3.345864E-16	3.828706E-17
6.520000E+03	3.311918E-16	3.790630E-17
6.530000E+03	3.276073E-16	3.750375E-17
6.540000E+03	3.238668E-16	3.708325E-17
6.550000E+03	3.199895E-16	3.664703E-17
6.560000E+03	3.160057E-16	3.619852E-17
6.570000E+03	3.119344E-16	3.573988E-17
6.580000E+03	3.078013E-16	3.527404E-17
6.590000E+03	3.036305E-16	3.480377E-17
6.600000E+03	2.994425E-16	3.433140E-17
6.610000E+03	2.952595E-16	3.385949E-17
6.620000E+03	2.910996E-16	3.339009E-17
6.630000E+03	2.869830E-16	3.292552E-17
6.640000E+03	2.829253E-16	3.246757E-17
6.650000E+03	2.789442E-16	3.201828E-17
6.660000E+03	2.750503E-16	3.157887E-17
6.670000E+03	2.712622E-16	3.115146E-17
6.680000E+03	2.675882E-16	3.073702E-17
6.690000E+03	2.640422E-16	3.033716E-17
6.700000E+03	2.606369E-16	2.995333E-17
6.710000E+03	2.573750E-16	2.958588E-17
6.720000E+03	2.542736E-16	2.923675E-17
6.730000E+03	2.513346E-16	2.890619E-17
6.740000E+03	2.485675E-16	2.859530E-17
6.750000E+03	2.459813E-16	2.830513E-17
6.760000E+03	2.435793E-16	2.803606E-17
6.770000E+03	2.413662E-16	2.778867E-17
6.780000E+03	2.393496E-16	2.756383E-17
6.790000E+03	2.375367E-16	2.736239E-17
6.800000E+03	2.359257E-16	2.718416E-17
6.810000E+03	2.345224E-16	2.702985E-17
6.820000E+03	2.333329E-16	2.690014E-17
6.830000E+03	2.323570E-16	2.679504E-17
6.840000E+03	2.315965E-16	2.671480E-17
6.850000E+03	2.310561E-16	2.665996E-17
6.860000E+03	2.307344E-16	2.663039E-17
6.870000E+03	2.306377E-16	2.662683E-17
6.880000E+03	2.307583E-16	2.664841E-17
6.890000E+03	2.311044E-16	2.669611E-17
6.900000E+03	2.316726E-16	2.676956E-17
6.910000E+03	2.324595E-16	2.686838E-17
6.920000E+03	2.334662E-16	2.699273E-17
6.930000E+03	2.346908E-16	2.714241E-17
6.940000E+03	2.361336E-16	2.731746E-17
6.950000E+03	2.377860E-16	2.751694E-17
6.960000E+03	2.396472E-16	2.774078E-17
6.970000E+03	2.417133E-16	2.798851E-17
6.980000E+03	2.439796E-16	2.825967E-17
6.990000E+03	2.464413E-16	2.855367E-17
7.000000E+03	2.490896E-16	2.886955E-17
7.010000E+03	2.519248E-16	2.920735E-17
7.020000E+03	2.549372E-16	2.956598E-17
7.030000E+03	2.581166E-16	2.994428E-17
7.040000E+03	2.614589E-16	3.034177E-17
7.050000E+03	2.649557E-16	3.075753E-17
7.060000E+03	2.685985E-16	3.119057E-17
7.070000E+03	2.723780E-16	3.163984E-17
7.080000E+03	2.762806E-16	3.210378E-17
7.090000E+03	2.802952E-16	3.258112E-17
7.100000E+03	2.844133E-16	3.307087E-17
7.110000E+03	2.886221E-16	3.357158E-17
7.120000E+03	2.928999E-16	3.408072E-17
7.130000E+03	2.972386E-16	3.459738E-17
7.140000E+03	3.016175E-16	3.511913E-17
7.150000E+03	3.060179E-16	3.564385E-17
7.160000E+03	3.104203E-16	3.616923E-17
7.170000E+03	3.148027E-16	3.669273E-17
7.180000E+03	3.191424E-16	3.721171E-17
7.190000E+03	3.234107E-16	3.772280E-17
7.200000E+03	3.275817E-16	3.822300E-17
7.210000E+03	3.316330E-16	3.870967E-17
7.220000E+03	3.355367E-16	3.917954E-17
7.230000E+03	3.392564E-16	3.962837E-17
7.240000E+03	3.427680E-16	4.005330E-17
7.250000E+03	3.460437E-16	4.045105E-17
7.260000E+03	3.490566E-16	4.081847E-17
7.270000E+03	3.517765E-16	4.115199E-17
7.280000E+03	3.541795E-16	4.144877E-17
7.290000E+03	3.562487E-16	4.170681E-17
7.300000E+03	3.579564E-16	4.192280E-17
7.310000E+03	3.592917E-16	4.209544E-17
7.320000E+03	3.602430E-16	4.222331E-17
7.330000E+03	3.607934E-16	4.230438E-17
7.340000E+03	3.609484E-16	4.233924E-17
7.350000E+03	3.606996E-16	4.232687E-17
7.360000E+03	3.600522E-16	4.226778E-17
7.370000E+03	3.590106E-16	4.216249E-17
7.380000E+03	3.575930E-16	4.201303E-17
7.390000E+03	3.558073E-16	4.182031E-17
7.400000E+03	3.536697E-16	4.158617E-17
7.410000E+03	3.512086E-16	4.131388E-17
7.420000E+03	3.484412E-16	4.100544E-17
7.430000E+03	3.453915E-16	4.066363E-17
7.440000E+03	3.420898E-16	4.029197E-17
7.450000E+03	3.385718E-16	3.989461E-17
7.460000E+03	3.348732E-16	3.947574E-17
7.470000E+03	3.310256E-16	3.903906E-17
7.480000E+03	3.270644E-16	3.858871E-17
7.490000E+03	3.230195E-16	3.812819E-17
7.500000E+03	3.189239E-16	3.766140E-17
7.510000E+03	3.148009E-16	3.719108E-17
7.520000E+03	3.106844E-16	3.672119E-17
7.530000E+03	3.065940E-16	3.625407E-17
7.540000E+03	3.025562E-16	3.579285E-17
7.550000E+03	2.985918E-16	3.533999E-17
7.560000E+03	2.947240E-16	3.489824E-17
7.570000E+03	2.909620E-16	3.446871E-17
7.580000E+03	2.873280E-16	3.405401E-17
7.590000E+03	2.838302E-16	3.365518E-17
7.600000E+03	2.804815E-16	3.327373E-17
7.610000E+03	2.772887E-16	3.291051E-17
7.620000E+03	2.742561E-16	3.256601E-17
7.630000E+03	2.713816E-16	3.224006E-17
7.640000E+03	2.686723E-16	3.193349E-17
7.650000E+03	2.661216E-16	3.164555E-17
7.660000E+03	2.637286E-16	3.137615E-17
7.670000E+03	2.614796E-16	3.112368E-17
7.680000E+03	2.593733E-16	3.088803E-17
7.690000E+03	2.574000E-16	3.066804E-17
7.700000E+03	2.555450E-16	3.046198E-17
7.710000E+03	2.537995E-16	3.026884E-17
7.720000E+03	2.521466E-16	3.008660E-17
7.730000E+03	2.505760E-16	2.991403E-17
7.740000E+03	2.490691E-16	2.974896E-17
7.750000E+03	2.476147E-16	2.959003E-17
7.760000E+03	2.461972E-16	2.943541E-17
