#wls	flux	fluxerr
1.600000E+03	3.003797E-16	4.037051E-17
1.640000E+03	3.072335E-16	4.126075E-17
1.680000E+03	3.140823E-16	4.214814E-17
1.720000E+03	3.209023E-16	4.302941E-17
1.760000E+03	3.276679E-16	4.390108E-17
1.800000E+03	3.344126E-16	4.476755E-17
1.840000E+03	3.410475E-16	4.561690E-17
1.880000E+03	3.476043E-16	4.645331E-17
1.920000E+03	3.540521E-16	4.727261E-17
1.960000E+03	3.603582E-16	4.807041E-17
2.000000E+03	3.664877E-16	4.884204E-17
2.040000E+03	3.724699E-16	4.959140E-17
2.080000E+03	3.782684E-16	5.031361E-17
2.120000E+03	3.838442E-16	5.100350E-17
2.160000E+03	3.892239E-16	5.166463E-17
2.200000E+03	3.942986E-16	5.228256E-17
2.240000E+03	3.991595E-16	5.286944E-17
2.280000E+03	4.036941E-16	5.341041E-17
2.320000E+03	4.079232E-16	5.390830E-17
2.360000E+03	4.118654E-16	5.436564E-17
2.400000E+03	4.154700E-16	5.477582E-17
2.440000E+03	4.186844E-16	5.513204E-17
2.480000E+03	4.215210E-16	5.543604E-17
2.520000E+03	4.239887E-16	5.568915E-17
2.560000E+03	4.260280E-16	5.588372E-17
2.600000E+03	4.277059E-16	5.602868E-17
2.640000E+03	4.289563E-16	5.611558E-17
2.680000E+03	4.297743E-16	5.614395E-17
2.720000E+03	4.301509E-16	5.611286E-17
2.760000E+03	4.301308E-16	5.602836E-17
2.800000E+03	4.296928E-16	5.588791E-17
2.840000E+03	4.287576E-16	5.568144E-17
2.880000E+03	4.274091E-16	5.542014E-17
2.920000E+03	4.256647E-16	5.510652E-17
2.960000E+03	4.235334E-16	5.474202E-17
3.000000E+03	4.209703E-16	5.432110E-17
3.010000E+03	4.202516E-16	5.420574E-17
3.020000E+03	4.195221E-16	5.408897E-17
3.030000E+03	4.187800E-16	5.397056E-17
3.040000E+03	4.180234E-16	5.385025E-17
3.050000E+03	4.172055E-16	5.372204E-17
3.060000E+03	4.164147E-16	5.359731E-17
3.070000E+03	4.155601E-16	5.346436E-17
3.080000E+03	4.146848E-16	5.332874E-17
3.090000E+03	4.138299E-16	5.319575E-17
3.100000E+03	4.129078E-16	5.305413E-17
3.110000E+03	4.120020E-16	5.291460E-17
3.120000E+03	4.110682E-16	5.277148E-17
3.130000E+03	4.101051E-16	5.262462E-17
3.140000E+03	4.091113E-16	5.247383E-17
3.150000E+03	4.081252E-16	5.232404E-17
3.160000E+03	4.071049E-16	5.216990E-17
3.170000E+03	4.060494E-16	5.201126E-17
3.180000E+03	4.049956E-16	5.185288E-17
3.190000E+03	4.039412E-16	5.169444E-17
3.200000E+03	4.028466E-16	5.153089E-17
3.210000E+03	4.017473E-16	5.136678E-17
3.220000E+03	4.006415E-16	5.120187E-17
3.230000E+03	3.995266E-16	5.103584E-17
3.240000E+03	3.983658E-16	5.086399E-17
3.250000E+03	3.971930E-16	5.069065E-17
3.260000E+03	3.960402E-16	5.051992E-17
3.270000E+03	3.948372E-16	5.034283E-17
3.280000E+03	3.936498E-16	5.016779E-17
3.290000E+03	3.924424E-16	4.999025E-17
3.300000E+03	3.912453E-16	4.981408E-17
3.310000E+03	3.899928E-16	4.963093E-17
3.320000E+03	3.887782E-16	4.945265E-17
3.330000E+03	3.875058E-16	4.926709E-17
3.340000E+03	3.862660E-16	4.908575E-17
3.350000E+03	3.849960E-16	4.890063E-17
3.360000E+03	3.837242E-16	4.871537E-17
3.370000E+03	3.824486E-16	4.852969E-17
3.380000E+03	3.811674E-16	4.834339E-17
3.390000E+03	3.798789E-16	4.815622E-17
3.400000E+03	3.786089E-16	4.797149E-17
3.410000E+03	3.773014E-16	4.778209E-17
3.420000E+03	3.760094E-16	4.759473E-17
3.430000E+03	3.747308E-16	4.740916E-17
3.440000E+03	3.734385E-16	4.722193E-17
3.450000E+03	3.721573E-16	4.703620E-17
3.460000E+03	3.708616E-16	4.684871E-17
3.470000E+03	3.696000E-16	4.666562E-17
3.480000E+03	3.683235E-16	4.648074E-17
3.490000E+03	3.670796E-16	4.630007E-17
3.500000E+03	3.658448E-16	4.612062E-17
3.510000E+03	3.646195E-16	4.594247E-17
3.520000E+03	3.634270E-16	4.576853E-17
3.530000E+03	3.622673E-16	4.559880E-17
3.540000E+03	3.611202E-16	4.543073E-17
3.550000E+03	3.600085E-16	4.526720E-17
3.560000E+03	3.589339E-16	4.510842E-17
3.570000E+03	3.578984E-16	4.495460E-17
3.580000E+03	3.569041E-16	4.480604E-17
3.590000E+03	3.559732E-16	4.466550E-17
3.600000E+03	3.550887E-16	4.453083E-17
3.610000E+03	3.542541E-16	4.440248E-17
3.620000E+03	3.535097E-16	4.428546E-17
3.630000E+03	3.528217E-16	4.417556E-17
3.640000E+03	3.522122E-16	4.407549E-17
3.650000E+03	3.517017E-16	4.398784E-17
3.660000E+03	3.512596E-16	4.390874E-17
3.670000E+03	3.509238E-16	4.384292E-17
3.680000E+03	3.506976E-16	4.379077E-17
3.690000E+03	3.505680E-16	4.375065E-17
3.700000E+03	3.505708E-16	4.372701E-17
3.710000E+03	3.506772E-16	4.371622E-17
3.720000E+03	3.509063E-16	4.372065E-17
3.730000E+03	3.512606E-16	4.374058E-17
3.740000E+03	3.517577E-16	4.377819E-17
3.750000E+03	3.523839E-16	4.383173E-17
3.760000E+03	3.531555E-16	4.390320E-17
3.770000E+03	3.540725E-16	4.399258E-17
3.780000E+03	3.551205E-16	4.409805E-17
3.790000E+03	3.563268E-16	4.422296E-17
3.800000E+03	3.576752E-16	4.436529E-17
3.810000E+03	3.591627E-16	4.452462E-17
3.820000E+03	3.607857E-16	4.470048E-17
3.830000E+03	3.625524E-16	4.489386E-17
3.840000E+03	3.644435E-16	4.510234E-17
3.850000E+03	3.664648E-16	4.532661E-17
3.860000E+03	3.686201E-16	4.556712E-17
3.870000E+03	3.708745E-16	4.581951E-17
3.880000E+03	3.732295E-16	4.608398E-17
3.890000E+03	3.756734E-16	4.635902E-17
3.900000E+03	3.781928E-16	4.664299E-17
3.910000E+03	3.807855E-16	4.693561E-17
3.920000E+03	3.834243E-16	4.723349E-17
3.930000E+03	3.860932E-16	4.753464E-17
3.940000E+03	3.887871E-16	4.783847E-17
3.950000E+03	3.914770E-16	4.814138E-17
3.960000E+03	3.941568E-16	4.844262E-17
3.970000E+03	3.968082E-16	4.873997E-17
3.980000E+03	3.994022E-16	4.902984E-17
3.990000E+03	4.019322E-16	4.931147E-17
4.000000E+03	4.043701E-16	4.958140E-17
4.010000E+03	4.067103E-16	4.983898E-17
4.020000E+03	4.089372E-16	5.008232E-17
4.030000E+03	4.110257E-16	5.030837E-17
4.040000E+03	4.129734E-16	5.051687E-17
4.050000E+03	4.147486E-16	5.070397E-17
4.060000E+03	4.163723E-16	5.087229E-17
4.070000E+03	4.178066E-16	5.101723E-17
4.080000E+03	4.190660E-16	5.114060E-17
4.090000E+03	4.201280E-16	5.123968E-17
4.100000E+03	4.210107E-16	5.131676E-17
4.110000E+03	4.216966E-16	5.136971E-17
4.120000E+03	4.221894E-16	5.139905E-17
4.130000E+03	4.225045E-16	5.140668E-17
4.140000E+03	4.226320E-16	5.139144E-17
4.150000E+03	4.225999E-16	5.135679E-17
4.160000E+03	4.224028E-16	5.130210E-17
4.170000E+03	4.220464E-16	5.122809E-17
4.180000E+03	4.215635E-16	5.113881E-17
4.190000E+03	4.209542E-16	5.103426E-17
4.200000E+03	4.202371E-16	5.091675E-17
4.210000E+03	4.194314E-16	5.078862E-17
4.220000E+03	4.185493E-16	5.065137E-17
4.230000E+03	4.176115E-16	5.050753E-17
4.240000E+03	4.166316E-16	5.035875E-17
4.250000E+03	4.156236E-16	5.020672E-17
4.260000E+03	4.146089E-16	5.005406E-17
4.270000E+03	4.136086E-16	4.990330E-17
4.280000E+03	4.126296E-16	4.975528E-17
4.290000E+03	4.116926E-16	4.961247E-17
4.300000E+03	4.108170E-16	4.947724E-17
4.310000E+03	4.100021E-16	4.934946E-17
4.320000E+03	4.092730E-16	4.923215E-17
4.330000E+03	4.086337E-16	4.912577E-17
4.340000E+03	4.081003E-16	4.903226E-17
4.350000E+03	4.076749E-16	4.895182E-17
4.360000E+03	4.073648E-16	4.888531E-17
4.370000E+03	4.071690E-16	4.883261E-17
4.380000E+03	4.071034E-16	4.879558E-17
4.390000E+03	4.071517E-16	4.877227E-17
4.400000E+03	4.073198E-16	4.876332E-17
4.410000E+03	4.075993E-16	4.876774E-17
4.420000E+03	4.079861E-16	4.878500E-17
4.430000E+03	4.084627E-16	4.881299E-17
4.440000E+03	4.090265E-16	4.885139E-17
4.450000E+03	4.096623E-16	4.889836E-17
4.460000E+03	4.103637E-16	4.895314E-17
4.470000E+03	4.111227E-16	4.901475E-17
4.480000E+03	4.119294E-16	4.908201E-17
4.490000E+03	4.127778E-16	4.915418E-17
4.500000E+03	4.136494E-16	4.922907E-17
4.510000E+03	4.145404E-16	4.930622E-17
4.520000E+03	4.154301E-16	4.938316E-17
4.530000E+03	4.163071E-16	4.945857E-17
4.540000E+03	4.171544E-16	4.953039E-17
4.550000E+03	4.179544E-16	4.959658E-17
4.560000E+03	4.186946E-16	4.965566E-17
4.570000E+03	4.193574E-16	4.970554E-17
4.580000E+03	4.199257E-16	4.974424E-17
4.590000E+03	4.203883E-16	4.977044E-17
4.600000E+03	4.207301E-16	4.978238E-17
4.610000E+03	4.209322E-16	4.977785E-17
4.620000E+03	4.209924E-16	4.975664E-17
4.630000E+03	4.209007E-16	4.971758E-17
4.640000E+03	4.206489E-16	4.965975E-17
4.650000E+03	4.202315E-16	4.958252E-17
4.660000E+03	4.196501E-16	4.948612E-17
4.670000E+03	4.189089E-16	4.937108E-17
4.680000E+03	4.180048E-16	4.923707E-17
4.690000E+03	4.169518E-16	4.908578E-17
4.700000E+03	4.157613E-16	4.891856E-17
4.710000E+03	4.144328E-16	4.873541E-17
4.720000E+03	4.129963E-16	4.853987E-17
4.730000E+03	4.114553E-16	4.833237E-17
4.740000E+03	4.098291E-16	4.811519E-17
4.750000E+03	4.081382E-16	4.789076E-17
4.760000E+03	4.063948E-16	4.766054E-17
4.770000E+03	4.046162E-16	4.742656E-17
4.780000E+03	4.028116E-16	4.718988E-17
4.790000E+03	4.010035E-16	4.695316E-17
4.800000E+03	3.992136E-16	4.671893E-17
4.810000E+03	3.974631E-16	4.648969E-17
4.820000E+03	3.957677E-16	4.626724E-17
4.830000E+03	3.941462E-16	4.605377E-17
4.840000E+03	3.926071E-16	4.585027E-17
4.850000E+03	3.911619E-16	4.565807E-17
4.860000E+03	3.898201E-16	4.547824E-17
4.870000E+03	3.885851E-16	4.531119E-17
4.880000E+03	3.874669E-16	4.515804E-17
4.890000E+03	3.864651E-16	4.501873E-17
4.900000E+03	3.855856E-16	4.489394E-17
4.910000E+03	3.848246E-16	4.478318E-17
4.920000E+03	3.841801E-16	4.468623E-17
4.930000E+03	3.836528E-16	4.460313E-17
4.940000E+03	3.832340E-16	4.453286E-17
4.950000E+03	3.829217E-16	4.447517E-17
4.960000E+03	3.827087E-16	4.442921E-17
4.970000E+03	3.825870E-16	4.439403E-17
4.980000E+03	3.825483E-16	4.436866E-17
4.990000E+03	3.825877E-16	4.435251E-17
5.000000E+03	3.826961E-16	4.434452E-17
5.010000E+03	3.828646E-16	4.434366E-17
5.020000E+03	3.830886E-16	4.434938E-17
5.030000E+03	3.833518E-16	4.435979E-17
5.040000E+03	3.836587E-16	4.437541E-17
5.050000E+03	3.839982E-16	4.439495E-17
5.060000E+03	3.843641E-16	4.441769E-17
5.070000E+03	3.847551E-16	4.444348E-17
5.080000E+03	3.851625E-16	4.447132E-17
5.090000E+03	3.855866E-16	4.450123E-17
5.100000E+03	3.860239E-16	4.453282E-17
5.110000E+03	3.864761E-16	4.456628E-17
5.120000E+03	3.869370E-16	4.460090E-17
5.130000E+03	3.874090E-16	4.463696E-17
5.140000E+03	3.878867E-16	4.467383E-17
5.150000E+03	3.883729E-16	4.471185E-17
5.160000E+03	3.888663E-16	4.475086E-17
5.170000E+03	3.893655E-16	4.479072E-17
5.180000E+03	3.898730E-16	4.483169E-17
5.190000E+03	3.903789E-16	4.487265E-17
5.200000E+03	3.908887E-16	4.491425E-17
5.210000E+03	3.913920E-16	4.495527E-17
5.220000E+03	3.918930E-16	4.499621E-17
5.230000E+03	3.923881E-16	4.503667E-17
5.240000E+03	3.928646E-16	4.507519E-17
5.250000E+03	3.933256E-16	4.511212E-17
5.260000E+03	3.937611E-16	4.514634E-17
5.270000E+03	3.941649E-16	4.517713E-17
5.280000E+03	3.945342E-16	4.520418E-17
5.290000E+03	3.948535E-16	4.522572E-17
5.300000E+03	3.951188E-16	4.524131E-17
5.310000E+03	3.953260E-16	4.525048E-17
5.320000E+03	3.954541E-16	4.525085E-17
5.330000E+03	3.955059E-16	4.524274E-17
5.340000E+03	3.954637E-16	4.522414E-17
5.350000E+03	3.953216E-16	4.519438E-17
5.360000E+03	3.950689E-16	4.515226E-17
5.370000E+03	3.946866E-16	4.509561E-17
5.380000E+03	3.941713E-16	4.502406E-17
5.390000E+03	3.935110E-16	4.493624E-17
5.400000E+03	3.926859E-16	4.482990E-17
5.410000E+03	3.916959E-16	4.470505E-17
5.420000E+03	3.905222E-16	4.455954E-17
5.430000E+03	3.891586E-16	4.439268E-17
5.440000E+03	3.876003E-16	4.420394E-17
5.450000E+03	3.858439E-16	4.399295E-17
5.460000E+03	3.838880E-16	4.375955E-17
5.470000E+03	3.817333E-16	4.350384E-17
5.480000E+03	3.793899E-16	4.322697E-17
5.490000E+03	3.768588E-16	4.292906E-17
5.500000E+03	3.741511E-16	4.261139E-17
5.510000E+03	3.712610E-16	4.227331E-17
5.520000E+03	3.682045E-16	4.191664E-17
5.530000E+03	3.649770E-16	4.154087E-17
5.540000E+03	3.615919E-16	4.114752E-17
5.550000E+03	3.580641E-16	4.073829E-17
5.560000E+03	3.544002E-16	4.031393E-17
5.570000E+03	3.506224E-16	3.987698E-17
5.580000E+03	3.467513E-16	3.942976E-17
5.590000E+03	3.428079E-16	3.897468E-17
5.600000E+03	3.388080E-16	3.851351E-17
5.610000E+03	3.347811E-16	3.804960E-17
5.620000E+03	3.307468E-16	3.758518E-17
5.630000E+03	3.267310E-16	3.712320E-17
5.640000E+03	3.227530E-16	3.666580E-17
5.650000E+03	3.188375E-16	3.621583E-17
5.660000E+03	3.150021E-16	3.577523E-17
5.670000E+03	3.112693E-16	3.534658E-17
5.680000E+03	3.076541E-16	3.493155E-17
5.690000E+03	3.041790E-16	3.453268E-17
5.700000E+03	3.008524E-16	3.415093E-17
5.710000E+03	2.976932E-16	3.378843E-17
5.720000E+03	2.947065E-16	3.344573E-17
5.730000E+03	2.919070E-16	3.312450E-17
5.740000E+03	2.892989E-16	3.282520E-17
5.750000E+03	2.868899E-16	3.254869E-17
5.760000E+03	2.846804E-16	3.229502E-17
5.770000E+03	2.826719E-16	3.206432E-17
5.780000E+03	2.808666E-16	3.185685E-17
5.790000E+03	2.792596E-16	3.167205E-17
5.800000E+03	2.778505E-16	3.150986E-17
5.810000E+03	2.766341E-16	3.136968E-17
5.820000E+03	2.756017E-16	3.125050E-17
5.830000E+03	2.747489E-16	3.115184E-17
5.840000E+03	2.740678E-16	3.107280E-17
5.850000E+03	2.735468E-16	3.101206E-17
5.860000E+03	2.731770E-16	3.096858E-17
5.870000E+03	2.729541E-16	3.094189E-17
5.880000E+03	2.728633E-16	3.093030E-17
5.890000E+03	2.728947E-16	3.093270E-17
5.900000E+03	2.730419E-16	3.094836E-17
5.910000E+03	2.732933E-16	3.097594E-17
5.920000E+03	2.736428E-16	3.101478E-17
5.930000E+03	2.740778E-16	3.106343E-17
5.940000E+03	2.745966E-16	3.112171E-17
5.950000E+03	2.751907E-16	3.118865E-17
5.960000E+03	2.758554E-16	3.126370E-17
5.970000E+03	2.765840E-16	3.134615E-17
5.980000E+03	2.773771E-16	3.143602E-17
5.990000E+03	2.782303E-16	3.153283E-17
6.000000E+03	2.791465E-16	3.163692E-17
6.010000E+03	2.801212E-16	3.174776E-17
6.020000E+03	2.811592E-16	3.186592E-17
6.030000E+03	2.822612E-16	3.199146E-17
6.040000E+03	2.834311E-16	3.212483E-17
6.050000E+03	2.846710E-16	3.226628E-17
6.060000E+03	2.859891E-16	3.241673E-17
6.070000E+03	2.873888E-16	3.257657E-17
6.080000E+03	2.888728E-16	3.274613E-17
6.090000E+03	2.904475E-16	3.292611E-17
6.100000E+03	2.921156E-16	3.311682E-17
6.110000E+03	2.938823E-16	3.331888E-17
6.120000E+03	2.957520E-16	3.353276E-17
6.130000E+03	2.977221E-16	3.375821E-17
6.140000E+03	2.997974E-16	3.399575E-17
6.150000E+03	3.019785E-16	3.424546E-17
6.160000E+03	3.042578E-16	3.450648E-17
6.170000E+03	3.066349E-16	3.477878E-17
6.180000E+03	3.091039E-16	3.506170E-17
6.190000E+03	3.116540E-16	3.535400E-17
6.200000E+03	3.142806E-16	3.565518E-17
6.210000E+03	3.169710E-16	3.596382E-17
6.220000E+03	3.197099E-16	3.627817E-17
6.230000E+03	3.224801E-16	3.659628E-17
6.240000E+03	3.252656E-16	3.691635E-17
6.250000E+03	3.280465E-16	3.723611E-17
6.260000E+03	3.308022E-16	3.755325E-17
6.270000E+03	3.335109E-16	3.786526E-17
6.280000E+03	3.361533E-16	3.816997E-17
6.290000E+03	3.387090E-16	3.846505E-17
6.300000E+03	3.411499E-16	3.874733E-17
6.310000E+03	3.434545E-16	3.901433E-17
6.320000E+03	3.455945E-16	3.926286E-17
6.330000E+03	3.475520E-16	3.949086E-17
6.340000E+03	3.492995E-16	3.969521E-17
6.350000E+03	3.508148E-16	3.987335E-17
6.360000E+03	3.520763E-16	4.002285E-17
6.370000E+03	3.530691E-16	4.014196E-17
6.380000E+03	3.537693E-16	4.022799E-17
6.390000E+03	3.541702E-16	4.028014E-17
6.400000E+03	3.542579E-16	4.029681E-17
6.410000E+03	3.540246E-16	4.027709E-17
6.420000E+03	3.534664E-16	4.022052E-17
6.430000E+03	3.525790E-16	4.012660E-17
6.440000E+03	3.513649E-16	3.999558E-17
6.450000E+03	3.498301E-16	3.982813E-17
6.460000E+03	3.479842E-16	3.962531E-17
6.470000E+03	3.458389E-16	3.938842E-17
6.480000E+03	3.434053E-16	3.911872E-17
6.490000E+03	3.407006E-16	3.881815E-17
6.500000E+03	3.377402E-16	3.848842E-17
6.510000E+03	3.345517E-16	3.813267E-17
6.520000E+03	3.311572E-16	3.775341E-17
6.530000E+03	3.275721E-16	3.735236E-17
6.540000E+03	3.238303E-16	3.693337E-17
6.550000E+03	3.199514E-16	3.649866E-17
6.560000E+03	3.159655E-16	3.605166E-17
6.570000E+03	3.118920E-16	3.559455E-17
6.580000E+03	3.077562E-16	3.513024E-17
6.590000E+03	3.035827E-16	3.466150E-17
6.600000E+03	2.993917E-16	3.419064E-17
6.610000E+03	2.952057E-16	3.372023E-17
6.620000E+03	2.910430E-16	3.325234E-17
6.630000E+03	2.869235E-16	3.278926E-17
6.640000E+03	2.828631E-16	3.233280E-17
6.650000E+03	2.788798E-16	3.188501E-17
6.660000E+03	2.749836E-16	3.144705E-17
6.670000E+03	2.711936E-16	3.102110E-17
6.680000E+03	2.675181E-16	3.060811E-17
6.690000E+03	2.639709E-16	3.020967E-17
6.700000E+03	2.605646E-16	2.982724E-17
6.710000E+03	2.573020E-16	2.946114E-17
6.720000E+03	2.542005E-16	2.911336E-17
6.730000E+03	2.512613E-16	2.878407E-17
6.740000E+03	2.484944E-16	2.847443E-17
6.750000E+03	2.459087E-16	2.818544E-17
6.760000E+03	2.435071E-16	2.791747E-17
6.770000E+03	2.412949E-16	2.767114E-17
6.780000E+03	2.392792E-16	2.744728E-17
6.790000E+03	2.374671E-16	2.724673E-17
6.800000E+03	2.358569E-16	2.706928E-17
6.810000E+03	2.344546E-16	2.691567E-17
6.820000E+03	2.332657E-16	2.678654E-17
6.830000E+03	2.322904E-16	2.668192E-17
6.840000E+03	2.315304E-16	2.660204E-17
6.850000E+03	2.309903E-16	2.654744E-17
6.860000E+03	2.306687E-16	2.651799E-17
6.870000E+03	2.305718E-16	2.651441E-17
6.880000E+03	2.306919E-16	2.653584E-17
6.890000E+03	2.310373E-16	2.658326E-17
6.900000E+03	2.316046E-16	2.665631E-17
6.910000E+03	2.323903E-16	2.675460E-17
6.920000E+03	2.333957E-16	2.687829E-17
6.930000E+03	2.346186E-16	2.702718E-17
6.940000E+03	2.360597E-16	2.720134E-17
6.950000E+03	2.377103E-16	2.739982E-17
6.960000E+03	2.395698E-16	2.762256E-17
6.970000E+03	2.416341E-16	2.786911E-17
6.980000E+03	2.438990E-16	2.813902E-17
6.990000E+03	2.463593E-16	2.843170E-17
7.000000E+03	2.490067E-16	2.874621E-17
7.010000E+03	2.518413E-16	2.908261E-17
7.020000E+03	2.548537E-16	2.943981E-17
7.030000E+03	2.580336E-16	2.981666E-17
7.040000E+03	2.613769E-16	3.021270E-17
7.050000E+03	2.648755E-16	3.062701E-17
7.060000E+03	2.685207E-16	3.105862E-17
7.070000E+03	2.723034E-16	3.150647E-17
7.080000E+03	2.762098E-16	3.196901E-17
7.090000E+03	2.802288E-16	3.244496E-17
7.100000E+03	2.843520E-16	3.293338E-17
7.110000E+03	2.885666E-16	3.343276E-17
7.120000E+03	2.928506E-16	3.394061E-17
7.130000E+03	2.971959E-16	3.445598E-17
7.140000E+03	3.015816E-16	3.497647E-17
7.150000E+03	3.059894E-16	3.549995E-17
7.160000E+03	3.103991E-16	3.602410E-17
7.170000E+03	3.147889E-16	3.654638E-17
7.180000E+03	3.191360E-16	3.706416E-17
7.190000E+03	3.234116E-16	3.757408E-17
7.200000E+03	3.275899E-16	3.807314E-17
7.210000E+03	3.316479E-16	3.855866E-17
7.220000E+03	3.355584E-16	3.902747E-17
7.230000E+03	3.392843E-16	3.947523E-17
7.240000E+03	3.428020E-16	3.989919E-17
7.250000E+03	3.460834E-16	4.029602E-17
7.260000E+03	3.491016E-16	4.066261E-17
7.270000E+03	3.518266E-16	4.099539E-17
7.280000E+03	3.542343E-16	4.129155E-17
7.290000E+03	3.563081E-16	4.154909E-17
7.300000E+03	3.580199E-16	4.176470E-17
7.310000E+03	3.593592E-16	4.193712E-17
7.320000E+03	3.603144E-16	4.206493E-17
7.330000E+03	3.608684E-16	4.214609E-17
7.340000E+03	3.610268E-16	4.218121E-17
7.350000E+03	3.607814E-16	4.216926E-17
7.360000E+03	3.601370E-16	4.211077E-17
7.370000E+03	3.590983E-16	4.200622E-17
7.380000E+03	3.576834E-16	4.185766E-17
7.390000E+03	3.559003E-16	4.166600E-17
7.400000E+03	3.537649E-16	4.143303E-17
7.410000E+03	3.513058E-16	4.116205E-17
7.420000E+03	3.485400E-16	4.085502E-17
7.430000E+03	3.454917E-16	4.051472E-17
7.440000E+03	3.421911E-16	4.014464E-17
7.450000E+03	3.386737E-16	3.974892E-17
7.460000E+03	3.349755E-16	3.933175E-17
7.470000E+03	3.311280E-16	3.889680E-17
7.480000E+03	3.271665E-16	3.844819E-17
7.490000E+03	3.231209E-16	3.798941E-17
7.500000E+03	3.190242E-16	3.752433E-17
7.510000E+03	3.148998E-16	3.705569E-17
7.520000E+03	3.107816E-16	3.658745E-17
7.530000E+03	3.066891E-16	3.612194E-17
7.540000E+03	3.026487E-16	3.566223E-17
7.550000E+03	2.986815E-16	3.521082E-17
7.560000E+03	2.948105E-16	3.477043E-17
7.570000E+03	2.910449E-16	3.434217E-17
7.580000E+03	2.874071E-16	3.392868E-17
7.590000E+03	2.839051E-16	3.353092E-17
7.600000E+03	2.805521E-16	3.315046E-17
7.610000E+03	2.773546E-16	3.278811E-17
7.620000E+03	2.743169E-16	3.244439E-17
7.630000E+03	2.714374E-16	3.211912E-17
7.640000E+03	2.687227E-16	3.181311E-17
7.650000E+03	2.661665E-16	3.152566E-17
7.660000E+03	2.637677E-16	3.125663E-17
7.670000E+03	2.615128E-16	3.100446E-17
7.680000E+03	2.594006E-16	3.076902E-17
7.690000E+03	2.574211E-16	3.054917E-17
7.700000E+03	2.555601E-16	3.034321E-17
7.710000E+03	2.538086E-16	3.015010E-17
7.720000E+03	2.521498E-16	2.996788E-17
7.730000E+03	2.505731E-16	2.979528E-17
7.740000E+03	2.490608E-16	2.963020E-17
7.750000E+03	2.476008E-16	2.947123E-17
7.760000E+03	2.461782E-16	2.931659E-17
