#wls	flux	fluxerr
1.600000E+03	3.828084E-16	6.953121E-17
1.640000E+03	3.891308E-16	7.038212E-17
1.680000E+03	3.953445E-16	7.119467E-17
1.720000E+03	4.014215E-16	7.196344E-17
1.760000E+03	4.074037E-16	7.269560E-17
1.800000E+03	4.131887E-16	7.337258E-17
1.840000E+03	4.187434E-16	7.398836E-17
1.880000E+03	4.241808E-16	7.456281E-17
1.920000E+03	4.293189E-16	7.506374E-17
1.960000E+03	4.341947E-16	7.549786E-17
2.000000E+03	4.388458E-16	7.587176E-17
2.040000E+03	4.432335E-16	7.617885E-17
2.080000E+03	4.473177E-16	7.641251E-17
2.120000E+03	4.510571E-16	7.656608E-17
2.160000E+03	4.544090E-16	7.663294E-17
2.200000E+03	4.574045E-16	7.661906E-17
2.240000E+03	4.599984E-16	7.651763E-17
2.280000E+03	4.622187E-16	7.633422E-17
2.320000E+03	4.640169E-16	7.606182E-17
2.360000E+03	4.654166E-16	7.570540E-17
2.400000E+03	4.662948E-16	7.524633E-17
2.440000E+03	4.667434E-16	7.470103E-17
2.480000E+03	4.666390E-16	7.405139E-17
2.520000E+03	4.661348E-16	7.332362E-17
2.560000E+03	4.650376E-16	7.248914E-17
2.600000E+03	4.634914E-16	7.157268E-17
2.640000E+03	4.613706E-16	7.055702E-17
2.680000E+03	4.587435E-16	6.945519E-17
2.720000E+03	4.555484E-16	6.826044E-17
2.760000E+03	4.518434E-16	6.698431E-17
2.800000E+03	4.476201E-16	6.562834E-17
2.840000E+03	4.428677E-16	6.419391E-17
2.880000E+03	4.375736E-16	6.268240E-17
2.920000E+03	4.317250E-16	6.109533E-17
2.960000E+03	4.254041E-16	5.944774E-17
3.000000E+03	4.185870E-16	5.773964E-17
3.010000E+03	4.168336E-16	5.730747E-17
3.020000E+03	4.150269E-16	5.686872E-17
3.030000E+03	4.131667E-16	5.642344E-17
3.040000E+03	4.112958E-16	5.597754E-17
3.050000E+03	4.094124E-16	5.553082E-17
3.060000E+03	4.074731E-16	5.507744E-17
3.070000E+03	4.055190E-16	5.462303E-17
3.080000E+03	4.035489E-16	5.416746E-17
3.090000E+03	4.015209E-16	5.370518E-17
3.100000E+03	3.995144E-16	5.324686E-17
3.110000E+03	3.974487E-16	5.278176E-17
3.120000E+03	3.953624E-16	5.231510E-17
3.130000E+03	3.932544E-16	5.184678E-17
3.140000E+03	3.911236E-16	5.137671E-17
3.150000E+03	3.889324E-16	5.090001E-17
3.160000E+03	3.867536E-16	5.042629E-17
3.170000E+03	3.845494E-16	4.995063E-17
3.180000E+03	3.823191E-16	4.947300E-17
3.190000E+03	3.800964E-16	4.899779E-17
3.200000E+03	3.778114E-16	4.851604E-17
3.210000E+03	3.755321E-16	4.803658E-17
3.220000E+03	3.732238E-16	4.755497E-17
3.230000E+03	3.708863E-16	4.707126E-17
3.240000E+03	3.685514E-16	4.658953E-17
3.250000E+03	3.661865E-16	4.610570E-17
3.260000E+03	3.638223E-16	4.562367E-17
3.270000E+03	3.614276E-16	4.513957E-17
3.280000E+03	3.590326E-16	4.465723E-17
3.290000E+03	3.566364E-16	4.417655E-17
3.300000E+03	3.542096E-16	4.369393E-17
3.310000E+03	3.517814E-16	4.321303E-17
3.320000E+03	3.493513E-16	4.273380E-17
3.330000E+03	3.468920E-16	4.225294E-17
3.340000E+03	3.444579E-16	4.177713E-17
3.350000E+03	3.420214E-16	4.130301E-17
3.360000E+03	3.395827E-16	4.083061E-17
3.370000E+03	3.371169E-16	4.035700E-17
3.380000E+03	3.346992E-16	3.989121E-17
3.390000E+03	3.322551E-16	3.942431E-17
3.400000E+03	3.298333E-16	3.896215E-17
3.410000E+03	3.274097E-16	3.850187E-17
3.420000E+03	3.249847E-16	3.804354E-17
3.430000E+03	3.225808E-16	3.758981E-17
3.440000E+03	3.201970E-16	3.714054E-17
3.450000E+03	3.178110E-16	3.669316E-17
3.460000E+03	3.154438E-16	3.625009E-17
3.470000E+03	3.130945E-16	3.581122E-17
3.480000E+03	3.107620E-16	3.537644E-17
3.490000E+03	3.084255E-16	3.494336E-17
3.500000E+03	3.061241E-16	3.451643E-17
3.510000E+03	3.038368E-16	3.409326E-17
3.520000E+03	3.015630E-16	3.367376E-17
3.530000E+03	2.993021E-16	3.325789E-17
3.540000E+03	2.970718E-16	3.284758E-17
3.550000E+03	2.948531E-16	3.244074E-17
3.560000E+03	2.926465E-16	3.203740E-17
3.570000E+03	2.904858E-16	3.164124E-17
3.580000E+03	2.883368E-16	3.124851E-17
3.590000E+03	2.862006E-16	3.085934E-17
3.600000E+03	2.841104E-16	3.047727E-17
3.610000E+03	2.820358E-16	3.009901E-17
3.620000E+03	2.800095E-16	2.972802E-17
3.630000E+03	2.780042E-16	2.936136E-17
3.640000E+03	2.760531E-16	2.900252E-17
3.650000E+03	2.741462E-16	2.865034E-17
3.660000E+03	2.722891E-16	2.830539E-17
3.670000E+03	2.705025E-16	2.796973E-17
3.680000E+03	2.687807E-16	2.764267E-17
3.690000E+03	2.671459E-16	2.732642E-17
3.700000E+03	2.656080E-16	2.702182E-17
3.710000E+03	2.641777E-16	2.672984E-17
3.720000E+03	2.628541E-16	2.645023E-17
3.730000E+03	2.616742E-16	2.618652E-17
3.740000E+03	2.606263E-16	2.593733E-17
3.750000E+03	2.597463E-16	2.570602E-17
3.760000E+03	2.590344E-16	2.549235E-17
3.770000E+03	2.585021E-16	2.529719E-17
3.780000E+03	2.581600E-16	2.512129E-17
3.790000E+03	2.580390E-16	2.496734E-17
3.800000E+03	2.581141E-16	2.483261E-17
3.810000E+03	2.584131E-16	2.471945E-17
3.820000E+03	2.589405E-16	2.462795E-17
3.830000E+03	2.596986E-16	2.455797E-17
3.840000E+03	2.606883E-16	2.450926E-17
3.850000E+03	2.618985E-16	2.448040E-17
3.860000E+03	2.633459E-16	2.447266E-17
3.870000E+03	2.650055E-16	2.448334E-17
3.880000E+03	2.668892E-16	2.451325E-17
3.890000E+03	2.689769E-16	2.456022E-17
3.900000E+03	2.712555E-16	2.462277E-17
3.910000E+03	2.737086E-16	2.469917E-17
3.920000E+03	2.763165E-16	2.478740E-17
3.930000E+03	2.790655E-16	2.488605E-17
3.940000E+03	2.819189E-16	2.499172E-17
3.950000E+03	2.848560E-16	2.510243E-17
3.960000E+03	2.878338E-16	2.521438E-17
3.970000E+03	2.908167E-16	2.532445E-17
3.980000E+03	2.937674E-16	2.542946E-17
3.990000E+03	2.966571E-16	2.552706E-17
4.000000E+03	2.994387E-16	2.561338E-17
4.010000E+03	3.020847E-16	2.568632E-17
4.020000E+03	3.045516E-16	2.574247E-17
4.030000E+03	3.068082E-16	2.577955E-17
4.040000E+03	3.088267E-16	2.579563E-17
4.050000E+03	3.105841E-16	2.578921E-17
4.060000E+03	3.120707E-16	2.575997E-17
4.070000E+03	3.132565E-16	2.570588E-17
4.080000E+03	3.141435E-16	2.562764E-17
4.090000E+03	3.147308E-16	2.552563E-17
4.100000E+03	3.150156E-16	2.540014E-17
4.110000E+03	3.150173E-16	2.525320E-17
4.120000E+03	3.147446E-16	2.508596E-17
4.130000E+03	3.142191E-16	2.490053E-17
4.140000E+03	3.134585E-16	2.469873E-17
4.150000E+03	3.125066E-16	2.448433E-17
4.160000E+03	3.113781E-16	2.425879E-17
4.170000E+03	3.101045E-16	2.402479E-17
4.180000E+03	3.087170E-16	2.378497E-17
4.190000E+03	3.072458E-16	2.354181E-17
4.200000E+03	3.057131E-16	2.329715E-17
4.210000E+03	3.041464E-16	2.305316E-17
4.220000E+03	3.025711E-16	2.281181E-17
4.230000E+03	3.010036E-16	2.257439E-17
4.240000E+03	2.994650E-16	2.234247E-17
4.250000E+03	2.979740E-16	2.211741E-17
4.260000E+03	2.965469E-16	2.190040E-17
4.270000E+03	2.951862E-16	2.169156E-17
4.280000E+03	2.939050E-16	2.149179E-17
4.290000E+03	2.927209E-16	2.130231E-17
4.300000E+03	2.916327E-16	2.112296E-17
4.310000E+03	2.906507E-16	2.095439E-17
4.320000E+03	2.897845E-16	2.079722E-17
4.330000E+03	2.890382E-16	2.065164E-17
4.340000E+03	2.884221E-16	2.051829E-17
4.350000E+03	2.879415E-16	2.039748E-17
4.360000E+03	2.876031E-16	2.028955E-17
4.370000E+03	2.874298E-16	2.019605E-17
4.380000E+03	2.874193E-16	2.011671E-17
4.390000E+03	2.875836E-16	2.005225E-17
4.400000E+03	2.879315E-16	2.000317E-17
4.410000E+03	2.884716E-16	1.996986E-17
4.420000E+03	2.892075E-16	1.995240E-17
4.430000E+03	2.901429E-16	1.995086E-17
4.440000E+03	2.912910E-16	1.996598E-17
4.450000E+03	2.926538E-16	1.999771E-17
4.460000E+03	2.942311E-16	2.004589E-17
4.470000E+03	2.960254E-16	2.011052E-17
4.480000E+03	2.980354E-16	2.019136E-17
4.490000E+03	3.002508E-16	2.028758E-17
4.500000E+03	3.026609E-16	2.039832E-17
4.510000E+03	3.052544E-16	2.052271E-17
4.520000E+03	3.079996E-16	2.065851E-17
4.530000E+03	3.108678E-16	2.080371E-17
4.540000E+03	3.138288E-16	2.095622E-17
4.550000E+03	3.168370E-16	2.111294E-17
4.560000E+03	3.198414E-16	2.127044E-17
4.570000E+03	3.227960E-16	2.142566E-17
4.580000E+03	3.256471E-16	2.157500E-17
4.590000E+03	3.283344E-16	2.171450E-17
4.600000E+03	3.308073E-16	2.184084E-17
4.610000E+03	3.330027E-16	2.194989E-17
4.620000E+03	3.348811E-16	2.203907E-17
4.630000E+03	3.363938E-16	2.210526E-17
4.640000E+03	3.375049E-16	2.214612E-17
4.650000E+03	3.381872E-16	2.215994E-17
4.660000E+03	3.384278E-16	2.214592E-17
4.670000E+03	3.382105E-16	2.210304E-17
4.680000E+03	3.375434E-16	2.203186E-17
4.690000E+03	3.364403E-16	2.193332E-17
4.700000E+03	3.349288E-16	2.180923E-17
4.710000E+03	3.330314E-16	2.166107E-17
4.720000E+03	3.307962E-16	2.149197E-17
4.730000E+03	3.282638E-16	2.130454E-17
4.740000E+03	3.254880E-16	2.110225E-17
4.750000E+03	3.225177E-16	2.088824E-17
4.760000E+03	3.194130E-16	2.066637E-17
4.770000E+03	3.162317E-16	2.044031E-17
4.780000E+03	3.130277E-16	2.021348E-17
4.790000E+03	3.098652E-16	1.998996E-17
4.800000E+03	3.067934E-16	1.977284E-17
4.810000E+03	3.038616E-16	1.956521E-17
4.820000E+03	3.011223E-16	1.937036E-17
4.830000E+03	2.986066E-16	1.919020E-17
4.840000E+03	2.963521E-16	1.902703E-17
4.850000E+03	2.943897E-16	1.888275E-17
4.860000E+03	2.927405E-16	1.875859E-17
4.870000E+03	2.914156E-16	1.865516E-17
4.880000E+03	2.904309E-16	1.857338E-17
4.890000E+03	2.897848E-16	1.851303E-17
4.900000E+03	2.894771E-16	1.847396E-17
4.910000E+03	2.894932E-16	1.845516E-17
4.920000E+03	2.898263E-16	1.845607E-17
4.930000E+03	2.904412E-16	1.847433E-17
4.940000E+03	2.913173E-16	1.850854E-17
4.950000E+03	2.924097E-16	1.855574E-17
4.960000E+03	2.936824E-16	1.861354E-17
4.970000E+03	2.950879E-16	1.867885E-17
4.980000E+03	2.965725E-16	1.874819E-17
4.990000E+03	2.980932E-16	1.881878E-17
5.000000E+03	2.995942E-16	1.888705E-17
5.010000E+03	3.010430E-16	1.895090E-17
5.020000E+03	3.023952E-16	1.900750E-17
5.030000E+03	3.036264E-16	1.905532E-17
5.040000E+03	3.047192E-16	1.909324E-17
5.050000E+03	3.056666E-16	1.912082E-17
5.060000E+03	3.064758E-16	1.913854E-17
5.070000E+03	3.071600E-16	1.914719E-17
5.080000E+03	3.077359E-16	1.914785E-17
5.090000E+03	3.082377E-16	1.914261E-17
5.100000E+03	3.086873E-16	1.913286E-17
5.110000E+03	3.091196E-16	1.912072E-17
5.120000E+03	3.095682E-16	1.910824E-17
5.130000E+03	3.100569E-16	1.909687E-17
5.140000E+03	3.106093E-16	1.908799E-17
5.150000E+03	3.112441E-16	1.908270E-17
5.160000E+03	3.119790E-16	1.908203E-17
5.170000E+03	3.128226E-16	1.908642E-17
5.180000E+03	3.137716E-16	1.909558E-17
5.190000E+03	3.148333E-16	1.910989E-17
5.200000E+03	3.160040E-16	1.912903E-17
5.210000E+03	3.172695E-16	1.915207E-17
5.220000E+03	3.186285E-16	1.917882E-17
5.230000E+03	3.200656E-16	1.920831E-17
5.240000E+03	3.215681E-16	1.923968E-17
5.250000E+03	3.231219E-16	1.927203E-17
5.260000E+03	3.247113E-16	1.930435E-17
5.270000E+03	3.263158E-16	1.933539E-17
5.280000E+03	3.279222E-16	1.936431E-17
5.290000E+03	3.295086E-16	1.938980E-17
5.300000E+03	3.310565E-16	1.941075E-17
5.310000E+03	3.325511E-16	1.942628E-17
5.320000E+03	3.339656E-16	1.943486E-17
5.330000E+03	3.352811E-16	1.943540E-17
5.340000E+03	3.364824E-16	1.942707E-17
5.350000E+03	3.375466E-16	1.940861E-17
5.360000E+03	3.384553E-16	1.937904E-17
5.370000E+03	3.391903E-16	1.933740E-17
5.380000E+03	3.397295E-16	1.928253E-17
5.390000E+03	3.400550E-16	1.921356E-17
5.400000E+03	3.401533E-16	1.912986E-17
5.410000E+03	3.399999E-16	1.903024E-17
5.420000E+03	3.395832E-16	1.891424E-17
5.430000E+03	3.388889E-16	1.878129E-17
5.440000E+03	3.379004E-16	1.863069E-17
5.450000E+03	3.366105E-16	1.846232E-17
5.460000E+03	3.350018E-16	1.827550E-17
5.470000E+03	3.330747E-16	1.807056E-17
5.480000E+03	3.308235E-16	1.784751E-17
5.490000E+03	3.282373E-16	1.760609E-17
5.500000E+03	3.253225E-16	1.734700E-17
5.510000E+03	3.220772E-16	1.707049E-17
5.520000E+03	3.185099E-16	1.677740E-17
5.530000E+03	3.146254E-16	1.646834E-17
5.540000E+03	3.104397E-16	1.614454E-17
5.550000E+03	3.059698E-16	1.580726E-17
5.560000E+03	3.012371E-16	1.545795E-17
5.570000E+03	2.962680E-16	1.509834E-17
5.580000E+03	2.910968E-16	1.473050E-17
5.590000E+03	2.857593E-16	1.435653E-17
5.600000E+03	2.802945E-16	1.397867E-17
5.610000E+03	2.747485E-16	1.359944E-17
5.620000E+03	2.691627E-16	1.322106E-17
5.630000E+03	2.635863E-16	1.284607E-17
5.640000E+03	2.580648E-16	1.247679E-17
5.650000E+03	2.526460E-16	1.211552E-17
5.660000E+03	2.473718E-16	1.176426E-17
5.670000E+03	2.422781E-16	1.142461E-17
5.680000E+03	2.374056E-16	1.109837E-17
5.690000E+03	2.327848E-16	1.078677E-17
5.700000E+03	2.284391E-16	1.049067E-17
5.710000E+03	2.243947E-16	1.021100E-17
5.720000E+03	2.206629E-16	9.947980E-18
5.730000E+03	2.172601E-16	9.702030E-18
5.740000E+03	2.141902E-16	9.472978E-18
5.750000E+03	2.114577E-16	9.260665E-18
5.760000E+03	2.090593E-16	9.064592E-18
5.770000E+03	2.069881E-16	8.884087E-18
5.780000E+03	2.052327E-16	8.718312E-18
5.790000E+03	2.037781E-16	8.566285E-18
5.800000E+03	2.026081E-16	8.427004E-18
5.810000E+03	2.016964E-16	8.299073E-18
5.820000E+03	2.010231E-16	8.181413E-18
5.830000E+03	2.005591E-16	8.072603E-18
5.840000E+03	2.002782E-16	7.971398E-18
5.850000E+03	2.001479E-16	7.876357E-18
5.860000E+03	2.001402E-16	7.786268E-18
5.870000E+03	2.002193E-16	7.699688E-18
5.880000E+03	2.003625E-16	7.615734E-18
5.890000E+03	2.005336E-16	7.533069E-18
5.900000E+03	2.007107E-16	7.450947E-18
5.910000E+03	2.008664E-16	7.368483E-18
5.920000E+03	2.009765E-16	7.284948E-18
5.930000E+03	2.010267E-16	7.200028E-18
5.940000E+03	2.009990E-16	7.113300E-18
5.950000E+03	2.008809E-16	7.024579E-18
5.960000E+03	2.006609E-16	6.933735E-18
5.970000E+03	2.003360E-16	6.840954E-18
5.980000E+03	1.999017E-16	6.746371E-18
5.990000E+03	1.993616E-16	6.650412E-18
6.000000E+03	1.987153E-16	6.553363E-18
6.010000E+03	1.979758E-16	6.455941E-18
6.020000E+03	1.971496E-16	6.358639E-18
6.030000E+03	1.962561E-16	6.262351E-18
6.040000E+03	1.953086E-16	6.167747E-18
6.050000E+03	1.943284E-16	6.075726E-18
6.060000E+03	1.933401E-16	5.987263E-18
6.070000E+03	1.923736E-16	5.903465E-18
6.080000E+03	1.914568E-16	5.825344E-18
6.090000E+03	1.906205E-16	5.753970E-18
6.100000E+03	1.899017E-16	5.690584E-18
6.110000E+03	1.893373E-16	5.636386E-18
6.120000E+03	1.889648E-16	5.592592E-18
6.130000E+03	1.888182E-16	5.560298E-18
6.140000E+03	1.889405E-16	5.540877E-18
6.150000E+03	1.893676E-16	5.535496E-18
6.160000E+03	1.901365E-16	5.545384E-18
6.170000E+03	1.912822E-16	5.571747E-18
6.180000E+03	1.928369E-16	5.615755E-18
6.190000E+03	1.948289E-16	5.678524E-18
6.200000E+03	1.972815E-16	5.761092E-18
6.210000E+03	2.002089E-16	5.864234E-18
6.220000E+03	2.036221E-16	5.988589E-18
6.230000E+03	2.075206E-16	6.134512E-18
6.240000E+03	2.118891E-16	6.301980E-18
6.250000E+03	2.166922E-16	6.490410E-18
6.260000E+03	2.218640E-16	6.698323E-18
6.270000E+03	2.273208E-16	6.923666E-18
6.280000E+03	2.329719E-16	7.164100E-18
6.290000E+03	2.387111E-16	7.416708E-18
6.300000E+03	2.444341E-16	7.678483E-18
6.310000E+03	2.500209E-16	7.945753E-18
6.320000E+03	2.553579E-16	8.214833E-18
6.330000E+03	2.603425E-16	8.482170E-18
6.340000E+03	2.648682E-16	8.743847E-18
6.350000E+03	2.688538E-16	8.996545E-18
6.360000E+03	2.722203E-16	9.236802E-18
6.370000E+03	2.749190E-16	9.461977E-18
6.380000E+03	2.769060E-16	9.669426E-18
6.390000E+03	2.781691E-16	9.857479E-18
6.400000E+03	2.787036E-16	1.002464E-17
6.410000E+03	2.785241E-16	1.017005E-17
6.420000E+03	2.776634E-16	1.029352E-17
6.430000E+03	2.761590E-16	1.039505E-17
6.440000E+03	2.740650E-16	1.047536E-17
6.450000E+03	2.714388E-16	1.053535E-17
6.460000E+03	2.683386E-16	1.057613E-17
6.470000E+03	2.648320E-16	1.059925E-17
6.480000E+03	2.609860E-16	1.060646E-17
6.490000E+03	2.568562E-16	1.059915E-17
6.500000E+03	2.525088E-16	1.057933E-17
6.510000E+03	2.479994E-16	1.054873E-17
6.520000E+03	2.433761E-16	1.050889E-17
6.530000E+03	2.386884E-16	1.046157E-17
6.540000E+03	2.339778E-16	1.040830E-17
6.550000E+03	2.292801E-16	1.035048E-17
6.560000E+03	2.246261E-16	1.028939E-17
6.570000E+03	2.200440E-16	1.022629E-17
6.580000E+03	2.155511E-16	1.016199E-17
6.590000E+03	2.111658E-16	1.009746E-17
6.600000E+03	2.068996E-16	1.003333E-17
6.610000E+03	2.027632E-16	9.970303E-18
6.620000E+03	1.987596E-16	9.908683E-18
6.630000E+03	1.948926E-16	9.848866E-18
6.640000E+03	1.911672E-16	9.791315E-18
6.650000E+03	1.875854E-16	9.736359E-18
6.660000E+03	1.841485E-16	9.684306E-18
6.670000E+03	1.808577E-16	9.635465E-18
6.680000E+03	1.777168E-16	9.590303E-18
6.690000E+03	1.747270E-16	9.549149E-18
6.700000E+03	1.718875E-16	9.512235E-18
6.710000E+03	1.692043E-16	9.480179E-18
6.720000E+03	1.666743E-16	9.453105E-18
6.730000E+03	1.643038E-16	9.431656E-18
6.740000E+03	1.620941E-16	9.416224E-18
6.750000E+03	1.600447E-16	9.407085E-18
6.760000E+03	1.581570E-16	9.404639E-18
6.770000E+03	1.564371E-16	9.409571E-18
6.780000E+03	1.548846E-16	9.422193E-18
6.790000E+03	1.534995E-16	9.442821E-18
6.800000E+03	1.522885E-16	9.472220E-18
6.810000E+03	1.512543E-16	9.510901E-18
6.820000E+03	1.503978E-16	9.559270E-18
6.830000E+03	1.497226E-16	9.617913E-18
6.840000E+03	1.492347E-16	9.687583E-18
6.850000E+03	1.489382E-16	9.768913E-18
6.860000E+03	1.488353E-16	9.862434E-18
6.870000E+03	1.489324E-16	9.968954E-18
6.880000E+03	1.492336E-16	1.008915E-17
6.890000E+03	1.497449E-16	1.022383E-17
6.900000E+03	1.504651E-16	1.037331E-17
6.910000E+03	1.513982E-16	1.053829E-17
6.920000E+03	1.525451E-16	1.071925E-17
6.930000E+03	1.539051E-16	1.091654E-17
6.940000E+03	1.554760E-16	1.113041E-17
6.950000E+03	1.572535E-16	1.136096E-17
6.960000E+03	1.592340E-16	1.160832E-17
6.970000E+03	1.614050E-16	1.187195E-17
6.980000E+03	1.637596E-16	1.215170E-17
6.990000E+03	1.662900E-16	1.244731E-17
7.000000E+03	1.689807E-16	1.275794E-17
7.010000E+03	1.718238E-16	1.308329E-17
7.020000E+03	1.748100E-16	1.342291E-17
7.030000E+03	1.779321E-16	1.377649E-17
7.040000E+03	1.811859E-16	1.414395E-17
7.050000E+03	1.845678E-16	1.452523E-17
7.060000E+03	1.880836E-16	1.492102E-17
7.070000E+03	1.917406E-16	1.533213E-17
7.080000E+03	1.955468E-16	1.575944E-17
7.090000E+03	1.995162E-16	1.620436E-17
7.100000E+03	2.036648E-16	1.666846E-17
7.110000E+03	2.080124E-16	1.715370E-17
7.120000E+03	2.125691E-16	1.766125E-17
7.130000E+03	2.173548E-16	1.819314E-17
7.140000E+03	2.223731E-16	1.875006E-17
7.150000E+03	2.276318E-16	1.933310E-17
7.160000E+03	2.331255E-16	1.994217E-17
7.170000E+03	2.388439E-16	2.057681E-17
7.180000E+03	2.447678E-16	2.123572E-17
7.190000E+03	2.508719E-16	2.191702E-17
7.200000E+03	2.571095E-16	2.261691E-17
7.210000E+03	2.634305E-16	2.333115E-17
7.220000E+03	2.697784E-16	2.405483E-17
7.230000E+03	2.760835E-16	2.478169E-17
7.240000E+03	2.822588E-16	2.550376E-17
7.250000E+03	2.882227E-16	2.621337E-17
7.260000E+03	2.938800E-16	2.690140E-17
7.270000E+03	2.991423E-16	2.755913E-17
7.280000E+03	3.039137E-16	2.817694E-17
7.290000E+03	3.081078E-16	2.874588E-17
7.300000E+03	3.116469E-16	2.925766E-17
7.310000E+03	3.144664E-16	2.970499E-17
7.320000E+03	3.165127E-16	3.008152E-17
7.330000E+03	3.177549E-16	3.038297E-17
7.340000E+03	3.181814E-16	3.060681E-17
7.350000E+03	3.177995E-16	3.075235E-17
7.360000E+03	3.166343E-16	3.082066E-17
7.370000E+03	3.147263E-16	3.081437E-17
7.380000E+03	3.121240E-16	3.073701E-17
7.390000E+03	3.088901E-16	3.059363E-17
7.400000E+03	3.050984E-16	3.039054E-17
7.410000E+03	3.008120E-16	3.013312E-17
7.420000E+03	2.961134E-16	2.982889E-17
7.430000E+03	2.910699E-16	2.948401E-17
7.440000E+03	2.857469E-16	2.910457E-17
7.450000E+03	2.802188E-16	2.869777E-17
7.460000E+03	2.745388E-16	2.826879E-17
7.470000E+03	2.687734E-16	2.782427E-17
7.480000E+03	2.629683E-16	2.736886E-17
7.490000E+03	2.571787E-16	2.690831E-17
7.500000E+03	2.514562E-16	2.644811E-17
7.510000E+03	2.458386E-16	2.599238E-17
7.520000E+03	2.403725E-16	2.554627E-17
7.530000E+03	2.351008E-16	2.511463E-17
7.540000E+03	2.300555E-16	2.470123E-17
7.550000E+03	2.252672E-16	2.430977E-17
7.560000E+03	2.207649E-16	2.394379E-17
7.570000E+03	2.165657E-16	2.360568E-17
7.580000E+03	2.126898E-16	2.329813E-17
7.590000E+03	2.091455E-16	2.302261E-17
7.600000E+03	2.059476E-16	2.278128E-17
7.610000E+03	2.030939E-16	2.257449E-17
7.620000E+03	2.005887E-16	2.240326E-17
7.630000E+03	1.984297E-16	2.226792E-17
7.640000E+03	1.966121E-16	2.216846E-17
7.650000E+03	1.951309E-16	2.210489E-17
7.660000E+03	1.939723E-16	2.207616E-17
7.670000E+03	1.931223E-16	2.208120E-17
7.680000E+03	1.925633E-16	2.211846E-17
7.690000E+03	1.922772E-16	2.218632E-17
7.700000E+03	1.922392E-16	2.228233E-17
7.710000E+03	1.924147E-16	2.240286E-17
7.720000E+03	1.927809E-16	2.254554E-17
7.730000E+03	1.932972E-16	2.270592E-17
7.740000E+03	1.939268E-16	2.287987E-17
7.750000E+03	1.946350E-16	2.306348E-17
7.760000E+03	1.953807E-16	2.325193E-17
