#wls	flux	fluxerr
1.600000E+03	2.763986E-16	2.503875E-17
1.640000E+03	2.829021E-16	2.560513E-17
1.680000E+03	2.894194E-16	2.617114E-17
1.720000E+03	2.959299E-16	2.673487E-17
1.760000E+03	3.024106E-16	2.729419E-17
1.800000E+03	3.088908E-16	2.785171E-17
1.840000E+03	3.152917E-16	2.840026E-17
1.880000E+03	3.216404E-16	2.894228E-17
1.920000E+03	3.279084E-16	2.947514E-17
1.960000E+03	3.340656E-16	2.999611E-17
2.000000E+03	3.400794E-16	3.050227E-17
2.040000E+03	3.459733E-16	3.099570E-17
2.080000E+03	3.517124E-16	3.147327E-17
2.120000E+03	3.572597E-16	3.193166E-17
2.160000E+03	3.625759E-16	3.236737E-17
2.200000E+03	3.676792E-16	3.278206E-17
2.240000E+03	3.725272E-16	3.317198E-17
2.280000E+03	3.770759E-16	3.353324E-17
2.320000E+03	3.813384E-16	3.386709E-17
2.360000E+03	3.852674E-16	3.416937E-17
2.400000E+03	3.888724E-16	3.444102E-17
2.440000E+03	3.921022E-16	3.467758E-17
2.480000E+03	3.949624E-16	3.487966E-17
2.520000E+03	3.973410E-16	3.503751E-17
2.560000E+03	3.993546E-16	3.516155E-17
2.600000E+03	4.008326E-16	3.523690E-17
2.640000E+03	4.018850E-16	3.527342E-17
2.680000E+03	4.024502E-16	3.526588E-17
2.720000E+03	4.024686E-16	3.520926E-17
2.760000E+03	4.019842E-16	3.510766E-17
2.800000E+03	4.009850E-16	3.496023E-17
2.840000E+03	3.994080E-16	3.476173E-17
2.880000E+03	3.972888E-16	3.451554E-17
2.920000E+03	3.946114E-16	3.422054E-17
2.960000E+03	3.913599E-16	3.387566E-17
3.000000E+03	3.876039E-16	3.348720E-17
3.010000E+03	3.865669E-16	3.338164E-17
3.020000E+03	3.854810E-16	3.327190E-17
3.030000E+03	3.843863E-16	3.316143E-17
3.040000E+03	3.832411E-16	3.304662E-17
3.050000E+03	3.820847E-16	3.293089E-17
3.060000E+03	3.808763E-16	3.281070E-17
3.070000E+03	3.796544E-16	3.268940E-17
3.080000E+03	3.783792E-16	3.256355E-17
3.090000E+03	3.770884E-16	3.243641E-17
3.100000E+03	3.757435E-16	3.230466E-17
3.110000E+03	3.743811E-16	3.217146E-17
3.120000E+03	3.730001E-16	3.203673E-17
3.130000E+03	3.715633E-16	3.189726E-17
3.140000E+03	3.701063E-16	3.175613E-17
3.150000E+03	3.686282E-16	3.161326E-17
3.160000E+03	3.671279E-16	3.146855E-17
3.170000E+03	3.655703E-16	3.131900E-17
3.180000E+03	3.639897E-16	3.116757E-17
3.190000E+03	3.623850E-16	3.101416E-17
3.200000E+03	3.607886E-16	3.086154E-17
3.210000E+03	3.591338E-16	3.070401E-17
3.220000E+03	3.574532E-16	3.054437E-17
3.230000E+03	3.557463E-16	3.038258E-17
3.240000E+03	3.540129E-16	3.021862E-17
3.250000E+03	3.522525E-16	3.005247E-17
3.260000E+03	3.504951E-16	2.988668E-17
3.270000E+03	3.486803E-16	2.971609E-17
3.280000E+03	3.468676E-16	2.954581E-17
3.290000E+03	3.450275E-16	2.937330E-17
3.300000E+03	3.431885E-16	2.920101E-17
3.310000E+03	3.412947E-16	2.902417E-17
3.320000E+03	3.394303E-16	2.884996E-17
3.330000E+03	3.375132E-16	2.867139E-17
3.340000E+03	3.356258E-16	2.849548E-17
3.350000E+03	3.336892E-16	2.831551E-17
3.360000E+03	3.317830E-16	2.813826E-17
3.370000E+03	3.298566E-16	2.795943E-17
3.380000E+03	3.279367E-16	2.778127E-17
3.390000E+03	3.259994E-16	2.760179E-17
3.400000E+03	3.240707E-16	2.742317E-17
3.410000E+03	3.221512E-16	2.724546E-17
3.420000E+03	3.202642E-16	2.707064E-17
3.430000E+03	3.183407E-16	2.689288E-17
3.440000E+03	3.164498E-16	2.671800E-17
3.450000E+03	3.145679E-16	2.654403E-17
3.460000E+03	3.127161E-16	2.637274E-17
3.470000E+03	3.108495E-16	2.620034E-17
3.480000E+03	3.089886E-16	2.602855E-17
3.490000E+03	3.071521E-16	2.585896E-17
3.500000E+03	3.053175E-16	2.568967E-17
3.510000E+03	3.035032E-16	2.552223E-17
3.520000E+03	3.016879E-16	2.535484E-17
3.530000E+03	2.998704E-16	2.518742E-17
3.540000E+03	2.980688E-16	2.502146E-17
3.550000E+03	2.962811E-16	2.485683E-17
3.560000E+03	2.944879E-16	2.469186E-17
3.570000E+03	2.927058E-16	2.452797E-17
3.580000E+03	2.909331E-16	2.436502E-17
3.590000E+03	2.891684E-16	2.420288E-17
3.600000E+03	2.873936E-16	2.404003E-17
3.610000E+03	2.856411E-16	2.387920E-17
3.620000E+03	2.838778E-16	2.371761E-17
3.630000E+03	2.821365E-16	2.355799E-17
3.640000E+03	2.804023E-16	2.339912E-17
3.650000E+03	2.786787E-16	2.324128E-17
3.660000E+03	2.769701E-16	2.308485E-17
3.670000E+03	2.752982E-16	2.293160E-17
3.680000E+03	2.736570E-16	2.278106E-17
3.690000E+03	2.720577E-16	2.263415E-17
3.700000E+03	2.705279E-16	2.249315E-17
3.710000E+03	2.690832E-16	2.235936E-17
3.720000E+03	2.677280E-16	2.223312E-17
3.730000E+03	2.664946E-16	2.211711E-17
3.740000E+03	2.653901E-16	2.201189E-17
3.750000E+03	2.644480E-16	2.192023E-17
3.760000E+03	2.636889E-16	2.184381E-17
3.770000E+03	2.631333E-16	2.178428E-17
3.780000E+03	2.628010E-16	2.174327E-17
3.790000E+03	2.627096E-16	2.172221E-17
3.800000E+03	2.628744E-16	2.172229E-17
3.810000E+03	2.633072E-16	2.174449E-17
3.820000E+03	2.640070E-16	2.178865E-17
3.830000E+03	2.650039E-16	2.185723E-17
3.840000E+03	2.663029E-16	2.195060E-17
3.850000E+03	2.678846E-16	2.206710E-17
3.860000E+03	2.697716E-16	2.220856E-17
3.870000E+03	2.719403E-16	2.237299E-17
3.880000E+03	2.744192E-16	2.256270E-17
3.890000E+03	2.771683E-16	2.277432E-17
3.900000E+03	2.801987E-16	2.300876E-17
3.910000E+03	2.834851E-16	2.326387E-17
3.920000E+03	2.870075E-16	2.353799E-17
3.930000E+03	2.907509E-16	2.382986E-17
3.940000E+03	2.946609E-16	2.413497E-17
3.950000E+03	2.987270E-16	2.445244E-17
3.960000E+03	3.028666E-16	2.477549E-17
3.970000E+03	3.070470E-16	2.510144E-17
3.980000E+03	3.112010E-16	2.542480E-17
3.990000E+03	3.152708E-16	2.574084E-17
4.000000E+03	3.192103E-16	2.604583E-17
4.010000E+03	3.229438E-16	2.633361E-17
4.020000E+03	3.264423E-16	2.660185E-17
4.030000E+03	3.296489E-16	2.684596E-17
4.040000E+03	3.325137E-16	2.706191E-17
4.050000E+03	3.350249E-16	2.724881E-17
4.060000E+03	3.371343E-16	2.740280E-17
4.070000E+03	3.388324E-16	2.752316E-17
4.080000E+03	3.401065E-16	2.760893E-17
4.090000E+03	3.409437E-16	2.765914E-17
4.100000E+03	3.413634E-16	2.767543E-17
4.110000E+03	3.413654E-16	2.765784E-17
4.120000E+03	3.409988E-16	2.761042E-17
4.130000E+03	3.403011E-16	2.753625E-17
4.140000E+03	3.392881E-16	2.743669E-17
4.150000E+03	3.380356E-16	2.731789E-17
4.160000E+03	3.365734E-16	2.718231E-17
4.170000E+03	3.349588E-16	2.703459E-17
4.180000E+03	3.332285E-16	2.687772E-17
4.190000E+03	3.314154E-16	2.671439E-17
4.200000E+03	3.295747E-16	2.654906E-17
4.210000E+03	3.277238E-16	2.638310E-17
4.220000E+03	3.259007E-16	2.621962E-17
4.230000E+03	3.241154E-16	2.605938E-17
4.240000E+03	3.224069E-16	2.590552E-17
4.250000E+03	3.207776E-16	2.575823E-17
4.260000E+03	3.192503E-16	2.561932E-17
4.270000E+03	3.178290E-16	2.548911E-17
4.280000E+03	3.165212E-16	2.536817E-17
4.290000E+03	3.153244E-16	2.525629E-17
4.300000E+03	3.142492E-16	2.515430E-17
4.310000E+03	3.132898E-16	2.506173E-17
4.320000E+03	3.124408E-16	2.497813E-17
4.330000E+03	3.117173E-16	2.490467E-17
4.340000E+03	3.111007E-16	2.483987E-17
4.350000E+03	3.106077E-16	2.478503E-17
4.360000E+03	3.102303E-16	2.473952E-17
4.370000E+03	3.099833E-16	2.470448E-17
4.380000E+03	3.098712E-16	2.468026E-17
4.390000E+03	3.099082E-16	2.466798E-17
4.400000E+03	3.101058E-16	2.466852E-17
4.410000E+03	3.104912E-16	2.468402E-17
4.420000E+03	3.110751E-16	2.471531E-17
4.430000E+03	3.118954E-16	2.476538E-17
4.440000E+03	3.129664E-16	2.483532E-17
4.450000E+03	3.143132E-16	2.492709E-17
4.460000E+03	3.159578E-16	2.504239E-17
4.470000E+03	3.179247E-16	2.518313E-17
4.480000E+03	3.202090E-16	2.534887E-17
4.490000E+03	3.228290E-16	2.554102E-17
4.500000E+03	3.257772E-16	2.575895E-17
4.510000E+03	3.290412E-16	2.600161E-17
4.520000E+03	3.325946E-16	2.626691E-17
4.530000E+03	3.363923E-16	2.655122E-17
4.540000E+03	3.403890E-16	2.685097E-17
4.550000E+03	3.445142E-16	2.716055E-17
4.560000E+03	3.486856E-16	2.747347E-17
4.570000E+03	3.528299E-16	2.778396E-17
4.580000E+03	3.568462E-16	2.808409E-17
4.590000E+03	3.606282E-16	2.836551E-17
4.600000E+03	3.640808E-16	2.862079E-17
4.610000E+03	3.670989E-16	2.884172E-17
4.620000E+03	3.695902E-16	2.902112E-17
4.630000E+03	3.714807E-16	2.915323E-17
4.640000E+03	3.727003E-16	2.923267E-17
4.650000E+03	3.732098E-16	2.925642E-17
4.660000E+03	3.729712E-16	2.922163E-17
4.670000E+03	3.719930E-16	2.912905E-17
4.680000E+03	3.702800E-16	2.897916E-17
4.690000E+03	3.678795E-16	2.877574E-17
4.700000E+03	3.648379E-16	2.852251E-17
4.710000E+03	3.612157E-16	2.822428E-17
4.720000E+03	3.571020E-16	2.788808E-17
4.730000E+03	3.525755E-16	2.752011E-17
4.740000E+03	3.477311E-16	2.712782E-17
4.750000E+03	3.426483E-16	2.671745E-17
4.760000E+03	3.374280E-16	2.629688E-17
4.770000E+03	3.321527E-16	2.587255E-17
4.780000E+03	3.269122E-16	2.545147E-17
4.790000E+03	3.217812E-16	2.503943E-17
4.800000E+03	3.168345E-16	2.464222E-17
4.810000E+03	3.121503E-16	2.426590E-17
4.820000E+03	3.077805E-16	2.391448E-17
4.830000E+03	3.037841E-16	2.359249E-17
4.840000E+03	3.002051E-16	2.330330E-17
4.850000E+03	2.970750E-16	2.304931E-17
4.860000E+03	2.944200E-16	2.283249E-17
4.870000E+03	2.922511E-16	2.265365E-17
4.880000E+03	2.905761E-16	2.251333E-17
4.890000E+03	2.894024E-16	2.241205E-17
4.900000E+03	2.887325E-16	2.234996E-17
4.910000E+03	2.885463E-16	2.232544E-17
4.920000E+03	2.888464E-16	2.233863E-17
4.930000E+03	2.895944E-16	2.238653E-17
4.940000E+03	2.907561E-16	2.246645E-17
4.950000E+03	2.922708E-16	2.257365E-17
4.960000E+03	2.940741E-16	2.270314E-17
4.970000E+03	2.960812E-16	2.284834E-17
4.980000E+03	2.982106E-16	2.300294E-17
4.990000E+03	3.003629E-16	2.315929E-17
5.000000E+03	3.024371E-16	2.330958E-17
5.010000E+03	3.043543E-16	2.344776E-17
5.020000E+03	3.060252E-16	2.356696E-17
5.030000E+03	3.074086E-16	2.366404E-17
5.040000E+03	3.084792E-16	2.373708E-17
5.050000E+03	3.092363E-16	2.378605E-17
5.060000E+03	3.097026E-16	2.381274E-17
5.070000E+03	3.099299E-16	2.382115E-17
5.080000E+03	3.099812E-16	2.381614E-17
5.090000E+03	3.099136E-16	2.380212E-17
5.100000E+03	3.098041E-16	2.378500E-17
5.110000E+03	3.097142E-16	2.376952E-17
5.120000E+03	3.097030E-16	2.376019E-17
5.130000E+03	3.098212E-16	2.376092E-17
5.140000E+03	3.101111E-16	2.377493E-17
5.150000E+03	3.105891E-16	2.380346E-17
5.160000E+03	3.112630E-16	2.384711E-17
5.170000E+03	3.121357E-16	2.390607E-17
5.180000E+03	3.131974E-16	2.397959E-17
5.190000E+03	3.144286E-16	2.406616E-17
5.200000E+03	3.158117E-16	2.416443E-17
5.210000E+03	3.173276E-16	2.427292E-17
5.220000E+03	3.189608E-16	2.439045E-17
5.230000E+03	3.206910E-16	2.451546E-17
5.240000E+03	3.224878E-16	2.464562E-17
5.250000E+03	3.243387E-16	2.477998E-17
5.260000E+03	3.262171E-16	2.491649E-17
5.270000E+03	3.281003E-16	2.505345E-17
5.280000E+03	3.299698E-16	2.518942E-17
5.290000E+03	3.317945E-16	2.532206E-17
5.300000E+03	3.335572E-16	2.545004E-17
5.310000E+03	3.352368E-16	2.557178E-17
5.320000E+03	3.368136E-16	2.568577E-17
5.330000E+03	3.382686E-16	2.579057E-17
5.340000E+03	3.395835E-16	2.588480E-17
5.350000E+03	3.407363E-16	2.596680E-17
5.360000E+03	3.417149E-16	2.603566E-17
5.370000E+03	3.424977E-16	2.608973E-17
5.380000E+03	3.430714E-16	2.612801E-17
5.390000E+03	3.434111E-16	2.614863E-17
5.400000E+03	3.434955E-16	2.614995E-17
5.410000E+03	3.433087E-16	2.613080E-17
5.420000E+03	3.428269E-16	2.608936E-17
5.430000E+03	3.420330E-16	2.602436E-17
5.440000E+03	3.409127E-16	2.593471E-17
5.450000E+03	3.394591E-16	2.581988E-17
5.460000E+03	3.376580E-16	2.567884E-17
5.470000E+03	3.354979E-16	2.551069E-17
5.480000E+03	3.329815E-16	2.531566E-17
5.490000E+03	3.301039E-16	2.509339E-17
5.500000E+03	3.268522E-16	2.484289E-17
5.510000E+03	3.232326E-16	2.456465E-17
5.520000E+03	3.192394E-16	2.425824E-17
5.530000E+03	3.148795E-16	2.392419E-17
5.540000E+03	3.101519E-16	2.356243E-17
5.550000E+03	3.050817E-16	2.317486E-17
5.560000E+03	2.996797E-16	2.276230E-17
5.570000E+03	2.939773E-16	2.232715E-17
5.580000E+03	2.880046E-16	2.187168E-17
5.590000E+03	2.818109E-16	2.139964E-17
5.600000E+03	2.754380E-16	2.091419E-17
5.610000E+03	2.689489E-16	2.042012E-17
5.620000E+03	2.624009E-16	1.992176E-17
5.630000E+03	2.558609E-16	1.942418E-17
5.640000E+03	2.494000E-16	1.893278E-17
5.650000E+03	2.430787E-16	1.845214E-17
5.660000E+03	2.369583E-16	1.798690E-17
5.670000E+03	2.310900E-16	1.754093E-17
5.680000E+03	2.255192E-16	1.711768E-17
5.690000E+03	2.202852E-16	1.672011E-17
5.700000E+03	2.154248E-16	1.635102E-17
5.710000E+03	2.109606E-16	1.601210E-17
5.720000E+03	2.069221E-16	1.570560E-17
5.730000E+03	2.033272E-16	1.543286E-17
5.740000E+03	2.001843E-16	1.519452E-17
5.750000E+03	1.974990E-16	1.499100E-17
5.760000E+03	1.952676E-16	1.482202E-17
5.770000E+03	1.934811E-16	1.468689E-17
5.780000E+03	1.921251E-16	1.458452E-17
5.790000E+03	1.911799E-16	1.451343E-17
5.800000E+03	1.906207E-16	1.447173E-17
5.810000E+03	1.904161E-16	1.445703E-17
5.820000E+03	1.905290E-16	1.446654E-17
5.830000E+03	1.909203E-16	1.449728E-17
5.840000E+03	1.915404E-16	1.454548E-17
5.850000E+03	1.923388E-16	1.460734E-17
5.860000E+03	1.932663E-16	1.467910E-17
5.870000E+03	1.942673E-16	1.475655E-17
5.880000E+03	1.952939E-16	1.483607E-17
5.890000E+03	1.962963E-16	1.491385E-17
5.900000E+03	1.972336E-16	1.498681E-17
5.910000E+03	1.980740E-16	1.505252E-17
5.920000E+03	1.987868E-16	1.510865E-17
5.930000E+03	1.993506E-16	1.515357E-17
5.940000E+03	1.997528E-16	1.518632E-17
5.950000E+03	1.999810E-16	1.520594E-17
5.960000E+03	2.000331E-16	1.521229E-17
5.970000E+03	1.999030E-16	1.520488E-17
5.980000E+03	1.995988E-16	1.518433E-17
5.990000E+03	1.991231E-16	1.515083E-17
6.000000E+03	1.984838E-16	1.510496E-17
6.010000E+03	1.976913E-16	1.504753E-17
6.020000E+03	1.967590E-16	1.497953E-17
6.030000E+03	1.957061E-16	1.490244E-17
6.040000E+03	1.945473E-16	1.481734E-17
6.050000E+03	1.933077E-16	1.472616E-17
6.060000E+03	1.920225E-16	1.463156E-17
6.070000E+03	1.907233E-16	1.453597E-17
6.080000E+03	1.894481E-16	1.444226E-17
6.090000E+03	1.882417E-16	1.435385E-17
6.100000E+03	1.871581E-16	1.427487E-17
6.110000E+03	1.862443E-16	1.420891E-17
6.120000E+03	1.855551E-16	1.416016E-17
6.130000E+03	1.851494E-16	1.413312E-17
6.140000E+03	1.850817E-16	1.413198E-17
6.150000E+03	1.854100E-16	1.416119E-17
6.160000E+03	1.861950E-16	1.422542E-17
6.170000E+03	1.874919E-16	1.432891E-17
6.180000E+03	1.893607E-16	1.447630E-17
6.190000E+03	1.918498E-16	1.467132E-17
6.200000E+03	1.950122E-16	1.491810E-17
6.210000E+03	1.988846E-16	1.521948E-17
6.220000E+03	2.034890E-16	1.557722E-17
6.230000E+03	2.088198E-16	1.599095E-17
6.240000E+03	2.148459E-16	1.645835E-17
6.250000E+03	2.215128E-16	1.697532E-17
6.260000E+03	2.287270E-16	1.753475E-17
6.270000E+03	2.363790E-16	1.812830E-17
6.280000E+03	2.443258E-16	1.874505E-17
6.290000E+03	2.524057E-16	1.937262E-17
6.300000E+03	2.604390E-16	1.999724E-17
6.310000E+03	2.682355E-16	2.060430E-17
6.320000E+03	2.756081E-16	2.117942E-17
6.330000E+03	2.823694E-16	2.170815E-17
6.340000E+03	2.883569E-16	2.217796E-17
6.350000E+03	2.934460E-16	2.257917E-17
6.360000E+03	2.975515E-16	2.290514E-17
6.370000E+03	3.006082E-16	2.315077E-17
6.380000E+03	3.025845E-16	2.331349E-17
6.390000E+03	3.034798E-16	2.339317E-17
6.400000E+03	3.033159E-16	2.339136E-17
6.410000E+03	3.021359E-16	2.331128E-17
6.420000E+03	3.000146E-16	2.315857E-17
6.430000E+03	2.970382E-16	2.293980E-17
6.440000E+03	2.933005E-16	2.266211E-17
6.450000E+03	2.889116E-16	2.233391E-17
6.460000E+03	2.839787E-16	2.196343E-17
6.470000E+03	2.786059E-16	2.155863E-17
6.480000E+03	2.728966E-16	2.112747E-17
6.490000E+03	2.669342E-16	2.067636E-17
6.500000E+03	2.608091E-16	2.021228E-17
6.510000E+03	2.545905E-16	1.974055E-17
6.520000E+03	2.483473E-16	1.926649E-17
6.530000E+03	2.421322E-16	1.879420E-17
6.540000E+03	2.359981E-16	1.832777E-17
6.550000E+03	2.299882E-16	1.787057E-17
6.560000E+03	2.241355E-16	1.742516E-17
6.570000E+03	2.184759E-16	1.699435E-17
6.580000E+03	2.130206E-16	1.657903E-17
6.590000E+03	2.077811E-16	1.618013E-17
6.600000E+03	2.027510E-16	1.579714E-17
6.610000E+03	1.979240E-16	1.542962E-17
6.620000E+03	1.932968E-16	1.507731E-17
6.630000E+03	1.888624E-16	1.473971E-17
6.640000E+03	1.846124E-16	1.441617E-17
6.650000E+03	1.805446E-16	1.410653E-17
6.660000E+03	1.766550E-16	1.381051E-17
6.670000E+03	1.729404E-16	1.352787E-17
6.680000E+03	1.693984E-16	1.325846E-17
6.690000E+03	1.660280E-16	1.300220E-17
6.700000E+03	1.628313E-16	1.275929E-17
6.710000E+03	1.598069E-16	1.252963E-17
6.720000E+03	1.569561E-16	1.231335E-17
6.730000E+03	1.542820E-16	1.211070E-17
6.740000E+03	1.517835E-16	1.192164E-17
6.750000E+03	1.494566E-16	1.174586E-17
6.760000E+03	1.473047E-16	1.158365E-17
6.770000E+03	1.453218E-16	1.143457E-17
6.780000E+03	1.435099E-16	1.129880E-17
6.790000E+03	1.418717E-16	1.117655E-17
6.800000E+03	1.404034E-16	1.106758E-17
6.810000E+03	1.391116E-16	1.097241E-17
6.820000E+03	1.379964E-16	1.089108E-17
6.830000E+03	1.370616E-16	1.082391E-17
6.840000E+03	1.363140E-16	1.077146E-17
6.850000E+03	1.357573E-16	1.073406E-17
6.860000E+03	1.353987E-16	1.071229E-17
6.870000E+03	1.352488E-16	1.070703E-17
6.880000E+03	1.353138E-16	1.071880E-17
6.890000E+03	1.356033E-16	1.074840E-17
6.900000E+03	1.361246E-16	1.079642E-17
6.910000E+03	1.368816E-16	1.086322E-17
6.920000E+03	1.378789E-16	1.094918E-17
6.930000E+03	1.391212E-16	1.105474E-17
6.940000E+03	1.406084E-16	1.117991E-17
6.950000E+03	1.423355E-16	1.132433E-17
6.960000E+03	1.442888E-16	1.148694E-17
6.970000E+03	1.464628E-16	1.166735E-17
6.980000E+03	1.488357E-16	1.186384E-17
6.990000E+03	1.513876E-16	1.207486E-17
7.000000E+03	1.540988E-16	1.229887E-17
7.010000E+03	1.569461E-16	1.253403E-17
7.020000E+03	1.599042E-16	1.277835E-17
7.030000E+03	1.629538E-16	1.303030E-17
7.040000E+03	1.660819E-16	1.328885E-17
7.050000E+03	1.692855E-16	1.355378E-17
7.060000E+03	1.725647E-16	1.382510E-17
7.070000E+03	1.759366E-16	1.410420E-17
7.080000E+03	1.794194E-16	1.439255E-17
7.090000E+03	1.830471E-16	1.469289E-17
7.100000E+03	1.868569E-16	1.500825E-17
7.110000E+03	1.908936E-16	1.534224E-17
7.120000E+03	1.951865E-16	1.569725E-17
7.130000E+03	1.997784E-16	1.607679E-17
7.140000E+03	2.046898E-16	1.648253E-17
7.150000E+03	2.099439E-16	1.691639E-17
7.160000E+03	2.155468E-16	1.737893E-17
7.170000E+03	2.215020E-16	1.787047E-17
7.180000E+03	2.277919E-16	1.838966E-17
7.190000E+03	2.343846E-16	1.893397E-17
7.200000E+03	2.412279E-16	1.949921E-17
7.210000E+03	2.482672E-16	2.008102E-17
7.220000E+03	2.554210E-16	2.067284E-17
7.230000E+03	2.625936E-16	2.126692E-17
7.240000E+03	2.696843E-16	2.185512E-17
7.250000E+03	2.765750E-16	2.242783E-17
7.260000E+03	2.831315E-16	2.297415E-17
7.270000E+03	2.892159E-16	2.348281E-17
7.280000E+03	2.946853E-16	2.394215E-17
7.290000E+03	2.993994E-16	2.434065E-17
7.300000E+03	3.032382E-16	2.466843E-17
7.310000E+03	3.060926E-16	2.491649E-17
7.320000E+03	3.078983E-16	2.507942E-17
7.330000E+03	3.086136E-16	2.515366E-17
7.340000E+03	3.082462E-16	2.513969E-17
7.350000E+03	3.068320E-16	2.504025E-17
7.360000E+03	3.044288E-16	2.485989E-17
7.370000E+03	3.011239E-16	2.460561E-17
7.380000E+03	2.970260E-16	2.428615E-17
7.390000E+03	2.922395E-16	2.390992E-17
7.400000E+03	2.868741E-16	2.348581E-17
7.410000E+03	2.810321E-16	2.302209E-17
7.420000E+03	2.748243E-16	2.252779E-17
7.430000E+03	2.683380E-16	2.200999E-17
7.440000E+03	2.616567E-16	2.147552E-17
7.450000E+03	2.548490E-16	2.092997E-17
7.460000E+03	2.479856E-16	2.037913E-17
7.470000E+03	2.411102E-16	1.982660E-17
7.480000E+03	2.342730E-16	1.927650E-17
7.490000E+03	2.275151E-16	1.873221E-17
7.500000E+03	2.208703E-16	1.819654E-17
7.510000E+03	2.143837E-16	1.767321E-17
7.520000E+03	2.081005E-16	1.716600E-17
7.530000E+03	2.020670E-16	1.667873E-17
7.540000E+03	1.963217E-16	1.621464E-17
7.550000E+03	1.909041E-16	1.577704E-17
7.560000E+03	1.858434E-16	1.536838E-17
7.570000E+03	1.811579E-16	1.499025E-17
7.580000E+03	1.768674E-16	1.464433E-17
7.590000E+03	1.729724E-16	1.433072E-17
7.600000E+03	1.694752E-16	1.404969E-17
7.610000E+03	1.663791E-16	1.380156E-17
7.620000E+03	1.636728E-16	1.358546E-17
7.630000E+03	1.613522E-16	1.340110E-17
7.640000E+03	1.594091E-16	1.324787E-17
7.650000E+03	1.578346E-16	1.312509E-17
7.660000E+03	1.566189E-16	1.303199E-17
7.670000E+03	1.557477E-16	1.296744E-17
7.680000E+03	1.552099E-16	1.293057E-17
7.690000E+03	1.549860E-16	1.291980E-17
7.700000E+03	1.550482E-16	1.293285E-17
7.710000E+03	1.553620E-16	1.296690E-17
7.720000E+03	1.558894E-16	1.301882E-17
7.730000E+03	1.565853E-16	1.308484E-17
7.740000E+03	1.574072E-16	1.316147E-17
7.750000E+03	1.583090E-16	1.324484E-17
7.760000E+03	1.592438E-16	1.333106E-17
