#wls	flux	fluxerr
1.600000E+03	2.122996E-16	9.110805E-18
1.640000E+03	2.171903E-16	9.313282E-18
1.680000E+03	2.220599E-16	9.514346E-18
1.720000E+03	2.269706E-16	9.716649E-18
1.760000E+03	2.318690E-16	9.917881E-18
1.800000E+03	2.367380E-16	1.011731E-17
1.840000E+03	2.415594E-16	1.031413E-17
1.880000E+03	2.463135E-16	1.050750E-17
1.920000E+03	2.510217E-16	1.069834E-17
1.960000E+03	2.556633E-16	1.088574E-17
2.000000E+03	2.602163E-16	1.106877E-17
2.040000E+03	2.647008E-16	1.124827E-17
2.080000E+03	2.690055E-16	1.141953E-17
2.120000E+03	2.731919E-16	1.158514E-17
2.160000E+03	2.772336E-16	1.174401E-17
2.200000E+03	2.811035E-16	1.189499E-17
2.240000E+03	2.847729E-16	1.203688E-17
2.280000E+03	2.882127E-16	1.216847E-17
2.320000E+03	2.914822E-16	1.229229E-17
2.360000E+03	2.945060E-16	1.240517E-17
2.400000E+03	2.972532E-16	1.250584E-17
2.440000E+03	2.997362E-16	1.259486E-17
2.480000E+03	3.019234E-16	1.267093E-17
2.520000E+03	3.037829E-16	1.273277E-17
2.560000E+03	3.053696E-16	1.278272E-17
2.600000E+03	3.066082E-16	1.281767E-17
2.640000E+03	3.075521E-16	1.283991E-17
2.680000E+03	3.080861E-16	1.284470E-17
2.720000E+03	3.083055E-16	1.283606E-17
2.760000E+03	3.081401E-16	1.281113E-17
2.800000E+03	3.076422E-16	1.277217E-17
2.840000E+03	3.067851E-16	1.271813E-17
2.880000E+03	3.055457E-16	1.264813E-17
2.920000E+03	3.039416E-16	1.256297E-17
2.960000E+03	3.020266E-16	1.246496E-17
3.000000E+03	2.997841E-16	1.235348E-17
3.010000E+03	2.991731E-16	1.232355E-17
3.020000E+03	2.985451E-16	1.229292E-17
3.030000E+03	2.978997E-16	1.226159E-17
3.040000E+03	2.972371E-16	1.222955E-17
3.050000E+03	2.965569E-16	1.219680E-17
3.060000E+03	2.958591E-16	1.216334E-17
3.070000E+03	2.951437E-16	1.212917E-17
3.080000E+03	2.944109E-16	1.209429E-17
3.090000E+03	2.936604E-16	1.205870E-17
3.100000E+03	2.928925E-16	1.202240E-17
3.110000E+03	2.921072E-16	1.198541E-17
3.120000E+03	2.913047E-16	1.194773E-17
3.130000E+03	2.905148E-16	1.191058E-17
3.140000E+03	2.896781E-16	1.187153E-17
3.150000E+03	2.888541E-16	1.183301E-17
3.160000E+03	2.880131E-16	1.179382E-17
3.170000E+03	2.871557E-16	1.175397E-17
3.180000E+03	2.862821E-16	1.171348E-17
3.190000E+03	2.854208E-16	1.167352E-17
3.200000E+03	2.845438E-16	1.163293E-17
3.210000E+03	2.836515E-16	1.159173E-17
3.220000E+03	2.827447E-16	1.154997E-17
3.230000E+03	2.818505E-16	1.150874E-17
3.240000E+03	2.809423E-16	1.146696E-17
3.250000E+03	2.800211E-16	1.142468E-17
3.260000E+03	2.791133E-16	1.138296E-17
3.270000E+03	2.781934E-16	1.134078E-17
3.280000E+03	2.772624E-16	1.129816E-17
3.290000E+03	2.763461E-16	1.125617E-17
3.300000E+03	2.754200E-16	1.121381E-17
3.310000E+03	2.745094E-16	1.117210E-17
3.320000E+03	2.735906E-16	1.113009E-17
3.330000E+03	2.726886E-16	1.108878E-17
3.340000E+03	2.717800E-16	1.104723E-17
3.350000E+03	2.708892E-16	1.100642E-17
3.360000E+03	2.699937E-16	1.096546E-17
3.370000E+03	2.691172E-16	1.092529E-17
3.380000E+03	2.682601E-16	1.088593E-17
3.390000E+03	2.674007E-16	1.084650E-17
3.400000E+03	2.665616E-16	1.080793E-17
3.410000E+03	2.657218E-16	1.076935E-17
3.420000E+03	2.649034E-16	1.073166E-17
3.430000E+03	2.641067E-16	1.069488E-17
3.440000E+03	2.633315E-16	1.065899E-17
3.450000E+03	2.625577E-16	1.062318E-17
3.460000E+03	2.618060E-16	1.058829E-17
3.470000E+03	2.610765E-16	1.055433E-17
3.480000E+03	2.603691E-16	1.052128E-17
3.490000E+03	2.596640E-16	1.048834E-17
3.500000E+03	2.589810E-16	1.045633E-17
3.510000E+03	2.583391E-16	1.042599E-17
3.520000E+03	2.576997E-16	1.039577E-17
3.530000E+03	2.570819E-16	1.036645E-17
3.540000E+03	2.564853E-16	1.033801E-17
3.550000E+03	2.558915E-16	1.030970E-17
3.560000E+03	2.553373E-16	1.028300E-17
3.570000E+03	2.548038E-16	1.025716E-17
3.580000E+03	2.542911E-16	1.023218E-17
3.590000E+03	2.537991E-16	1.020805E-17
3.600000E+03	2.533281E-16	1.018478E-17
3.610000E+03	2.528781E-16	1.016238E-17
3.620000E+03	2.524496E-16	1.014086E-17
3.630000E+03	2.520433E-16	1.012024E-17
3.640000E+03	2.516604E-16	1.010059E-17
3.650000E+03	2.513028E-16	1.008196E-17
3.660000E+03	2.509885E-16	1.006510E-17
3.670000E+03	2.506887E-16	1.004882E-17
3.680000E+03	2.504384E-16	1.003455E-17
3.690000E+03	2.502260E-16	1.002181E-17
3.700000E+03	2.500559E-16	1.001077E-17
3.710000E+03	2.499482E-16	1.000225E-17
3.720000E+03	2.498776E-16	9.995216E-18
3.730000E+03	2.498795E-16	9.991096E-18
3.740000E+03	2.499449E-16	9.989517E-18
3.750000E+03	2.500793E-16	9.990704E-18
3.760000E+03	2.502892E-16	9.994908E-18
3.770000E+03	2.505956E-16	1.000297E-17
3.780000E+03	2.509909E-16	1.001457E-17
3.790000E+03	2.514820E-16	1.002999E-17
3.800000E+03	2.520897E-16	1.005006E-17
3.810000E+03	2.527924E-16	1.007390E-17
3.820000E+03	2.536233E-16	1.010284E-17
3.830000E+03	2.545863E-16	1.013702E-17
3.840000E+03	2.556571E-16	1.017547E-17
3.850000E+03	2.568643E-16	1.021933E-17
3.860000E+03	2.581937E-16	1.026802E-17
3.870000E+03	2.596433E-16	1.032146E-17
3.880000E+03	2.612089E-16	1.037947E-17
3.890000E+03	2.628977E-16	1.044235E-17
3.900000E+03	2.646747E-16	1.050869E-17
3.910000E+03	2.665559E-16	1.057912E-17
3.920000E+03	2.685153E-16	1.065261E-17
3.930000E+03	2.705509E-16	1.072908E-17
3.940000E+03	2.726195E-16	1.080681E-17
3.950000E+03	2.747161E-16	1.088560E-17
3.960000E+03	2.768338E-16	1.096518E-17
3.970000E+03	2.789396E-16	1.104425E-17
3.980000E+03	2.810006E-16	1.112150E-17
3.990000E+03	2.830231E-16	1.119718E-17
4.000000E+03	2.849627E-16	1.126955E-17
4.010000E+03	2.868278E-16	1.133893E-17
4.020000E+03	2.885769E-16	1.140371E-17
4.030000E+03	2.902084E-16	1.146380E-17
4.040000E+03	2.917090E-16	1.151870E-17
4.050000E+03	2.930676E-16	1.156798E-17
4.060000E+03	2.942745E-16	1.161126E-17
4.070000E+03	2.953105E-16	1.164779E-17
4.080000E+03	2.961709E-16	1.167740E-17
4.090000E+03	2.968783E-16	1.170098E-17
4.100000E+03	2.974096E-16	1.171763E-17
4.110000E+03	2.977688E-16	1.172752E-17
4.120000E+03	2.979744E-16	1.173139E-17
4.130000E+03	2.980238E-16	1.172913E-17
4.140000E+03	2.979281E-16	1.172120E-17
4.150000E+03	2.977114E-16	1.170854E-17
4.160000E+03	2.973652E-16	1.169084E-17
4.170000E+03	2.969275E-16	1.166958E-17
4.180000E+03	2.964029E-16	1.164495E-17
4.190000E+03	2.957969E-16	1.161719E-17
4.200000E+03	2.951482E-16	1.158779E-17
4.210000E+03	2.944515E-16	1.155657E-17
4.220000E+03	2.937338E-16	1.152458E-17
4.230000E+03	2.930108E-16	1.149244E-17
4.240000E+03	2.922869E-16	1.146033E-17
4.250000E+03	2.915871E-16	1.142922E-17
4.260000E+03	2.909145E-16	1.139923E-17
4.270000E+03	2.902819E-16	1.137087E-17
4.280000E+03	2.897012E-16	1.134460E-17
4.290000E+03	2.891931E-16	1.132122E-17
4.300000E+03	2.887577E-16	1.130075E-17
4.310000E+03	2.883950E-16	1.128318E-17
4.320000E+03	2.881329E-16	1.126960E-17
4.330000E+03	2.879603E-16	1.125957E-17
4.340000E+03	2.878942E-16	1.125375E-17
4.350000E+03	2.879315E-16	1.125203E-17
4.360000E+03	2.880875E-16	1.125498E-17
4.370000E+03	2.883665E-16	1.126279E-17
4.380000E+03	2.887538E-16	1.127487E-17
4.390000E+03	2.892697E-16	1.129202E-17
4.400000E+03	2.899058E-16	1.131389E-17
4.410000E+03	2.906616E-16	1.134047E-17
4.420000E+03	2.915353E-16	1.137170E-17
4.430000E+03	2.925239E-16	1.140743E-17
4.440000E+03	2.936235E-16	1.144753E-17
4.450000E+03	2.948287E-16	1.149178E-17
4.460000E+03	2.961239E-16	1.153957E-17
4.470000E+03	2.975008E-16	1.159057E-17
4.480000E+03	2.989578E-16	1.164472E-17
4.490000E+03	3.004827E-16	1.170154E-17
4.500000E+03	3.020524E-16	1.176015E-17
4.510000E+03	3.036506E-16	1.181989E-17
4.520000E+03	3.052581E-16	1.188002E-17
4.530000E+03	3.068536E-16	1.193972E-17
4.540000E+03	3.084218E-16	1.199839E-17
4.550000E+03	3.099201E-16	1.205439E-17
4.560000E+03	3.113301E-16	1.210698E-17
4.570000E+03	3.126237E-16	1.215509E-17
4.580000E+03	3.137728E-16	1.219762E-17
4.590000E+03	3.147498E-16	1.223352E-17
4.600000E+03	3.155207E-16	1.226145E-17
4.610000E+03	3.160705E-16	1.228084E-17
4.620000E+03	3.163710E-16	1.229061E-17
4.630000E+03	3.164144E-16	1.229045E-17
4.640000E+03	3.161892E-16	1.227992E-17
4.650000E+03	3.156802E-16	1.225844E-17
4.660000E+03	3.148856E-16	1.222594E-17
4.670000E+03	3.138170E-16	1.218287E-17
4.680000E+03	3.124749E-16	1.212927E-17
4.690000E+03	3.108729E-16	1.206565E-17
4.700000E+03	3.090372E-16	1.199305E-17
4.710000E+03	3.069826E-16	1.191203E-17
4.720000E+03	3.047352E-16	1.182361E-17
4.730000E+03	3.023244E-16	1.172894E-17
4.740000E+03	2.997888E-16	1.162950E-17
4.750000E+03	2.971532E-16	1.152627E-17
4.760000E+03	2.944502E-16	1.142051E-17
4.770000E+03	2.917114E-16	1.131344E-17
4.780000E+03	2.889747E-16	1.120653E-17
4.790000E+03	2.862554E-16	1.110036E-17
4.800000E+03	2.835950E-16	1.099655E-17
4.810000E+03	2.810129E-16	1.089585E-17
4.820000E+03	2.785331E-16	1.079918E-17
4.830000E+03	2.761847E-16	1.070767E-17
4.840000E+03	2.739743E-16	1.062157E-17
4.850000E+03	2.719329E-16	1.054208E-17
4.860000E+03	2.700697E-16	1.046956E-17
4.870000E+03	2.683980E-16	1.040451E-17
4.880000E+03	2.669347E-16	1.034760E-17
4.890000E+03	2.656753E-16	1.029865E-17
4.900000E+03	2.646369E-16	1.025831E-17
4.910000E+03	2.638207E-16	1.022664E-17
4.920000E+03	2.632118E-16	1.020304E-17
4.930000E+03	2.628161E-16	1.018776E-17
4.940000E+03	2.626171E-16	1.018016E-17
4.950000E+03	2.626072E-16	1.017992E-17
4.960000E+03	2.627641E-16	1.018620E-17
4.970000E+03	2.630699E-16	1.019830E-17
4.980000E+03	2.635110E-16	1.021569E-17
4.990000E+03	2.640677E-16	1.023760E-17
5.000000E+03	2.647080E-16	1.026280E-17
5.010000E+03	2.654307E-16	1.029124E-17
5.020000E+03	2.662003E-16	1.032155E-17
5.030000E+03	2.670195E-16	1.035383E-17
5.040000E+03	2.678583E-16	1.038691E-17
5.050000E+03	2.687253E-16	1.042113E-17
5.060000E+03	2.696038E-16	1.045584E-17
5.070000E+03	2.704979E-16	1.049120E-17
5.080000E+03	2.714024E-16	1.052701E-17
5.090000E+03	2.723262E-16	1.056362E-17
5.100000E+03	2.732671E-16	1.060093E-17
5.110000E+03	2.742420E-16	1.063962E-17
5.120000E+03	2.752438E-16	1.067939E-17
5.130000E+03	2.762832E-16	1.072066E-17
5.140000E+03	2.773578E-16	1.076335E-17
5.150000E+03	2.784761E-16	1.080778E-17
5.160000E+03	2.796459E-16	1.085426E-17
5.170000E+03	2.808487E-16	1.090206E-17
5.180000E+03	2.821013E-16	1.095185E-17
5.190000E+03	2.833947E-16	1.100327E-17
5.200000E+03	2.847185E-16	1.105592E-17
5.210000E+03	2.860732E-16	1.110981E-17
5.220000E+03	2.874521E-16	1.116470E-17
5.230000E+03	2.888472E-16	1.122027E-17
5.240000E+03	2.902498E-16	1.127618E-17
5.250000E+03	2.916498E-16	1.133204E-17
5.260000E+03	2.930303E-16	1.138719E-17
5.270000E+03	2.943922E-16	1.144167E-17
5.280000E+03	2.957170E-16	1.149475E-17
5.290000E+03	2.969853E-16	1.154569E-17
5.300000E+03	2.981901E-16	1.159421E-17
5.310000E+03	2.993239E-16	1.164002E-17
5.320000E+03	3.003601E-16	1.168208E-17
5.330000E+03	3.012905E-16	1.172007E-17
5.340000E+03	3.021009E-16	1.175345E-17
5.350000E+03	3.027834E-16	1.178188E-17
5.360000E+03	3.033110E-16	1.180433E-17
5.370000E+03	3.036754E-16	1.182047E-17
5.380000E+03	3.038688E-16	1.182999E-17
5.390000E+03	3.038634E-16	1.183181E-17
5.400000E+03	3.036512E-16	1.182560E-17
5.410000E+03	3.032247E-16	1.181107E-17
5.420000E+03	3.025578E-16	1.178720E-17
5.430000E+03	3.016515E-16	1.175402E-17
5.440000E+03	3.004891E-16	1.171088E-17
5.450000E+03	2.990559E-16	1.165720E-17
5.460000E+03	2.973583E-16	1.159322E-17
5.470000E+03	2.953858E-16	1.151852E-17
5.480000E+03	2.931430E-16	1.143327E-17
5.490000E+03	2.906182E-16	1.133702E-17
5.500000E+03	2.878275E-16	1.123038E-17
5.510000E+03	2.847708E-16	1.111334E-17
5.520000E+03	2.814576E-16	1.098627E-17
5.530000E+03	2.779000E-16	1.084962E-17
5.540000E+03	2.741198E-16	1.070425E-17
5.550000E+03	2.701295E-16	1.055063E-17
5.560000E+03	2.659505E-16	1.038960E-17
5.570000E+03	2.616121E-16	1.022230E-17
5.580000E+03	2.571346E-16	1.004950E-17
5.590000E+03	2.525462E-16	9.872318E-18
5.600000E+03	2.478817E-16	9.692098E-18
5.610000E+03	2.431673E-16	9.509862E-18
5.620000E+03	2.384408E-16	9.327096E-18
5.630000E+03	2.337311E-16	9.144918E-18
5.640000E+03	2.290772E-16	8.964859E-18
5.650000E+03	2.245126E-16	8.788227E-18
5.660000E+03	2.200644E-16	8.616087E-18
5.670000E+03	2.157619E-16	8.449589E-18
5.680000E+03	2.116352E-16	8.289916E-18
5.690000E+03	2.077053E-16	8.137889E-18
5.700000E+03	2.039889E-16	7.994172E-18
5.710000E+03	2.004942E-16	7.859086E-18
5.720000E+03	1.972341E-16	7.733149E-18
5.730000E+03	1.942135E-16	7.616556E-18
5.740000E+03	1.914346E-16	7.509397E-18
5.750000E+03	1.888925E-16	7.411490E-18
5.760000E+03	1.865882E-16	7.322875E-18
5.770000E+03	1.845199E-16	7.243495E-18
5.780000E+03	1.826727E-16	7.172765E-18
5.790000E+03	1.810409E-16	7.110470E-18
5.800000E+03	1.796136E-16	7.056189E-18
5.810000E+03	1.783786E-16	7.009444E-18
5.820000E+03	1.773222E-16	6.969709E-18
5.830000E+03	1.764303E-16	6.936425E-18
5.840000E+03	1.756875E-16	6.908999E-18
5.850000E+03	1.750785E-16	6.886829E-18
5.860000E+03	1.745877E-16	6.869311E-18
5.870000E+03	1.742004E-16	6.855859E-18
5.880000E+03	1.739017E-16	6.845904E-18
5.890000E+03	1.736822E-16	6.839066E-18
5.900000E+03	1.735257E-16	6.834715E-18
5.910000E+03	1.734180E-16	6.832290E-18
5.920000E+03	1.733572E-16	6.831721E-18
5.930000E+03	1.733362E-16	6.832732E-18
5.940000E+03	1.733428E-16	6.834834E-18
5.950000E+03	1.733809E-16	6.838193E-18
5.960000E+03	1.734423E-16	6.842476E-18
5.970000E+03	1.735389E-16	6.848159E-18
5.980000E+03	1.736623E-16	6.854914E-18
5.990000E+03	1.738206E-16	6.863056E-18
6.000000E+03	1.740239E-16	6.872986E-18
6.010000E+03	1.742798E-16	6.885009E-18
6.020000E+03	1.745904E-16	6.899203E-18
6.030000E+03	1.749735E-16	6.916284E-18
6.040000E+03	1.754382E-16	6.936603E-18
6.050000E+03	1.759979E-16	6.960703E-18
6.060000E+03	1.766718E-16	6.989339E-18
6.070000E+03	1.774727E-16	7.023025E-18
6.080000E+03	1.784180E-16	7.062451E-18
6.090000E+03	1.795303E-16	7.108521E-18
6.100000E+03	1.808248E-16	7.161839E-18
6.110000E+03	1.823251E-16	7.223351E-18
6.120000E+03	1.840431E-16	7.293535E-18
6.130000E+03	1.860100E-16	7.373630E-18
6.140000E+03	1.882320E-16	7.463898E-18
6.150000E+03	1.907339E-16	7.565325E-18
6.160000E+03	1.935298E-16	7.678485E-18
6.170000E+03	1.966216E-16	7.803464E-18
6.180000E+03	2.000238E-16	7.940849E-18
6.190000E+03	2.037379E-16	8.090708E-18
6.200000E+03	2.077548E-16	8.252690E-18
6.210000E+03	2.120678E-16	8.426549E-18
6.220000E+03	2.166499E-16	8.611212E-18
6.230000E+03	2.214895E-16	8.806234E-18
6.240000E+03	2.265436E-16	9.009914E-18
6.250000E+03	2.317688E-16	9.220533E-18
6.260000E+03	2.371183E-16	9.436234E-18
6.270000E+03	2.425253E-16	9.654363E-18
6.280000E+03	2.479256E-16	9.872369E-18
6.290000E+03	2.532369E-16	1.008697E-17
6.300000E+03	2.583834E-16	1.029515E-17
6.310000E+03	2.632811E-16	1.049354E-17
6.320000E+03	2.678411E-16	1.067860E-17
6.330000E+03	2.719903E-16	1.084740E-17
6.340000E+03	2.756507E-16	1.099681E-17
6.350000E+03	2.787665E-16	1.112459E-17
6.360000E+03	2.812818E-16	1.122849E-17
6.370000E+03	2.831655E-16	1.130723E-17
6.380000E+03	2.843940E-16	1.135986E-17
6.390000E+03	2.849569E-16	1.138593E-17
6.400000E+03	2.848503E-16	1.138526E-17
6.410000E+03	2.840953E-16	1.135867E-17
6.420000E+03	2.827172E-16	1.130715E-17
6.430000E+03	2.807507E-16	1.123206E-17
6.440000E+03	2.782315E-16	1.113481E-17
6.450000E+03	2.752203E-16	1.101781E-17
6.460000E+03	2.717569E-16	1.088262E-17
6.470000E+03	2.679022E-16	1.073168E-17
6.480000E+03	2.637123E-16	1.056721E-17
6.490000E+03	2.592430E-16	1.039144E-17
6.500000E+03	2.545434E-16	1.020632E-17
6.510000E+03	2.496784E-16	1.001445E-17
6.520000E+03	2.446920E-16	9.817595E-18
6.530000E+03	2.396310E-16	9.617617E-18
6.540000E+03	2.345377E-16	9.416218E-18
6.550000E+03	2.294500E-16	9.214912E-18
6.560000E+03	2.244001E-16	9.014996E-18
6.570000E+03	2.194152E-16	8.817566E-18
6.580000E+03	2.145166E-16	8.623477E-18
6.590000E+03	2.097253E-16	8.433578E-18
6.600000E+03	2.050479E-16	8.248140E-18
6.610000E+03	2.004934E-16	8.067528E-18
6.620000E+03	1.960688E-16	7.892027E-18
6.630000E+03	1.917847E-16	7.722069E-18
6.640000E+03	1.876417E-16	7.557682E-18
6.650000E+03	1.836444E-16	7.399064E-18
6.660000E+03	1.798019E-16	7.246578E-18
6.670000E+03	1.761138E-16	7.100221E-18
6.680000E+03	1.725881E-16	6.960315E-18
6.690000E+03	1.692203E-16	6.826692E-18
6.700000E+03	1.660258E-16	6.699972E-18
6.710000E+03	1.629995E-16	6.579958E-18
6.720000E+03	1.601438E-16	6.466759E-18
6.730000E+03	1.574646E-16	6.360613E-18
6.740000E+03	1.549590E-16	6.261410E-18
6.750000E+03	1.526311E-16	6.169327E-18
6.760000E+03	1.504814E-16	6.084387E-18
6.770000E+03	1.485066E-16	6.006467E-18
6.780000E+03	1.467109E-16	5.935737E-18
6.790000E+03	1.450915E-16	5.872099E-18
6.800000E+03	1.436563E-16	5.815873E-18
6.810000E+03	1.423961E-16	5.766700E-18
6.820000E+03	1.413227E-16	5.725059E-18
6.830000E+03	1.404311E-16	5.690758E-18
6.840000E+03	1.397233E-16	5.663881E-18
6.850000E+03	1.392087E-16	5.644819E-18
6.860000E+03	1.388831E-16	5.633413E-18
6.870000E+03	1.387531E-16	5.629929E-18
6.880000E+03	1.388180E-16	5.634357E-18
6.890000E+03	1.390843E-16	5.646958E-18
6.900000E+03	1.395542E-16	5.667835E-18
6.910000E+03	1.402298E-16	5.697081E-18
6.920000E+03	1.411095E-16	5.734634E-18
6.930000E+03	1.421978E-16	5.780692E-18
6.940000E+03	1.434952E-16	5.835278E-18
6.950000E+03	1.450009E-16	5.898370E-18
6.960000E+03	1.467098E-16	5.969770E-18
6.970000E+03	1.486228E-16	6.049516E-18
6.980000E+03	1.507319E-16	6.137297E-18
6.990000E+03	1.530358E-16	6.233062E-18
7.000000E+03	1.555282E-16	6.336566E-18
7.010000E+03	1.582029E-16	6.447561E-18
7.020000E+03	1.610493E-16	6.565622E-18
7.030000E+03	1.640658E-16	6.690693E-18
7.040000E+03	1.672445E-16	6.822454E-18
7.050000E+03	1.705881E-16	6.961021E-18
7.060000E+03	1.740985E-16	7.106483E-18
7.070000E+03	1.777769E-16	7.258889E-18
7.080000E+03	1.816316E-16	7.418588E-18
7.090000E+03	1.856773E-16	7.586187E-18
7.100000E+03	1.899249E-16	7.762138E-18
7.110000E+03	1.943798E-16	7.946668E-18
7.120000E+03	1.990546E-16	8.140304E-18
7.130000E+03	2.039485E-16	8.343015E-18
7.140000E+03	2.090602E-16	8.554762E-18
7.150000E+03	2.143882E-16	8.775487E-18
7.160000E+03	2.199125E-16	9.004382E-18
7.170000E+03	2.256104E-16	9.240521E-18
7.180000E+03	2.314566E-16	9.482880E-18
7.190000E+03	2.374050E-16	9.729571E-18
7.200000E+03	2.434062E-16	9.978571E-18
7.210000E+03	2.494007E-16	1.022745E-17
7.220000E+03	2.553263E-16	1.047364E-17
7.230000E+03	2.610990E-16	1.071371E-17
7.240000E+03	2.666323E-16	1.094409E-17
7.250000E+03	2.718253E-16	1.116063E-17
7.260000E+03	2.765928E-16	1.135982E-17
7.270000E+03	2.808281E-16	1.153727E-17
7.280000E+03	2.844416E-16	1.168926E-17
7.290000E+03	2.873317E-16	1.181160E-17
7.300000E+03	2.894270E-16	1.190133E-17
7.310000E+03	2.906930E-16	1.195700E-17
7.320000E+03	2.910964E-16	1.197720E-17
7.330000E+03	2.906345E-16	1.196179E-17
7.340000E+03	2.893190E-16	1.191123E-17
7.350000E+03	2.871962E-16	1.182738E-17
7.360000E+03	2.843214E-16	1.171250E-17
7.370000E+03	2.807628E-16	1.156937E-17
7.380000E+03	2.765982E-16	1.140117E-17
7.390000E+03	2.719034E-16	1.121100E-17
7.400000E+03	2.667699E-16	1.100262E-17
7.410000E+03	2.612744E-16	1.077917E-17
7.420000E+03	2.555040E-16	1.054425E-17
7.430000E+03	2.495336E-16	1.030092E-17
7.440000E+03	2.434262E-16	1.005179E-17
7.450000E+03	2.372505E-16	9.799678E-18
7.460000E+03	2.310557E-16	9.546630E-18
7.470000E+03	2.248972E-16	9.294927E-18
7.480000E+03	2.188180E-16	9.046345E-18
7.490000E+03	2.128453E-16	8.802023E-18
7.500000E+03	2.070246E-16	8.563836E-18
7.510000E+03	2.013853E-16	8.333014E-18
7.520000E+03	1.959481E-16	8.110416E-18
7.530000E+03	1.907403E-16	7.897182E-18
7.540000E+03	1.857703E-16	7.693667E-18
7.550000E+03	1.810628E-16	7.500902E-18
7.560000E+03	1.766283E-16	7.319336E-18
7.570000E+03	1.724695E-16	7.149085E-18
7.580000E+03	1.685903E-16	6.990324E-18
7.590000E+03	1.649917E-16	6.843106E-18
7.600000E+03	1.616765E-16	6.707558E-18
7.610000E+03	1.586327E-16	6.583188E-18
7.620000E+03	1.558680E-16	6.470327E-18
7.630000E+03	1.533634E-16	6.368198E-18
7.640000E+03	1.511157E-16	6.276675E-18
7.650000E+03	1.491201E-16	6.195574E-18
7.660000E+03	1.473630E-16	6.124330E-18
7.670000E+03	1.458335E-16	6.062504E-18
7.680000E+03	1.445230E-16	6.009748E-18
7.690000E+03	1.434101E-16	5.965177E-18
7.700000E+03	1.424869E-16	5.928466E-18
7.710000E+03	1.417286E-16	5.898597E-18
7.720000E+03	1.411248E-16	5.875135E-18
7.730000E+03	1.406529E-16	5.857150E-18
7.740000E+03	1.402936E-16	5.843842E-18
7.750000E+03	1.400274E-16	5.834399E-18
7.760000E+03	1.398347E-16	5.828010E-18
