#wls	flux	fluxerr
1.600000E+03	1.560061E-16	1.103013E-17
1.640000E+03	1.596116E-16	1.127637E-17
1.680000E+03	1.631954E-16	1.152046E-17
1.720000E+03	1.668322E-16	1.176766E-17
1.760000E+03	1.704571E-16	1.201336E-17
1.800000E+03	1.740889E-16	1.225888E-17
1.840000E+03	1.776876E-16	1.250136E-17
1.880000E+03	1.812717E-16	1.274212E-17
1.920000E+03	1.848607E-16	1.298247E-17
1.960000E+03	1.883812E-16	1.321727E-17
2.000000E+03	1.918826E-16	1.344996E-17
2.040000E+03	1.953204E-16	1.367741E-17
2.080000E+03	1.986808E-16	1.389864E-17
2.120000E+03	2.019819E-16	1.411492E-17
2.160000E+03	2.052096E-16	1.432524E-17
2.200000E+03	2.083492E-16	1.452859E-17
2.240000E+03	2.113525E-16	1.472160E-17
2.280000E+03	2.142708E-16	1.490785E-17
2.320000E+03	2.170554E-16	1.508395E-17
2.360000E+03	2.196911E-16	1.524887E-17
2.400000E+03	2.222301E-16	1.540623E-17
2.440000E+03	2.245902E-16	1.555036E-17
2.480000E+03	2.267906E-16	1.568260E-17
2.520000E+03	2.288172E-16	1.580201E-17
2.560000E+03	2.306907E-16	1.591004E-17
2.600000E+03	2.323981E-16	1.600584E-17
2.640000E+03	2.338948E-16	1.608635E-17
2.680000E+03	2.352366E-16	1.615546E-17
2.720000E+03	2.363816E-16	1.621033E-17
2.760000E+03	2.373547E-16	1.625272E-17
2.800000E+03	2.381498E-16	1.628224E-17
2.840000E+03	2.387625E-16	1.629866E-17
2.880000E+03	2.391912E-16	1.630189E-17
2.920000E+03	2.394667E-16	1.629410E-17
2.960000E+03	2.396207E-16	1.627749E-17
3.000000E+03	2.396265E-16	1.625028E-17
3.010000E+03	2.395882E-16	1.624071E-17
3.020000E+03	2.395578E-16	1.623163E-17
3.030000E+03	2.395350E-16	1.622305E-17
3.040000E+03	2.394911E-16	1.621300E-17
3.050000E+03	2.394550E-16	1.620345E-17
3.060000E+03	2.393981E-16	1.619247E-17
3.070000E+03	2.393493E-16	1.618200E-17
3.080000E+03	2.392802E-16	1.617013E-17
3.090000E+03	2.391913E-16	1.615690E-17
3.100000E+03	2.391386E-16	1.614608E-17
3.110000E+03	2.390387E-16	1.613205E-17
3.120000E+03	2.389749E-16	1.612043E-17
3.130000E+03	2.388648E-16	1.610566E-17
3.140000E+03	2.387907E-16	1.609329E-17
3.150000E+03	2.386982E-16	1.607965E-17
3.160000E+03	2.385878E-16	1.606478E-17
3.170000E+03	2.384866E-16	1.605050E-17
3.180000E+03	2.383946E-16	1.603682E-17
3.190000E+03	2.382855E-16	1.602196E-17
3.200000E+03	2.381859E-16	1.600771E-17
3.210000E+03	2.380698E-16	1.599233E-17
3.220000E+03	2.379637E-16	1.597760E-17
3.230000E+03	2.378417E-16	1.596177E-17
3.240000E+03	2.377300E-16	1.594661E-17
3.250000E+03	2.376287E-16	1.593213E-17
3.260000E+03	2.375124E-16	1.591661E-17
3.270000E+03	2.374069E-16	1.590179E-17
3.280000E+03	2.373122E-16	1.588767E-17
3.290000E+03	2.372033E-16	1.587257E-17
3.300000E+03	2.371056E-16	1.585820E-17
3.310000E+03	2.369944E-16	1.584290E-17
3.320000E+03	2.368947E-16	1.582834E-17
3.330000E+03	2.368067E-16	1.581454E-17
3.340000E+03	2.367059E-16	1.579987E-17
3.350000E+03	2.366172E-16	1.578597E-17
3.360000E+03	2.365164E-16	1.577124E-17
3.370000E+03	2.364516E-16	1.575888E-17
3.380000E+03	2.363516E-16	1.574415E-17
3.390000E+03	2.362874E-16	1.573178E-17
3.400000E+03	2.362123E-16	1.571866E-17
3.410000E+03	2.361495E-16	1.570633E-17
3.420000E+03	2.360764E-16	1.569329E-17
3.430000E+03	2.360387E-16	1.568258E-17
3.440000E+03	2.359682E-16	1.566966E-17
3.450000E+03	2.359332E-16	1.565907E-17
3.460000E+03	2.358885E-16	1.564781E-17
3.470000E+03	2.358567E-16	1.563737E-17
3.480000E+03	2.358156E-16	1.562629E-17
3.490000E+03	2.358096E-16	1.561751E-17
3.500000E+03	2.357947E-16	1.560810E-17
3.510000E+03	2.357711E-16	1.559810E-17
3.520000E+03	2.357823E-16	1.559036E-17
3.530000E+03	2.357852E-16	1.558204E-17
3.540000E+03	2.357798E-16	1.557315E-17
3.550000E+03	2.358091E-16	1.556652E-17
3.560000E+03	2.358307E-16	1.555935E-17
3.570000E+03	2.358446E-16	1.555164E-17
3.580000E+03	2.358930E-16	1.554617E-17
3.590000E+03	2.359342E-16	1.554019E-17
3.600000E+03	2.359889E-16	1.553507E-17
3.610000E+03	2.360370E-16	1.552949E-17
3.620000E+03	2.361192E-16	1.552611E-17
3.630000E+03	2.361949E-16	1.552227E-17
3.640000E+03	2.362647E-16	1.551800E-17
3.650000E+03	2.363684E-16	1.551593E-17
3.660000E+03	2.364663E-16	1.551344E-17
3.670000E+03	2.365589E-16	1.551057E-17
3.680000E+03	2.366853E-16	1.550988E-17
3.690000E+03	2.368067E-16	1.550882E-17
3.700000E+03	2.369231E-16	1.550740E-17
3.710000E+03	2.370734E-16	1.550816E-17
3.720000E+03	2.372191E-16	1.550857E-17
3.730000E+03	2.373792E-16	1.550989E-17
3.740000E+03	2.375349E-16	1.551088E-17
3.750000E+03	2.377051E-16	1.551278E-17
3.760000E+03	2.378897E-16	1.551558E-17
3.770000E+03	2.380884E-16	1.551925E-17
3.780000E+03	2.382826E-16	1.552259E-17
3.790000E+03	2.384723E-16	1.552559E-17
3.800000E+03	2.386937E-16	1.553062E-17
3.810000E+03	2.389102E-16	1.553528E-17
3.820000E+03	2.391213E-16	1.553954E-17
3.830000E+03	2.393625E-16	1.554573E-17
3.840000E+03	2.395977E-16	1.555147E-17
3.850000E+03	2.398262E-16	1.555674E-17
3.860000E+03	2.400651E-16	1.556264E-17
3.870000E+03	2.403137E-16	1.556912E-17
3.880000E+03	2.405538E-16	1.557501E-17
3.890000E+03	2.408018E-16	1.558136E-17
3.900000E+03	2.410397E-16	1.558701E-17
3.910000E+03	2.412835E-16	1.559301E-17
3.920000E+03	2.415154E-16	1.559819E-17
3.930000E+03	2.417512E-16	1.560358E-17
3.940000E+03	2.419897E-16	1.560909E-17
3.950000E+03	2.422130E-16	1.561359E-17
3.960000E+03	2.424201E-16	1.561700E-17
3.970000E+03	2.426265E-16	1.562033E-17
3.980000E+03	2.428309E-16	1.562349E-17
3.990000E+03	2.429996E-16	1.562432E-17
4.000000E+03	2.431806E-16	1.562590E-17
4.010000E+03	2.433244E-16	1.562505E-17
4.020000E+03	2.434782E-16	1.562482E-17
4.030000E+03	2.435937E-16	1.562209E-17
4.040000E+03	2.437019E-16	1.561886E-17
4.050000E+03	2.437867E-16	1.561411E-17
4.060000E+03	2.438637E-16	1.560883E-17
4.070000E+03	2.439173E-16	1.560202E-17
4.080000E+03	2.439475E-16	1.559370E-17
4.090000E+03	2.439705E-16	1.558489E-17
4.100000E+03	2.439714E-16	1.557466E-17
4.110000E+03	2.439510E-16	1.556304E-17
4.120000E+03	2.439106E-16	1.555014E-17
4.130000E+03	2.438665E-16	1.553699E-17
4.140000E+03	2.438050E-16	1.552271E-17
4.150000E+03	2.437280E-16	1.550743E-17
4.160000E+03	2.436372E-16	1.549127E-17
4.170000E+03	2.435346E-16	1.547435E-17
4.180000E+03	2.434368E-16	1.545773E-17
4.190000E+03	2.433167E-16	1.543969E-17
4.200000E+03	2.432056E-16	1.542221E-17
4.210000E+03	2.430911E-16	1.540451E-17
4.220000E+03	2.429613E-16	1.538584E-17
4.230000E+03	2.428466E-16	1.536812E-17
4.240000E+03	2.427349E-16	1.535059E-17
4.250000E+03	2.426283E-16	1.533338E-17
4.260000E+03	2.425287E-16	1.531661E-17
4.270000E+03	2.424379E-16	1.530039E-17
4.280000E+03	2.423440E-16	1.528396E-17
4.290000E+03	2.422756E-16	1.526915E-17
4.300000E+03	2.422071E-16	1.525432E-17
4.310000E+03	2.421664E-16	1.524125E-17
4.320000E+03	2.421280E-16	1.522831E-17
4.330000E+03	2.421059E-16	1.521638E-17
4.340000E+03	2.421009E-16	1.520552E-17
4.350000E+03	2.421002E-16	1.519494E-17
4.360000E+03	2.421301E-16	1.518626E-17
4.370000E+03	2.421649E-16	1.517787E-17
4.380000E+03	2.422173E-16	1.517058E-17
4.390000E+03	2.422741E-16	1.516356E-17
4.400000E+03	2.423476E-16	1.515757E-17
4.410000E+03	2.424371E-16	1.515256E-17
4.420000E+03	2.425414E-16	1.514847E-17
4.430000E+03	2.426470E-16	1.514444E-17
4.440000E+03	2.427524E-16	1.514038E-17
4.450000E+03	2.428809E-16	1.513775E-17
4.460000E+03	2.430059E-16	1.513488E-17
4.470000E+03	2.431255E-16	1.513166E-17
4.480000E+03	2.432496E-16	1.512870E-17
4.490000E+03	2.433638E-16	1.512511E-17
4.500000E+03	2.434776E-16	1.512148E-17
4.510000E+03	2.435762E-16	1.511689E-17
4.520000E+03	2.436688E-16	1.511192E-17
4.530000E+03	2.437408E-16	1.510565E-17
4.540000E+03	2.438011E-16	1.509865E-17
4.550000E+03	2.438351E-16	1.509000E-17
4.560000E+03	2.438400E-16	1.507955E-17
4.570000E+03	2.438133E-16	1.506714E-17
4.580000E+03	2.437644E-16	1.505336E-17
4.590000E+03	2.436911E-16	1.503807E-17
4.600000E+03	2.435683E-16	1.501973E-17
4.610000E+03	2.434178E-16	1.499969E-17
4.620000E+03	2.432271E-16	1.497717E-17
4.630000E+03	2.430069E-16	1.495286E-17
4.640000E+03	2.427456E-16	1.492604E-17
4.650000E+03	2.424326E-16	1.489605E-17
4.660000E+03	2.421022E-16	1.486503E-17
4.670000E+03	2.417222E-16	1.483098E-17
4.680000E+03	2.413166E-16	1.479540E-17
4.690000E+03	2.408655E-16	1.475706E-17
4.700000E+03	2.403934E-16	1.471747E-17
4.710000E+03	2.398926E-16	1.467617E-17
4.720000E+03	2.393661E-16	1.463333E-17
4.730000E+03	2.388283E-16	1.458984E-17
4.740000E+03	2.382613E-16	1.454463E-17
4.750000E+03	2.376904E-16	1.449922E-17
4.760000E+03	2.371090E-16	1.445322E-17
4.770000E+03	2.365210E-16	1.440687E-17
4.780000E+03	2.359200E-16	1.435978E-17
4.790000E+03	2.353411E-16	1.431408E-17
4.800000E+03	2.347571E-16	1.426812E-17
4.810000E+03	2.341819E-16	1.422276E-17
4.820000E+03	2.336194E-16	1.417821E-17
4.830000E+03	2.330829E-16	1.413529E-17
4.840000E+03	2.325555E-16	1.409296E-17
4.850000E+03	2.320500E-16	1.405202E-17
4.860000E+03	2.315794E-16	1.401322E-17
4.870000E+03	2.311358E-16	1.397611E-17
4.880000E+03	2.307116E-16	1.394021E-17
4.890000E+03	2.303284E-16	1.390682E-17
4.900000E+03	2.299778E-16	1.387543E-17
4.910000E+03	2.296512E-16	1.384553E-17
4.920000E+03	2.293692E-16	1.381835E-17
4.930000E+03	2.291227E-16	1.379333E-17
4.940000E+03	2.289117E-16	1.377047E-17
4.950000E+03	2.287366E-16	1.374979E-17
4.960000E+03	2.285970E-16	1.373127E-17
4.970000E+03	2.284925E-16	1.371487E-17
4.980000E+03	2.284222E-16	1.370053E-17
4.990000E+03	2.283854E-16	1.368821E-17
5.000000E+03	2.283806E-16	1.367783E-17
5.010000E+03	2.284064E-16	1.366927E-17
5.020000E+03	2.284613E-16	1.366246E-17
5.030000E+03	2.285434E-16	1.365729E-17
5.040000E+03	2.286601E-16	1.365418E-17
5.050000E+03	2.287906E-16	1.365189E-17
5.060000E+03	2.289418E-16	1.365083E-17
5.070000E+03	2.291114E-16	1.365086E-17
5.080000E+03	2.293061E-16	1.365238E-17
5.090000E+03	2.295043E-16	1.365411E-17
5.100000E+03	2.297221E-16	1.365700E-17
5.110000E+03	2.299374E-16	1.365973E-17
5.120000E+03	2.301658E-16	1.366323E-17
5.130000E+03	2.303851E-16	1.366618E-17
5.140000E+03	2.306103E-16	1.366948E-17
5.150000E+03	2.308283E-16	1.367234E-17
5.160000E+03	2.310348E-16	1.367452E-17
5.170000E+03	2.312257E-16	1.367578E-17
5.180000E+03	2.313967E-16	1.367585E-17
5.190000E+03	2.315428E-16	1.367447E-17
5.200000E+03	2.316594E-16	1.367134E-17
5.210000E+03	2.317414E-16	1.366619E-17
5.220000E+03	2.317932E-16	1.365926E-17
5.230000E+03	2.317911E-16	1.364917E-17
5.240000E+03	2.317484E-16	1.363672E-17
5.250000E+03	2.316415E-16	1.362052E-17
5.260000E+03	2.314839E-16	1.360137E-17
5.270000E+03	2.312612E-16	1.357843E-17
5.280000E+03	2.309687E-16	1.355144E-17
5.290000E+03	2.306018E-16	1.352013E-17
5.300000E+03	2.301651E-16	1.348480E-17
5.310000E+03	2.296364E-16	1.344414E-17
5.320000E+03	2.290299E-16	1.339900E-17
5.330000E+03	2.283243E-16	1.334814E-17
5.340000E+03	2.275346E-16	1.329245E-17
5.350000E+03	2.266494E-16	1.323128E-17
5.360000E+03	2.256752E-16	1.316502E-17
5.370000E+03	2.245930E-16	1.309257E-17
5.380000E+03	2.234189E-16	1.301489E-17
5.390000E+03	2.221343E-16	1.293089E-17
5.400000E+03	2.207557E-16	1.284155E-17
5.410000E+03	2.192824E-16	1.274684E-17
5.420000E+03	2.176977E-16	1.264580E-17
5.430000E+03	2.160196E-16	1.253950E-17
5.440000E+03	2.142328E-16	1.242705E-17
5.450000E+03	2.123649E-16	1.231007E-17
5.460000E+03	2.103938E-16	1.218728E-17
5.470000E+03	2.083318E-16	1.205941E-17
5.480000E+03	2.061913E-16	1.192718E-17
5.490000E+03	2.039691E-16	1.179042E-17
5.500000E+03	2.016787E-16	1.164993E-17
5.510000E+03	1.993107E-16	1.150516E-17
5.520000E+03	1.968873E-16	1.135740E-17
5.530000E+03	1.944079E-16	1.120662E-17
5.540000E+03	1.918874E-16	1.105369E-17
5.550000E+03	1.893188E-16	1.089821E-17
5.560000E+03	1.867321E-16	1.074191E-17
5.570000E+03	1.841138E-16	1.058402E-17
5.580000E+03	1.814863E-16	1.042582E-17
5.590000E+03	1.788512E-16	1.026740E-17
5.600000E+03	1.762165E-16	1.010924E-17
5.610000E+03	1.735974E-16	9.952187E-18
5.620000E+03	1.709948E-16	9.796301E-18
5.630000E+03	1.684165E-16	9.642023E-18
5.640000E+03	1.658764E-16	9.490149E-18
5.650000E+03	1.633749E-16	9.340694E-18
5.660000E+03	1.609249E-16	9.194390E-18
5.670000E+03	1.585261E-16	9.051212E-18
5.680000E+03	1.561842E-16	8.911483E-18
5.690000E+03	1.539104E-16	8.775830E-18
5.700000E+03	1.517091E-16	8.644492E-18
5.710000E+03	1.495723E-16	8.517014E-18
5.720000E+03	1.475154E-16	8.394255E-18
5.730000E+03	1.455411E-16	8.276368E-18
5.740000E+03	1.436460E-16	8.163143E-18
5.750000E+03	1.418321E-16	8.054691E-18
5.760000E+03	1.401062E-16	7.951382E-18
5.770000E+03	1.384693E-16	7.853262E-18
5.780000E+03	1.369110E-16	7.759736E-18
5.790000E+03	1.354476E-16	7.671710E-18
5.800000E+03	1.340681E-16	7.588562E-18
5.810000E+03	1.327724E-16	7.510267E-18
5.820000E+03	1.315648E-16	7.437062E-18
5.830000E+03	1.304394E-16	7.368604E-18
5.840000E+03	1.294003E-16	7.305120E-18
5.850000E+03	1.284466E-16	7.246539E-18
5.860000E+03	1.275723E-16	7.192517E-18
5.870000E+03	1.267763E-16	7.142988E-18
5.880000E+03	1.260628E-16	7.098176E-18
5.890000E+03	1.254310E-16	7.058028E-18
5.900000E+03	1.248752E-16	7.022216E-18
5.910000E+03	1.244000E-16	6.990987E-18
5.920000E+03	1.240050E-16	6.964307E-18
5.930000E+03	1.236854E-16	6.941905E-18
5.940000E+03	1.234413E-16	6.923776E-18
5.950000E+03	1.232828E-16	6.910482E-18
5.960000E+03	1.232010E-16	6.901510E-18
5.970000E+03	1.231969E-16	6.896904E-18
5.980000E+03	1.232765E-16	6.897002E-18
5.990000E+03	1.234412E-16	6.901870E-18
6.000000E+03	1.236930E-16	6.911611E-18
6.010000E+03	1.240291E-16	6.926053E-18
6.020000E+03	1.244515E-16	6.945313E-18
6.030000E+03	1.249728E-16	6.970072E-18
6.040000E+03	1.255859E-16	6.999933E-18
6.050000E+03	1.262986E-16	7.035321E-18
6.060000E+03	1.271091E-16	7.076125E-18
6.070000E+03	1.280257E-16	7.122792E-18
6.080000E+03	1.290516E-16	7.175498E-18
6.090000E+03	1.301900E-16	7.234411E-18
6.100000E+03	1.314394E-16	7.299428E-18
6.110000E+03	1.328076E-16	7.370980E-18
6.120000E+03	1.342977E-16	7.449228E-18
6.130000E+03	1.359068E-16	7.533999E-18
6.140000E+03	1.376423E-16	7.625686E-18
6.150000E+03	1.395055E-16	7.724360E-18
6.160000E+03	1.414971E-16	7.830047E-18
6.170000E+03	1.436170E-16	7.942729E-18
6.180000E+03	1.458582E-16	8.062007E-18
6.190000E+03	1.482237E-16	8.188041E-18
6.200000E+03	1.507097E-16	8.320602E-18
6.210000E+03	1.533043E-16	8.459038E-18
6.220000E+03	1.560125E-16	8.603604E-18
6.230000E+03	1.588122E-16	8.753088E-18
6.240000E+03	1.616979E-16	8.907166E-18
6.250000E+03	1.646542E-16	9.064995E-18
6.260000E+03	1.676558E-16	9.225175E-18
6.270000E+03	1.706947E-16	9.387264E-18
6.280000E+03	1.737341E-16	9.549233E-18
6.290000E+03	1.767552E-16	9.710062E-18
6.300000E+03	1.797316E-16	9.868295E-18
6.310000E+03	1.826357E-16	1.002243E-17
6.320000E+03	1.854394E-16	1.017093E-17
6.330000E+03	1.881076E-16	1.031189E-17
6.340000E+03	1.906203E-16	1.044422E-17
6.350000E+03	1.929595E-16	1.056694E-17
6.360000E+03	1.950857E-16	1.067792E-17
6.370000E+03	1.969846E-16	1.077639E-17
6.380000E+03	1.986372E-16	1.086134E-17
6.390000E+03	2.000274E-16	1.093190E-17
6.400000E+03	2.011345E-16	1.098697E-17
6.410000E+03	2.019652E-16	1.102694E-17
6.420000E+03	2.024977E-16	1.105064E-17
6.430000E+03	2.027460E-16	1.105885E-17
6.440000E+03	2.026951E-16	1.105079E-17
6.450000E+03	2.023658E-16	1.102761E-17
6.460000E+03	2.017490E-16	1.098883E-17
6.470000E+03	2.008631E-16	1.093549E-17
6.480000E+03	1.997205E-16	1.086827E-17
6.490000E+03	1.983354E-16	1.078797E-17
6.500000E+03	1.967241E-16	1.069548E-17
6.510000E+03	1.949036E-16	1.059176E-17
6.520000E+03	1.928922E-16	1.047780E-17
6.530000E+03	1.907088E-16	1.035465E-17
6.540000E+03	1.883723E-16	1.022334E-17
6.550000E+03	1.859020E-16	1.008494E-17
6.560000E+03	1.833171E-16	9.940482E-18
6.570000E+03	1.806361E-16	9.790984E-18
6.580000E+03	1.778773E-16	9.637440E-18
6.590000E+03	1.750583E-16	9.480806E-18
6.600000E+03	1.721960E-16	9.322002E-18
6.610000E+03	1.693063E-16	9.161891E-18
6.620000E+03	1.664047E-16	9.001302E-18
6.630000E+03	1.635051E-16	8.840997E-18
6.640000E+03	1.606210E-16	8.681693E-18
6.650000E+03	1.577646E-16	8.524059E-18
6.660000E+03	1.549475E-16	8.368706E-18
6.670000E+03	1.521802E-16	8.216199E-18
6.680000E+03	1.494720E-16	8.067042E-18
6.690000E+03	1.468317E-16	7.921700E-18
6.700000E+03	1.442672E-16	7.780588E-18
6.710000E+03	1.417912E-16	7.644395E-18
6.720000E+03	1.393983E-16	7.512813E-18
6.730000E+03	1.370997E-16	7.386446E-18
6.740000E+03	1.349061E-16	7.265862E-18
6.750000E+03	1.328103E-16	7.150665E-18
6.760000E+03	1.308272E-16	7.041651E-18
6.770000E+03	1.289489E-16	6.938386E-18
6.780000E+03	1.271890E-16	6.841598E-18
6.790000E+03	1.255444E-16	6.751117E-18
6.800000E+03	1.240171E-16	6.667030E-18
6.810000E+03	1.226035E-16	6.589150E-18
6.820000E+03	1.213154E-16	6.518103E-18
6.830000E+03	1.201489E-16	6.453668E-18
6.840000E+03	1.191097E-16	6.396152E-18
6.850000E+03	1.181889E-16	6.345064E-18
6.860000E+03	1.173920E-16	6.300698E-18
6.870000E+03	1.167198E-16	6.263086E-18
6.880000E+03	1.161773E-16	6.232502E-18
6.890000E+03	1.157554E-16	6.208445E-18
6.900000E+03	1.154592E-16	6.191186E-18
6.910000E+03	1.152939E-16	6.180998E-18
6.920000E+03	1.152545E-16	6.177614E-18
6.930000E+03	1.153365E-16	6.180785E-18
6.940000E+03	1.155494E-16	6.191024E-18
6.950000E+03	1.158884E-16	6.208059E-18
6.960000E+03	1.163532E-16	6.231878E-18
6.970000E+03	1.169431E-16	6.262444E-18
6.980000E+03	1.176576E-16	6.299727E-18
6.990000E+03	1.184958E-16	6.343674E-18
7.000000E+03	1.194565E-16	6.394221E-18
7.010000E+03	1.205379E-16	6.451275E-18
7.020000E+03	1.217381E-16	6.514728E-18
7.030000E+03	1.230597E-16	6.584729E-18
7.040000E+03	1.244892E-16	6.660549E-18
7.050000E+03	1.260280E-16	6.742265E-18
7.060000E+03	1.276770E-16	6.829931E-18
7.070000E+03	1.294200E-16	6.922677E-18
7.080000E+03	1.312560E-16	7.020456E-18
7.090000E+03	1.331836E-16	7.123195E-18
7.100000E+03	1.351828E-16	7.229828E-18
7.110000E+03	1.372556E-16	7.340471E-18
7.120000E+03	1.393796E-16	7.453918E-18
7.130000E+03	1.415543E-16	7.570160E-18
7.140000E+03	1.437544E-16	7.687843E-18
7.150000E+03	1.459709E-16	7.806493E-18
7.160000E+03	1.481942E-16	7.925594E-18
7.170000E+03	1.503939E-16	8.043539E-18
7.180000E+03	1.525645E-16	8.160031E-18
7.190000E+03	1.546732E-16	8.273318E-18
7.200000E+03	1.567059E-16	8.382656E-18
7.210000E+03	1.586413E-16	8.486909E-18
7.220000E+03	1.604649E-16	8.585305E-18
7.230000E+03	1.621411E-16	8.675946E-18
7.240000E+03	1.636558E-16	8.758067E-18
7.250000E+03	1.649883E-16	8.830574E-18
7.260000E+03	1.661194E-16	8.892438E-18
7.270000E+03	1.670314E-16	8.942707E-18
7.280000E+03	1.677015E-16	8.980161E-18
7.290000E+03	1.681313E-16	9.004877E-18
7.300000E+03	1.683033E-16	9.015912E-18
7.310000E+03	1.682029E-16	9.012490E-18
7.320000E+03	1.678342E-16	8.994808E-18
7.330000E+03	1.671969E-16	8.962846E-18
7.340000E+03	1.663019E-16	8.917177E-18
7.350000E+03	1.651416E-16	8.857388E-18
7.360000E+03	1.637264E-16	8.784019E-18
7.370000E+03	1.620846E-16	8.698575E-18
7.380000E+03	1.602254E-16	8.601534E-18
7.390000E+03	1.581604E-16	8.493510E-18
7.400000E+03	1.559180E-16	8.376011E-18
7.410000E+03	1.535206E-16	8.250231E-18
7.420000E+03	1.509924E-16	8.117447E-18
7.430000E+03	1.483575E-16	7.978954E-18
7.440000E+03	1.456347E-16	7.835743E-18
7.450000E+03	1.428552E-16	7.689491E-18
7.460000E+03	1.400437E-16	7.541505E-18
7.470000E+03	1.372238E-16	7.393060E-18
7.480000E+03	1.344182E-16	7.245358E-18
7.490000E+03	1.316422E-16	7.099227E-18
7.500000E+03	1.289220E-16	6.956073E-18
7.510000E+03	1.262760E-16	6.816879E-18
7.520000E+03	1.237207E-16	6.682540E-18
7.530000E+03	1.212651E-16	6.553539E-18
7.540000E+03	1.189255E-16	6.430761E-18
7.550000E+03	1.167058E-16	6.314421E-18
7.560000E+03	1.146055E-16	6.204490E-18
7.570000E+03	1.126172E-16	6.100582E-18
7.580000E+03	1.107486E-16	6.003119E-18
7.590000E+03	1.089816E-16	5.911117E-18
7.600000E+03	1.073278E-16	5.825219E-18
7.610000E+03	1.057737E-16	5.744696E-18
7.620000E+03	1.043204E-16	5.669618E-18
7.630000E+03	1.029641E-16	5.599774E-18
7.640000E+03	1.016956E-16	5.534685E-18
7.650000E+03	1.005157E-16	5.474389E-18
7.660000E+03	9.942006E-17	5.418660E-18
7.670000E+03	9.839950E-17	5.367006E-18
7.680000E+03	9.745421E-17	5.319442E-18
7.690000E+03	9.657955E-17	5.275721E-18
7.700000E+03	9.576657E-17	5.235359E-18
7.710000E+03	9.501929E-17	5.198583E-18
7.720000E+03	9.431992E-17	5.164423E-18
7.730000E+03	9.367695E-17	5.133349E-18
7.740000E+03	9.307707E-17	5.104635E-18
7.750000E+03	9.251579E-17	5.078040E-18
7.760000E+03	9.199706E-17	5.053784E-18
