#wls	flux	fluxerr
1.600000E+03	1.497665E-16	8.728861E-18
1.640000E+03	1.531658E-16	8.924512E-18
1.680000E+03	1.565483E-16	9.118999E-18
1.720000E+03	1.599594E-16	9.314963E-18
1.760000E+03	1.633919E-16	9.511980E-18
1.800000E+03	1.667816E-16	9.706296E-18
1.840000E+03	1.702035E-16	9.902278E-18
1.880000E+03	1.735916E-16	1.009608E-17
1.920000E+03	1.769646E-16	1.028878E-17
1.960000E+03	1.803125E-16	1.047978E-17
2.000000E+03	1.836243E-16	1.066846E-17
2.040000E+03	1.868583E-16	1.085237E-17
2.080000E+03	1.900638E-16	1.103438E-17
2.120000E+03	1.932296E-16	1.121383E-17
2.160000E+03	1.962809E-16	1.138637E-17
2.200000E+03	1.992677E-16	1.155492E-17
2.240000E+03	2.021780E-16	1.171876E-17
2.280000E+03	2.049670E-16	1.187529E-17
2.320000E+03	2.076540E-16	1.202565E-17
2.360000E+03	2.102266E-16	1.216911E-17
2.400000E+03	2.127052E-16	1.230685E-17
2.440000E+03	2.150123E-16	1.243439E-17
2.480000E+03	2.172017E-16	1.255485E-17
2.520000E+03	2.192624E-16	1.266759E-17
2.560000E+03	2.211512E-16	1.277012E-17
2.600000E+03	2.228912E-16	1.286379E-17
2.640000E+03	2.244737E-16	1.294810E-17
2.680000E+03	2.259231E-16	1.302447E-17
2.720000E+03	2.272008E-16	1.309068E-17
2.760000E+03	2.283017E-16	1.314644E-17
2.800000E+03	2.292853E-16	1.319520E-17
2.840000E+03	2.300861E-16	1.323319E-17
2.880000E+03	2.307657E-16	1.326396E-17
2.920000E+03	2.312935E-16	1.328579E-17
2.960000E+03	2.316726E-16	1.329884E-17
3.000000E+03	2.319664E-16	1.330677E-17
3.010000E+03	2.320241E-16	1.330782E-17
3.020000E+03	2.320640E-16	1.330783E-17
3.030000E+03	2.320866E-16	1.330683E-17
3.040000E+03	2.321206E-16	1.330648E-17
3.050000E+03	2.321662E-16	1.330678E-17
3.060000E+03	2.321659E-16	1.330443E-17
3.070000E+03	2.321773E-16	1.330275E-17
3.080000E+03	2.322004E-16	1.330172E-17
3.090000E+03	2.322069E-16	1.329972E-17
3.100000E+03	2.321970E-16	1.329677E-17
3.110000E+03	2.321990E-16	1.329450E-17
3.120000E+03	2.321848E-16	1.329128E-17
3.130000E+03	2.321549E-16	1.328715E-17
3.140000E+03	2.321372E-16	1.328371E-17
3.150000E+03	2.321314E-16	1.328093E-17
3.160000E+03	2.320830E-16	1.327571E-17
3.170000E+03	2.320742E-16	1.327274E-17
3.180000E+03	2.320234E-16	1.326735E-17
3.190000E+03	2.319850E-16	1.326267E-17
3.200000E+03	2.319591E-16	1.325868E-17
3.210000E+03	2.319189E-16	1.325387E-17
3.220000E+03	2.318647E-16	1.324824E-17
3.230000E+03	2.318233E-16	1.324334E-17
3.240000E+03	2.317683E-16	1.323764E-17
3.250000E+03	2.317262E-16	1.323267E-17
3.260000E+03	2.316709E-16	1.322693E-17
3.270000E+03	2.316026E-16	1.322044E-17
3.280000E+03	2.315475E-16	1.321469E-17
3.290000E+03	2.315056E-16	1.320968E-17
3.300000E+03	2.314512E-16	1.320394E-17
3.310000E+03	2.313845E-16	1.319750E-17
3.320000E+03	2.313314E-16	1.319181E-17
3.330000E+03	2.312663E-16	1.318544E-17
3.340000E+03	2.312148E-16	1.317982E-17
3.350000E+03	2.311517E-16	1.317353E-17
3.360000E+03	2.311022E-16	1.316800E-17
3.370000E+03	2.310416E-16	1.316184E-17
3.380000E+03	2.309945E-16	1.315642E-17
3.390000E+03	2.309366E-16	1.315038E-17
3.400000E+03	2.308923E-16	1.314510E-17
3.410000E+03	2.308375E-16	1.313922E-17
3.420000E+03	2.307724E-16	1.313273E-17
3.430000E+03	2.307212E-16	1.312702E-17
3.440000E+03	2.306835E-16	1.312208E-17
3.450000E+03	2.306359E-16	1.311655E-17
3.460000E+03	2.305785E-16	1.311045E-17
3.470000E+03	2.305349E-16	1.310513E-17
3.480000E+03	2.305050E-16	1.310057E-17
3.490000E+03	2.304655E-16	1.309546E-17
3.500000E+03	2.304168E-16	1.308981E-17
3.510000E+03	2.303820E-16	1.308494E-17
3.520000E+03	2.303380E-16	1.307953E-17
3.530000E+03	2.303079E-16	1.307490E-17
3.540000E+03	2.302688E-16	1.306975E-17
3.550000E+03	2.302436E-16	1.306537E-17
3.560000E+03	2.302098E-16	1.306050E-17
3.570000E+03	2.301897E-16	1.305638E-17
3.580000E+03	2.301613E-16	1.305178E-17
3.590000E+03	2.301465E-16	1.304795E-17
3.600000E+03	2.301237E-16	1.304365E-17
3.610000E+03	2.301146E-16	1.304010E-17
3.620000E+03	2.300977E-16	1.303611E-17
3.630000E+03	2.300943E-16	1.303287E-17
3.640000E+03	2.300834E-16	1.302919E-17
3.650000E+03	2.300651E-16	1.302507E-17
3.660000E+03	2.300606E-16	1.302173E-17
3.670000E+03	2.300698E-16	1.301914E-17
3.680000E+03	2.300718E-16	1.301615E-17
3.690000E+03	2.300670E-16	1.301274E-17
3.700000E+03	2.300757E-16	1.301009E-17
3.710000E+03	2.300778E-16	1.300706E-17
3.720000E+03	2.300937E-16	1.300478E-17
3.730000E+03	2.301030E-16	1.300213E-17
3.740000E+03	2.301261E-16	1.300024E-17
3.750000E+03	2.301427E-16	1.299796E-17
3.760000E+03	2.301532E-16	1.299534E-17
3.770000E+03	2.301773E-16	1.299346E-17
3.780000E+03	2.301954E-16	1.299123E-17
3.790000E+03	2.302271E-16	1.298976E-17
3.800000E+03	2.302528E-16	1.298793E-17
3.810000E+03	2.302919E-16	1.298685E-17
3.820000E+03	2.303252E-16	1.298543E-17
3.830000E+03	2.303528E-16	1.298367E-17
3.840000E+03	2.303937E-16	1.298264E-17
3.850000E+03	2.304289E-16	1.298128E-17
3.860000E+03	2.304773E-16	1.298066E-17
3.870000E+03	2.305015E-16	1.297865E-17
3.880000E+03	2.305574E-16	1.297841E-17
3.890000E+03	2.305893E-16	1.297682E-17
3.900000E+03	2.306342E-16	1.297593E-17
3.910000E+03	2.306736E-16	1.297473E-17
3.920000E+03	2.307257E-16	1.297422E-17
3.930000E+03	2.307720E-16	1.297338E-17
3.940000E+03	2.308125E-16	1.297219E-17
3.950000E+03	2.308647E-16	1.297165E-17
3.960000E+03	2.308927E-16	1.296974E-17
3.970000E+03	2.309489E-16	1.296939E-17
3.980000E+03	2.309798E-16	1.296761E-17
3.990000E+03	2.310199E-16	1.296634E-17
4.000000E+03	2.310509E-16	1.296454E-17
4.010000E+03	2.310722E-16	1.296218E-17
4.020000E+03	2.310828E-16	1.295922E-17
4.030000E+03	2.310995E-16	1.295658E-17
4.040000E+03	2.311042E-16	1.295326E-17
4.050000E+03	2.310966E-16	1.294923E-17
4.060000E+03	2.310764E-16	1.294448E-17
4.070000E+03	2.310431E-16	1.293900E-17
4.080000E+03	2.310138E-16	1.293372E-17
4.090000E+03	2.309716E-16	1.292772E-17
4.100000E+03	2.309010E-16	1.292011E-17
4.110000E+03	2.308515E-16	1.291368E-17
4.120000E+03	2.307753E-16	1.290574E-17
4.130000E+03	2.306899E-16	1.289728E-17
4.140000E+03	2.305967E-16	1.288838E-17
4.150000E+03	2.305133E-16	1.288001E-17
4.160000E+03	2.304094E-16	1.287049E-17
4.170000E+03	2.303187E-16	1.286170E-17
4.180000E+03	2.302271E-16	1.285285E-17
4.190000E+03	2.301210E-16	1.284319E-17
4.200000E+03	2.300335E-16	1.283455E-17
4.210000E+03	2.299507E-16	1.282618E-17
4.220000E+03	2.298593E-16	1.281731E-17
4.230000E+03	2.297913E-16	1.280974E-17
4.240000E+03	2.297331E-16	1.280271E-17
4.250000E+03	2.296709E-16	1.279545E-17
4.260000E+03	2.296361E-16	1.278970E-17
4.270000E+03	2.295998E-16	1.278386E-17
4.280000E+03	2.295926E-16	1.277964E-17
4.290000E+03	2.295856E-16	1.277542E-17
4.300000E+03	2.295944E-16	1.277206E-17
4.310000E+03	2.296192E-16	1.276959E-17
4.320000E+03	2.296604E-16	1.276801E-17
4.330000E+03	2.297181E-16	1.276735E-17
4.340000E+03	2.297923E-16	1.276759E-17
4.350000E+03	2.298687E-16	1.276794E-17
4.360000E+03	2.299617E-16	1.276920E-17
4.370000E+03	2.300710E-16	1.277136E-17
4.380000E+03	2.301965E-16	1.277440E-17
4.390000E+03	2.303240E-16	1.277753E-17
4.400000E+03	2.304816E-16	1.278233E-17
4.410000E+03	2.306408E-16	1.278720E-17
4.420000E+03	2.308157E-16	1.279293E-17
4.430000E+03	2.309921E-16	1.279872E-17
4.440000E+03	2.311838E-16	1.280535E-17
4.450000E+03	2.313898E-16	1.281276E-17
4.460000E+03	2.316097E-16	1.282092E-17
4.470000E+03	2.318285E-16	1.282901E-17
4.480000E+03	2.320588E-16	1.283771E-17
4.490000E+03	2.322850E-16	1.284618E-17
4.500000E+03	2.325188E-16	1.285505E-17
4.510000E+03	2.327578E-16	1.286419E-17
4.520000E+03	2.329854E-16	1.287269E-17
4.530000E+03	2.332122E-16	1.288112E-17
4.540000E+03	2.334212E-16	1.288856E-17
4.550000E+03	2.336221E-16	1.289554E-17
4.560000E+03	2.338110E-16	1.290185E-17
4.570000E+03	2.339706E-16	1.290653E-17
4.580000E+03	2.341105E-16	1.291010E-17
4.590000E+03	2.342136E-16	1.291164E-17
4.600000E+03	2.342896E-16	1.291168E-17
4.610000E+03	2.343227E-16	1.290934E-17
4.620000E+03	2.343105E-16	1.290450E-17
4.630000E+03	2.342644E-16	1.289780E-17
4.640000E+03	2.341838E-16	1.288918E-17
4.650000E+03	2.340553E-16	1.287794E-17
4.660000E+03	2.338928E-16	1.286482E-17
4.670000E+03	2.336848E-16	1.284920E-17
4.680000E+03	2.334333E-16	1.283120E-17
4.690000E+03	2.331537E-16	1.281166E-17
4.700000E+03	2.328362E-16	1.279003E-17
4.710000E+03	2.324966E-16	1.276721E-17
4.720000E+03	2.321260E-16	1.274269E-17
4.730000E+03	2.317404E-16	1.271736E-17
4.740000E+03	2.313193E-16	1.269009E-17
4.750000E+03	2.309034E-16	1.266312E-17
4.760000E+03	2.304599E-16	1.263465E-17
4.770000E+03	2.300169E-16	1.260622E-17
4.780000E+03	2.295779E-16	1.257802E-17
4.790000E+03	2.291341E-16	1.254957E-17
4.800000E+03	2.286890E-16	1.252107E-17
4.810000E+03	2.282460E-16	1.249269E-17
4.820000E+03	2.278202E-16	1.246527E-17
4.830000E+03	2.274026E-16	1.243831E-17
4.840000E+03	2.270078E-16	1.241260E-17
4.850000E+03	2.266261E-16	1.238763E-17
4.860000E+03	2.262601E-16	1.236352E-17
4.870000E+03	2.259112E-16	1.234037E-17
4.880000E+03	2.255927E-16	1.231888E-17
4.890000E+03	2.252942E-16	1.229849E-17
4.900000E+03	2.250279E-16	1.227986E-17
4.910000E+03	2.247830E-16	1.226242E-17
4.920000E+03	2.245601E-16	1.224617E-17
4.930000E+03	2.243594E-16	1.223115E-17
4.940000E+03	2.241925E-16	1.221797E-17
4.950000E+03	2.240478E-16	1.220600E-17
4.960000E+03	2.239363E-16	1.219585E-17
4.970000E+03	2.238351E-16	1.218626E-17
4.980000E+03	2.237768E-16	1.217901E-17
4.990000E+03	2.237270E-16	1.217222E-17
5.000000E+03	2.237067E-16	1.216703E-17
5.010000E+03	2.237029E-16	1.216274E-17
5.020000E+03	2.237139E-16	1.215926E-17
5.030000E+03	2.237380E-16	1.215648E-17
5.040000E+03	2.237842E-16	1.215490E-17
5.050000E+03	2.238506E-16	1.215442E-17
5.060000E+03	2.239134E-16	1.215373E-17
5.070000E+03	2.239928E-16	1.215395E-17
5.080000E+03	2.240763E-16	1.215438E-17
5.090000E+03	2.241732E-16	1.215554E-17
5.100000E+03	2.242602E-16	1.215615E-17
5.110000E+03	2.243573E-16	1.215731E-17
5.120000E+03	2.244631E-16	1.215893E-17
5.130000E+03	2.245642E-16	1.216030E-17
5.140000E+03	2.246585E-16	1.216129E-17
5.150000E+03	2.247432E-16	1.216176E-17
5.160000E+03	2.248259E-16	1.216213E-17
5.170000E+03	2.248922E-16	1.216159E-17
5.180000E+03	2.249377E-16	1.215994E-17
5.190000E+03	2.249685E-16	1.215749E-17
5.200000E+03	2.249689E-16	1.215339E-17
5.210000E+03	2.249336E-16	1.214737E-17
5.220000E+03	2.248679E-16	1.213971E-17
5.230000E+03	2.247556E-16	1.212954E-17
5.240000E+03	2.246022E-16	1.211715E-17
5.250000E+03	2.243805E-16	1.210110E-17
5.260000E+03	2.241179E-16	1.208284E-17
5.270000E+03	2.237768E-16	1.206037E-17
5.280000E+03	2.233739E-16	1.203458E-17
5.290000E+03	2.228937E-16	1.200464E-17
5.300000E+03	2.223421E-16	1.197088E-17
5.310000E+03	2.217042E-16	1.193250E-17
5.320000E+03	2.209759E-16	1.188928E-17
5.330000E+03	2.201641E-16	1.184160E-17
5.340000E+03	2.192550E-16	1.178872E-17
5.350000E+03	2.182458E-16	1.173050E-17
5.360000E+03	2.171451E-16	1.166740E-17
5.370000E+03	2.159409E-16	1.159879E-17
5.380000E+03	2.146428E-16	1.152518E-17
5.390000E+03	2.132405E-16	1.144603E-17
5.400000E+03	2.117448E-16	1.136192E-17
5.410000E+03	2.101466E-16	1.127237E-17
5.420000E+03	2.084479E-16	1.117749E-17
5.430000E+03	2.066607E-16	1.107795E-17
5.440000E+03	2.047784E-16	1.097337E-17
5.450000E+03	2.028137E-16	1.086445E-17
5.460000E+03	2.007609E-16	1.075089E-17
5.470000E+03	1.986244E-16	1.063292E-17
5.480000E+03	1.964180E-16	1.051130E-17
5.490000E+03	1.941379E-16	1.038582E-17
5.500000E+03	1.917986E-16	1.025726E-17
5.510000E+03	1.894060E-16	1.012594E-17
5.520000E+03	1.869488E-16	9.991267E-18
5.530000E+03	1.844606E-16	9.855020E-18
5.540000E+03	1.819223E-16	9.716197E-18
5.550000E+03	1.793673E-16	9.576584E-18
5.560000E+03	1.767783E-16	9.435247E-18
5.570000E+03	1.741885E-16	9.293964E-18
5.580000E+03	1.715813E-16	9.151853E-18
5.590000E+03	1.689814E-16	9.010230E-18
5.600000E+03	1.663968E-16	8.869522E-18
5.610000E+03	1.638278E-16	8.729741E-18
5.620000E+03	1.612899E-16	8.591716E-18
5.630000E+03	1.587831E-16	8.455443E-18
5.640000E+03	1.563223E-16	8.321714E-18
5.650000E+03	1.539142E-16	8.190881E-18
5.660000E+03	1.515584E-16	8.062917E-18
5.670000E+03	1.492608E-16	7.938144E-18
5.680000E+03	1.470346E-16	7.817250E-18
5.690000E+03	1.448779E-16	7.700133E-18
5.700000E+03	1.428089E-16	7.587758E-18
5.710000E+03	1.408114E-16	7.479263E-18
5.720000E+03	1.389088E-16	7.375884E-18
5.730000E+03	1.370844E-16	7.276723E-18
5.740000E+03	1.353595E-16	7.182913E-18
5.750000E+03	1.337226E-16	7.093841E-18
5.760000E+03	1.321745E-16	7.009545E-18
5.770000E+03	1.307275E-16	6.930664E-18
5.780000E+03	1.293685E-16	6.856503E-18
5.790000E+03	1.280965E-16	6.787010E-18
5.800000E+03	1.269158E-16	6.722403E-18
5.810000E+03	1.258242E-16	6.662563E-18
5.820000E+03	1.248137E-16	6.607060E-18
5.830000E+03	1.238876E-16	6.556068E-18
5.840000E+03	1.230434E-16	6.509446E-18
5.850000E+03	1.222728E-16	6.466756E-18
5.860000E+03	1.215791E-16	6.428173E-18
5.870000E+03	1.209547E-16	6.393279E-18
5.880000E+03	1.204087E-16	6.362563E-18
5.890000E+03	1.199283E-16	6.335335E-18
5.900000E+03	1.195118E-16	6.311515E-18
5.910000E+03	1.191642E-16	6.291353E-18
5.920000E+03	1.188844E-16	6.274794E-18
5.930000E+03	1.186721E-16	6.261823E-18
5.940000E+03	1.185219E-16	6.252142E-18
5.950000E+03	1.184397E-16	6.246066E-18
5.960000E+03	1.184262E-16	6.243625E-18
5.970000E+03	1.184769E-16	6.244585E-18
5.980000E+03	1.186042E-16	6.249596E-18
5.990000E+03	1.187989E-16	6.258167E-18
6.000000E+03	1.190632E-16	6.270411E-18
6.010000E+03	1.194108E-16	6.287051E-18
6.020000E+03	1.198333E-16	6.307640E-18
6.030000E+03	1.203343E-16	6.332359E-18
6.040000E+03	1.209288E-16	6.362003E-18
6.050000E+03	1.216098E-16	6.396199E-18
6.060000E+03	1.223938E-16	6.435805E-18
6.070000E+03	1.232687E-16	6.480192E-18
6.080000E+03	1.242578E-16	6.530572E-18
6.090000E+03	1.253558E-16	6.586669E-18
6.100000E+03	1.265812E-16	6.649449E-18
6.110000E+03	1.279291E-16	6.718650E-18
6.120000E+03	1.294061E-16	6.794616E-18
6.130000E+03	1.310312E-16	6.878342E-18
6.140000E+03	1.327987E-16	6.969525E-18
6.150000E+03	1.347208E-16	7.068793E-18
6.160000E+03	1.368029E-16	7.176436E-18
6.170000E+03	1.390494E-16	7.292677E-18
6.180000E+03	1.414640E-16	7.417704E-18
6.190000E+03	1.440420E-16	7.551265E-18
6.200000E+03	1.467902E-16	7.693714E-18
6.210000E+03	1.497068E-16	7.844957E-18
6.220000E+03	1.527871E-16	8.004743E-18
6.230000E+03	1.560235E-16	8.172666E-18
6.240000E+03	1.594036E-16	8.348082E-18
6.250000E+03	1.629023E-16	8.529665E-18
6.260000E+03	1.665031E-16	8.716557E-18
6.270000E+03	1.701853E-16	8.907667E-18
6.280000E+03	1.738995E-16	9.100421E-18
6.290000E+03	1.776081E-16	9.292839E-18
6.300000E+03	1.812875E-16	9.483697E-18
6.310000E+03	1.848876E-16	9.670372E-18
6.320000E+03	1.883567E-16	9.850166E-18
6.330000E+03	1.916704E-16	1.002182E-17
6.340000E+03	1.947708E-16	1.018229E-17
6.350000E+03	1.976297E-16	1.033012E-17
6.360000E+03	2.002147E-16	1.046363E-17
6.370000E+03	2.024978E-16	1.058136E-17
6.380000E+03	2.044563E-16	1.068214E-17
6.390000E+03	2.060738E-16	1.076510E-17
6.400000E+03	2.073389E-16	1.082967E-17
6.410000E+03	2.082361E-16	1.087505E-17
6.420000E+03	2.087855E-16	1.090229E-17
6.430000E+03	2.089718E-16	1.091060E-17
6.440000E+03	2.088144E-16	1.090100E-17
6.450000E+03	2.083368E-16	1.087473E-17
6.460000E+03	2.075350E-16	1.083158E-17
6.470000E+03	2.064380E-16	1.077307E-17
6.480000E+03	2.050662E-16	1.070027E-17
6.490000E+03	2.034410E-16	1.061430E-17
6.500000E+03	2.015845E-16	1.051631E-17
6.510000E+03	1.995184E-16	1.040745E-17
6.520000E+03	1.972645E-16	1.028885E-17
6.530000E+03	1.948438E-16	1.016160E-17
6.540000E+03	1.922769E-16	1.002679E-17
6.550000E+03	1.895832E-16	9.885427E-18
6.560000E+03	1.867822E-16	9.738520E-18
6.570000E+03	1.838831E-16	9.586557E-18
6.580000E+03	1.809214E-16	9.431388E-18
6.590000E+03	1.779049E-16	9.273415E-18
6.600000E+03	1.748412E-16	9.113034E-18
6.610000E+03	1.717625E-16	8.951927E-18
6.620000E+03	1.686748E-16	8.790398E-18
6.630000E+03	1.655834E-16	8.628731E-18
6.640000E+03	1.625177E-16	8.468447E-18
6.650000E+03	1.594814E-16	8.309739E-18
6.660000E+03	1.564777E-16	8.152778E-18
6.670000E+03	1.535328E-16	7.998918E-18
6.680000E+03	1.506406E-16	7.847846E-18
6.690000E+03	1.478249E-16	7.700799E-18
6.700000E+03	1.450859E-16	7.557784E-18
6.710000E+03	1.424236E-16	7.418802E-18
6.720000E+03	1.398586E-16	7.284920E-18
6.730000E+03	1.373822E-16	7.155689E-18
6.740000E+03	1.350131E-16	7.032071E-18
6.750000E+03	1.327485E-16	6.913931E-18
6.760000E+03	1.305855E-16	6.801106E-18
6.770000E+03	1.285401E-16	6.694433E-18
6.780000E+03	1.266082E-16	6.593698E-18
6.790000E+03	1.247859E-16	6.498693E-18
6.800000E+03	1.230874E-16	6.410158E-18
6.810000E+03	1.215079E-16	6.327843E-18
6.820000E+03	1.200430E-16	6.251512E-18
6.830000E+03	1.187057E-16	6.181854E-18
6.840000E+03	1.174912E-16	6.118606E-18
6.850000E+03	1.164002E-16	6.061815E-18
6.860000E+03	1.154281E-16	6.011229E-18
6.870000E+03	1.145871E-16	5.967490E-18
6.880000E+03	1.138722E-16	5.930332E-18
6.890000E+03	1.132838E-16	5.899788E-18
6.900000E+03	1.128228E-16	5.875891E-18
6.910000E+03	1.124840E-16	5.858380E-18
6.920000E+03	1.122794E-16	5.847873E-18
6.930000E+03	1.122039E-16	5.844109E-18
6.940000E+03	1.122581E-16	5.847122E-18
6.950000E+03	1.124426E-16	5.856937E-18
6.960000E+03	1.127581E-16	5.873599E-18
6.970000E+03	1.132049E-16	5.897121E-18
6.980000E+03	1.137779E-16	5.927239E-18
6.990000E+03	1.144886E-16	5.964552E-18
7.000000E+03	1.153314E-16	6.008771E-18
7.010000E+03	1.163063E-16	6.059897E-18
7.020000E+03	1.174126E-16	6.117901E-18
7.030000E+03	1.186496E-16	6.182738E-18
7.040000E+03	1.200160E-16	6.254349E-18
7.050000E+03	1.215100E-16	6.332638E-18
7.060000E+03	1.231288E-16	6.417469E-18
7.070000E+03	1.248630E-16	6.508347E-18
7.080000E+03	1.267209E-16	6.605711E-18
7.090000E+03	1.286915E-16	6.708987E-18
7.100000E+03	1.307683E-16	6.817841E-18
7.110000E+03	1.329442E-16	6.931906E-18
7.120000E+03	1.352036E-16	7.050373E-18
7.130000E+03	1.375504E-16	7.173442E-18
7.140000E+03	1.399663E-16	7.300170E-18
7.150000E+03	1.424312E-16	7.429499E-18
7.160000E+03	1.449445E-16	7.561413E-18
7.170000E+03	1.474751E-16	7.694282E-18
7.180000E+03	1.500196E-16	7.827935E-18
7.190000E+03	1.525418E-16	7.960490E-18
7.200000E+03	1.550354E-16	8.091605E-18
7.210000E+03	1.574598E-16	8.219174E-18
7.220000E+03	1.597970E-16	8.342255E-18
7.230000E+03	1.620195E-16	8.459415E-18
7.240000E+03	1.641075E-16	8.569609E-18
7.250000E+03	1.660153E-16	8.670458E-18
7.260000E+03	1.677226E-16	8.760897E-18
7.270000E+03	1.691933E-16	8.839034E-18
7.280000E+03	1.704191E-16	8.904435E-18
7.290000E+03	1.713687E-16	8.955457E-18
7.300000E+03	1.720232E-16	8.991104E-18
7.310000E+03	1.723590E-16	9.010146E-18
7.320000E+03	1.723848E-16	9.013014E-18
7.330000E+03	1.720788E-16	8.998571E-18
7.340000E+03	1.714515E-16	8.967354E-18
7.350000E+03	1.705100E-16	8.919729E-18
7.360000E+03	1.692662E-16	8.856307E-18
7.370000E+03	1.677365E-16	8.777935E-18
7.380000E+03	1.659410E-16	8.685654E-18
7.390000E+03	1.638939E-16	8.580207E-18
7.400000E+03	1.616381E-16	8.463823E-18
7.410000E+03	1.591835E-16	8.337015E-18
7.420000E+03	1.565669E-16	8.201703E-18
7.430000E+03	1.538169E-16	8.059383E-18
7.440000E+03	1.509625E-16	7.911564E-18
7.450000E+03	1.480322E-16	7.759732E-18
7.460000E+03	1.450463E-16	7.604951E-18
7.470000E+03	1.420472E-16	7.449440E-18
7.480000E+03	1.390452E-16	7.293736E-18
7.490000E+03	1.360720E-16	7.139504E-18
7.500000E+03	1.331498E-16	6.987899E-18
7.510000E+03	1.302984E-16	6.839967E-18
7.520000E+03	1.275287E-16	6.696280E-18
7.530000E+03	1.248693E-16	6.558337E-18
7.540000E+03	1.223179E-16	6.426023E-18
7.550000E+03	1.198880E-16	6.300046E-18
7.560000E+03	1.175759E-16	6.180222E-18
7.570000E+03	1.153951E-16	6.067259E-18
7.580000E+03	1.133325E-16	5.960466E-18
7.590000E+03	1.113925E-16	5.860089E-18
7.600000E+03	1.095726E-16	5.765996E-18
7.610000E+03	1.078695E-16	5.678021E-18
7.620000E+03	1.062797E-16	5.595975E-18
7.630000E+03	1.047935E-16	5.519353E-18
7.640000E+03	1.034124E-16	5.448247E-18
7.650000E+03	1.021319E-16	5.382417E-18
7.660000E+03	1.009419E-16	5.321328E-18
7.670000E+03	9.984828E-17	5.265307E-18
7.680000E+03	9.883513E-17	5.213510E-18
7.690000E+03	9.790242E-17	5.165940E-18
7.700000E+03	9.703941E-17	5.122034E-18
7.710000E+03	9.625073E-17	5.082039E-18
7.720000E+03	9.552013E-17	5.045100E-18
7.730000E+03	9.484691E-17	5.011182E-18
7.740000E+03	9.422005E-17	4.979705E-18
7.750000E+03	9.364405E-17	4.950909E-18
7.760000E+03	9.310301E-17	4.923956E-18
