#wls	flux	fluxerr
1.600000E+03	1.376819E-16	6.008027E-18
1.640000E+03	1.408374E-16	6.145166E-18
1.680000E+03	1.439851E-16	6.281925E-18
1.720000E+03	1.471676E-16	6.420164E-18
1.760000E+03	1.503536E-16	6.558506E-18
1.800000E+03	1.535616E-16	6.697768E-18
1.840000E+03	1.567584E-16	6.836494E-18
1.880000E+03	1.599353E-16	6.974306E-18
1.920000E+03	1.631109E-16	7.112010E-18
1.960000E+03	1.662767E-16	7.249236E-18
2.000000E+03	1.693960E-16	7.384386E-18
2.040000E+03	1.724869E-16	7.518241E-18
2.080000E+03	1.755687E-16	7.651648E-18
2.120000E+03	1.785742E-16	7.781674E-18
2.160000E+03	1.815217E-16	7.909111E-18
2.200000E+03	1.844302E-16	8.034795E-18
2.240000E+03	1.872600E-16	8.156992E-18
2.280000E+03	1.900002E-16	8.275229E-18
2.320000E+03	1.926704E-16	8.390353E-18
2.360000E+03	1.952300E-16	8.500603E-18
2.400000E+03	1.976990E-16	8.606849E-18
2.440000E+03	2.000674E-16	8.708652E-18
2.480000E+03	2.023258E-16	8.805606E-18
2.520000E+03	2.044650E-16	8.897312E-18
2.560000E+03	2.065069E-16	8.984723E-18
2.600000E+03	2.083824E-16	9.064834E-18
2.640000E+03	2.101761E-16	9.141327E-18
2.680000E+03	2.117898E-16	9.209932E-18
2.720000E+03	2.133099E-16	9.274406E-18
2.760000E+03	2.147012E-16	9.333221E-18
2.800000E+03	2.159301E-16	9.384923E-18
2.840000E+03	2.170548E-16	9.432041E-18
2.880000E+03	2.180737E-16	9.474505E-18
2.920000E+03	2.189280E-16	9.509760E-18
2.960000E+03	2.197068E-16	9.541689E-18
3.000000E+03	2.203544E-16	9.567868E-18
3.010000E+03	2.205069E-16	9.573994E-18
3.020000E+03	2.206443E-16	9.579468E-18
3.030000E+03	2.207669E-16	9.584289E-18
3.040000E+03	2.209029E-16	9.589695E-18
3.050000E+03	2.210242E-16	9.594457E-18
3.060000E+03	2.211590E-16	9.599799E-18
3.070000E+03	2.212511E-16	9.603288E-18
3.080000E+03	2.213568E-16	9.607366E-18
3.090000E+03	2.214760E-16	9.612024E-18
3.100000E+03	2.215533E-16	9.614862E-18
3.110000E+03	2.216443E-16	9.618289E-18
3.120000E+03	2.217487E-16	9.622296E-18
3.130000E+03	2.218118E-16	9.624511E-18
3.140000E+03	2.218887E-16	9.627319E-18
3.150000E+03	2.219792E-16	9.630712E-18
3.160000E+03	2.220560E-16	9.633513E-18
3.170000E+03	2.221196E-16	9.635736E-18
3.180000E+03	2.221699E-16	9.637380E-18
3.190000E+03	2.222341E-16	9.639622E-18
3.200000E+03	2.222853E-16	9.641300E-18
3.210000E+03	2.223237E-16	9.642418E-18
3.220000E+03	2.223760E-16	9.644135E-18
3.230000E+03	2.224157E-16	9.645305E-18
3.240000E+03	2.224693E-16	9.647074E-18
3.250000E+03	2.224844E-16	9.647172E-18
3.260000E+03	2.225395E-16	9.649002E-18
3.270000E+03	2.225566E-16	9.649180E-18
3.280000E+03	2.225876E-16	9.649961E-18
3.290000E+03	2.226069E-16	9.650228E-18
3.300000E+03	2.226402E-16	9.651102E-18
3.310000E+03	2.226618E-16	9.651468E-18
3.320000E+03	2.226720E-16	9.651334E-18
3.330000E+03	2.226964E-16	9.651812E-18
3.340000E+03	2.227094E-16	9.651796E-18
3.350000E+03	2.227114E-16	9.651303E-18
3.360000E+03	2.227275E-16	9.651412E-18
3.370000E+03	2.227327E-16	9.651050E-18
3.380000E+03	2.227517E-16	9.651286E-18
3.390000E+03	2.227602E-16	9.651059E-18
3.400000E+03	2.227581E-16	9.650374E-18
3.410000E+03	2.227700E-16	9.650292E-18
3.420000E+03	2.227715E-16	9.649757E-18
3.430000E+03	2.227628E-16	9.648773E-18
3.440000E+03	2.227680E-16	9.648396E-18
3.450000E+03	2.227632E-16	9.647580E-18
3.460000E+03	2.227484E-16	9.646330E-18
3.470000E+03	2.227477E-16	9.645686E-18
3.480000E+03	2.227606E-16	9.645630E-18
3.490000E+03	2.227404E-16	9.644136E-18
3.500000E+03	2.227340E-16	9.643239E-18
3.510000E+03	2.227182E-16	9.641931E-18
3.520000E+03	2.227162E-16	9.641220E-18
3.530000E+03	2.227049E-16	9.640102E-18
3.540000E+03	2.227073E-16	9.639577E-18
3.550000E+03	2.226778E-16	9.637669E-18
3.560000E+03	2.226847E-16	9.637334E-18
3.570000E+03	2.226602E-16	9.635635E-18
3.580000E+03	2.226495E-16	9.634533E-18
3.590000E+03	2.226301E-16	9.633052E-18
3.600000E+03	2.226245E-16	9.632164E-18
3.610000E+03	2.226103E-16	9.630905E-18
3.620000E+03	2.225880E-16	9.629291E-18
3.630000E+03	2.225793E-16	9.628265E-18
3.640000E+03	2.225627E-16	9.626891E-18
3.650000E+03	2.225382E-16	9.625176E-18
3.660000E+03	2.225276E-16	9.624058E-18
3.670000E+03	2.225092E-16	9.622602E-18
3.680000E+03	2.224834E-16	9.620827E-18
3.690000E+03	2.224718E-16	9.619657E-18
3.700000E+03	2.224529E-16	9.618174E-18
3.710000E+03	2.224270E-16	9.616385E-18
3.720000E+03	2.224154E-16	9.615211E-18
3.730000E+03	2.223970E-16	9.613741E-18
3.740000E+03	2.223723E-16	9.611998E-18
3.750000E+03	2.223620E-16	9.610873E-18
3.760000E+03	2.223455E-16	9.609481E-18
3.770000E+03	2.223233E-16	9.607838E-18
3.780000E+03	2.222955E-16	9.605950E-18
3.790000E+03	2.222826E-16	9.604709E-18
3.800000E+03	2.222846E-16	9.604104E-18
3.810000E+03	2.222617E-16	9.602421E-18
3.820000E+03	2.222540E-16	9.601399E-18
3.830000E+03	2.222421E-16	9.600186E-18
3.840000E+03	2.222262E-16	9.598801E-18
3.850000E+03	2.222261E-16	9.598098E-18
3.860000E+03	2.222033E-16	9.596410E-18
3.870000E+03	2.221970E-16	9.595436E-18
3.880000E+03	2.222073E-16	9.595176E-18
3.890000E+03	2.221964E-16	9.593995E-18
3.900000E+03	2.222029E-16	9.593564E-18
3.910000E+03	2.222082E-16	9.593080E-18
3.920000E+03	2.222128E-16	9.592566E-18
3.930000E+03	2.222361E-16	9.592856E-18
3.940000E+03	2.222596E-16	9.593152E-18
3.950000E+03	2.222835E-16	9.593463E-18
3.960000E+03	2.223078E-16	9.593789E-18
3.970000E+03	2.223322E-16	9.594117E-18
3.980000E+03	2.223565E-16	9.594436E-18
3.990000E+03	2.223979E-16	9.595496E-18
4.000000E+03	2.224377E-16	9.596480E-18
4.010000E+03	2.224748E-16	9.597351E-18
4.020000E+03	2.225088E-16	9.598082E-18
4.030000E+03	2.225387E-16	9.598636E-18
4.040000E+03	2.225815E-16	9.599744E-18
4.050000E+03	2.226010E-16	9.599841E-18
4.060000E+03	2.226319E-16	9.600431E-18
4.070000E+03	2.226560E-16	9.600727E-18
4.080000E+03	2.226732E-16	9.600724E-18
4.090000E+03	2.226836E-16	9.600422E-18
4.100000E+03	2.226873E-16	9.599834E-18
4.110000E+03	2.226851E-16	9.598989E-18
4.120000E+03	2.226779E-16	9.597927E-18
4.130000E+03	2.226840E-16	9.597431E-18
4.140000E+03	2.226708E-16	9.596109E-18
4.150000E+03	2.226571E-16	9.594761E-18
4.160000E+03	2.226615E-16	9.594189E-18
4.170000E+03	2.226522E-16	9.593028E-18
4.180000E+03	2.226646E-16	9.592802E-18
4.190000E+03	2.226671E-16	9.592145E-18
4.200000E+03	2.226783E-16	9.591863E-18
4.210000E+03	2.227162E-16	9.592730E-18
4.220000E+03	2.227494E-16	9.593394E-18
4.230000E+03	2.228121E-16	9.595324E-18
4.240000E+03	2.228728E-16	9.597164E-18
4.250000E+03	2.229487E-16	9.599661E-18
4.260000E+03	2.230407E-16	9.602851E-18
4.270000E+03	2.231493E-16	9.606751E-18
4.280000E+03	2.232748E-16	9.611375E-18
4.290000E+03	2.234171E-16	9.616723E-18
4.300000E+03	2.235765E-16	9.622803E-18
4.310000E+03	2.237527E-16	9.629602E-18
4.320000E+03	2.239297E-16	9.636438E-18
4.330000E+03	2.241388E-16	9.644647E-18
4.340000E+03	2.243479E-16	9.652861E-18
4.350000E+03	2.245721E-16	9.661715E-18
4.360000E+03	2.248107E-16	9.671192E-18
4.370000E+03	2.250631E-16	9.681255E-18
4.380000E+03	2.253288E-16	9.691889E-18
4.390000E+03	2.255922E-16	9.702424E-18
4.400000E+03	2.258689E-16	9.713526E-18
4.410000E+03	2.261593E-16	9.725213E-18
4.420000E+03	2.264641E-16	9.737518E-18
4.430000E+03	2.267686E-16	9.749808E-18
4.440000E+03	2.271043E-16	9.763436E-18
4.450000E+03	2.274414E-16	9.777118E-18
4.460000E+03	2.277802E-16	9.790877E-18
4.470000E+03	2.281511E-16	9.806004E-18
4.480000E+03	2.285233E-16	9.821189E-18
4.490000E+03	2.289109E-16	9.837032E-18
4.500000E+03	2.293122E-16	9.853462E-18
4.510000E+03	2.297104E-16	9.869755E-18
4.520000E+03	2.301176E-16	9.886428E-18
4.530000E+03	2.305306E-16	9.903348E-18
4.540000E+03	2.309309E-16	9.919724E-18
4.550000E+03	2.313292E-16	9.936008E-18
4.560000E+03	2.317211E-16	9.952010E-18
4.570000E+03	2.320868E-16	9.966888E-18
4.580000E+03	2.324357E-16	9.981044E-18
4.590000E+03	2.327475E-16	9.993602E-18
4.600000E+03	2.330317E-16	1.000497E-17
4.610000E+03	2.332830E-16	1.001493E-17
4.620000E+03	2.334829E-16	1.002267E-17
4.630000E+03	2.336424E-16	1.002869E-17
4.640000E+03	2.337603E-16	1.003291E-17
4.650000E+03	2.338219E-16	1.003472E-17
4.660000E+03	2.338424E-16	1.003477E-17
4.670000E+03	2.338088E-16	1.003249E-17
4.680000E+03	2.337378E-16	1.002861E-17
4.690000E+03	2.336176E-16	1.002262E-17
4.700000E+03	2.334647E-16	1.001523E-17
4.710000E+03	2.332815E-16	1.000654E-17
4.720000E+03	2.330565E-16	9.996059E-18
4.730000E+03	2.327926E-16	9.983909E-18
4.740000E+03	2.325204E-16	9.971408E-18
4.750000E+03	2.322011E-16	9.956894E-18
4.760000E+03	2.318662E-16	9.941709E-18
4.770000E+03	2.315192E-16	9.926012E-18
4.780000E+03	2.311504E-16	9.909379E-18
4.790000E+03	2.307776E-16	9.892581E-18
4.800000E+03	2.303914E-16	9.875209E-18
4.810000E+03	2.300095E-16	9.858030E-18
4.820000E+03	2.296221E-16	9.840616E-18
4.830000E+03	2.292464E-16	9.823706E-18
4.840000E+03	2.288723E-16	9.806868E-18
4.850000E+03	2.285161E-16	9.790801E-18
4.860000E+03	2.281672E-16	9.775048E-18
4.870000E+03	2.278411E-16	9.760274E-18
4.880000E+03	2.275253E-16	9.745945E-18
4.890000E+03	2.272205E-16	9.732093E-18
4.900000E+03	2.269401E-16	9.719286E-18
4.910000E+03	2.266845E-16	9.707546E-18
4.920000E+03	2.264409E-16	9.696319E-18
4.930000E+03	2.262225E-16	9.686176E-18
4.940000E+03	2.260168E-16	9.676581E-18
4.950000E+03	2.258245E-16	9.667556E-18
4.960000E+03	2.256582E-16	9.659650E-18
4.970000E+03	2.255054E-16	9.652324E-18
4.980000E+03	2.253783E-16	9.646098E-18
4.990000E+03	2.252761E-16	9.640937E-18
5.000000E+03	2.251714E-16	9.635674E-18
5.010000E+03	2.251000E-16	9.631840E-18
5.020000E+03	2.250215E-16	9.627700E-18
5.030000E+03	2.249585E-16	9.624222E-18
5.040000E+03	2.249080E-16	9.621282E-18
5.050000E+03	2.248550E-16	9.618238E-18
5.060000E+03	2.248106E-16	9.615560E-18
5.070000E+03	2.247611E-16	9.612666E-18
5.080000E+03	2.247054E-16	9.609511E-18
5.090000E+03	2.246556E-16	9.606605E-18
5.100000E+03	2.245986E-16	9.603393E-18
5.110000E+03	2.245461E-16	9.600376E-18
5.120000E+03	2.244979E-16	9.597548E-18
5.130000E+03	2.244414E-16	9.594361E-18
5.140000E+03	2.243756E-16	9.590779E-18
5.150000E+03	2.243111E-16	9.587256E-18
5.160000E+03	2.242334E-16	9.583168E-18
5.170000E+03	2.241394E-16	9.578384E-18
5.180000E+03	2.240489E-16	9.573754E-18
5.190000E+03	2.239199E-16	9.567480E-18
5.200000E+03	2.237710E-16	9.560359E-18
5.210000E+03	2.235965E-16	9.552142E-18
5.220000E+03	2.233777E-16	9.542041E-18
5.230000E+03	2.231211E-16	9.530325E-18
5.240000E+03	2.228095E-16	9.516263E-18
5.250000E+03	2.224382E-16	9.499653E-18
5.260000E+03	2.220149E-16	9.480829E-18
5.270000E+03	2.215355E-16	9.459613E-18
5.280000E+03	2.209838E-16	9.435312E-18
5.290000E+03	2.203560E-16	9.407768E-18
5.300000E+03	2.196596E-16	9.377304E-18
5.310000E+03	2.188901E-16	9.343724E-18
5.320000E+03	2.180315E-16	9.306347E-18
5.330000E+03	2.170798E-16	9.265004E-18
5.340000E+03	2.160429E-16	9.220033E-18
5.350000E+03	2.149178E-16	9.171306E-18
5.360000E+03	2.136911E-16	9.118253E-18
5.370000E+03	2.123738E-16	9.061344E-18
5.380000E+03	2.109541E-16	9.000077E-18
5.390000E+03	2.094446E-16	8.934987E-18
5.400000E+03	2.078354E-16	8.865660E-18
5.410000E+03	2.061289E-16	8.792194E-18
5.420000E+03	2.043499E-16	8.715646E-18
5.430000E+03	2.024796E-16	8.635218E-18
5.440000E+03	2.005213E-16	8.551056E-18
5.450000E+03	1.984898E-16	8.463783E-18
5.460000E+03	1.963783E-16	8.373114E-18
5.470000E+03	1.942015E-16	8.279674E-18
5.480000E+03	1.919633E-16	8.183637E-18
5.490000E+03	1.896582E-16	8.084762E-18
5.500000E+03	1.873012E-16	7.983692E-18
5.510000E+03	1.848877E-16	7.880230E-18
5.520000E+03	1.824336E-16	7.775053E-18
5.530000E+03	1.799353E-16	7.668013E-18
5.540000E+03	1.774097E-16	7.559824E-18
5.550000E+03	1.748638E-16	7.450789E-18
5.560000E+03	1.722957E-16	7.340830E-18
5.570000E+03	1.697232E-16	7.230696E-18
5.580000E+03	1.671454E-16	7.120354E-18
5.590000E+03	1.645795E-16	7.010541E-18
5.600000E+03	1.620333E-16	6.901583E-18
5.610000E+03	1.595062E-16	6.793453E-18
5.620000E+03	1.570139E-16	6.686827E-18
5.630000E+03	1.545555E-16	6.581658E-18
5.640000E+03	1.521461E-16	6.478595E-18
5.650000E+03	1.497924E-16	6.377919E-18
5.660000E+03	1.474926E-16	6.279556E-18
5.670000E+03	1.452610E-16	6.184110E-18
5.680000E+03	1.431033E-16	6.091826E-18
5.690000E+03	1.410172E-16	6.002603E-18
5.700000E+03	1.390150E-16	5.916968E-18
5.710000E+03	1.371012E-16	5.835107E-18
5.720000E+03	1.352723E-16	5.756877E-18
5.730000E+03	1.335390E-16	5.682721E-18
5.740000E+03	1.318966E-16	5.612448E-18
5.750000E+03	1.303603E-16	5.546702E-18
5.760000E+03	1.289100E-16	5.484626E-18
5.770000E+03	1.275659E-16	5.427079E-18
5.780000E+03	1.263130E-16	5.373417E-18
5.790000E+03	1.251555E-16	5.323827E-18
5.800000E+03	1.240909E-16	5.278195E-18
5.810000E+03	1.231096E-16	5.236114E-18
5.820000E+03	1.222146E-16	5.197712E-18
5.830000E+03	1.214027E-16	5.162849E-18
5.840000E+03	1.206638E-16	5.131102E-18
5.850000E+03	1.200011E-16	5.102597E-18
5.860000E+03	1.194116E-16	5.077210E-18
5.870000E+03	1.188925E-16	5.054823E-18
5.880000E+03	1.184351E-16	5.035065E-18
5.890000E+03	1.180439E-16	5.018127E-18
5.900000E+03	1.177172E-16	5.003932E-18
5.910000E+03	1.174537E-16	4.992427E-18
5.920000E+03	1.172462E-16	4.983311E-18
5.930000E+03	1.171010E-16	4.976842E-18
5.940000E+03	1.170182E-16	4.973029E-18
5.950000E+03	1.169921E-16	4.971631E-18
5.960000E+03	1.170299E-16	4.972948E-18
5.970000E+03	1.171327E-16	4.977035E-18
5.980000E+03	1.173021E-16	4.983948E-18
5.990000E+03	1.175398E-16	4.993766E-18
6.000000E+03	1.178415E-16	5.006307E-18
6.010000E+03	1.182159E-16	5.021938E-18
6.020000E+03	1.186662E-16	5.040793E-18
6.030000E+03	1.191960E-16	5.063023E-18
6.040000E+03	1.198026E-16	5.088519E-18
6.050000E+03	1.205029E-16	5.117998E-18
6.060000E+03	1.212886E-16	5.151101E-18
6.070000E+03	1.221715E-16	5.188332E-18
6.080000E+03	1.231522E-16	5.229716E-18
6.090000E+03	1.242523E-16	5.276168E-18
6.100000E+03	1.254673E-16	5.327501E-18
6.110000E+03	1.268129E-16	5.384375E-18
6.120000E+03	1.282984E-16	5.447190E-18
6.130000E+03	1.299332E-16	5.516341E-18
6.140000E+03	1.317252E-16	5.592160E-18
6.150000E+03	1.336744E-16	5.674653E-18
6.160000E+03	1.358025E-16	5.764735E-18
6.170000E+03	1.381009E-16	5.862045E-18
6.180000E+03	1.405827E-16	5.967132E-18
6.190000E+03	1.432525E-16	6.080200E-18
6.200000E+03	1.461055E-16	6.201032E-18
6.210000E+03	1.491585E-16	6.330352E-18
6.220000E+03	1.523946E-16	6.467435E-18
6.230000E+03	1.558237E-16	6.612704E-18
6.240000E+03	1.594191E-16	6.765026E-18
6.250000E+03	1.631731E-16	6.924071E-18
6.260000E+03	1.670592E-16	7.088713E-18
6.270000E+03	1.710342E-16	7.257126E-18
6.280000E+03	1.750773E-16	7.428422E-18
6.290000E+03	1.791337E-16	7.600272E-18
6.300000E+03	1.831426E-16	7.770109E-18
6.310000E+03	1.870603E-16	7.936066E-18
6.320000E+03	1.908335E-16	8.095891E-18
6.330000E+03	1.944188E-16	8.247745E-18
6.340000E+03	1.977345E-16	8.388156E-18
6.350000E+03	2.007722E-16	8.516777E-18
6.360000E+03	2.034879E-16	8.631737E-18
6.370000E+03	2.058527E-16	8.731810E-18
6.380000E+03	2.078469E-16	8.816169E-18
6.390000E+03	2.094453E-16	8.883743E-18
6.400000E+03	2.106621E-16	8.935135E-18
6.410000E+03	2.114740E-16	8.969354E-18
6.420000E+03	2.118969E-16	8.987087E-18
6.430000E+03	2.119404E-16	8.988731E-18
6.440000E+03	2.116319E-16	8.975453E-18
6.450000E+03	2.109680E-16	8.947112E-18
6.460000E+03	2.099828E-16	8.905154E-18
6.470000E+03	2.087012E-16	8.850632E-18
6.480000E+03	2.071496E-16	8.784671E-18
6.490000E+03	2.053426E-16	8.707889E-18
6.500000E+03	2.033265E-16	8.622247E-18
6.510000E+03	2.011128E-16	8.528236E-18
6.520000E+03	1.987230E-16	8.426769E-18
6.530000E+03	1.961664E-16	8.318235E-18
6.540000E+03	1.934830E-16	8.204335E-18
6.550000E+03	1.906698E-16	8.084943E-18
6.560000E+03	1.877657E-16	7.961703E-18
6.570000E+03	1.847672E-16	7.834470E-18
6.580000E+03	1.817115E-16	7.704818E-18
6.590000E+03	1.785943E-16	7.572570E-18
6.600000E+03	1.754504E-16	7.439197E-18
6.610000E+03	1.722749E-16	7.304491E-18
6.620000E+03	1.690917E-16	7.169467E-18
6.630000E+03	1.659233E-16	7.035078E-18
6.640000E+03	1.627639E-16	6.901074E-18
6.650000E+03	1.596347E-16	6.768361E-18
6.660000E+03	1.565468E-16	6.637406E-18
6.670000E+03	1.535107E-16	6.508648E-18
6.680000E+03	1.505439E-16	6.382841E-18
6.690000E+03	1.476388E-16	6.259651E-18
6.700000E+03	1.448117E-16	6.139772E-18
6.710000E+03	1.420696E-16	6.023507E-18
6.720000E+03	1.394193E-16	5.911133E-18
6.730000E+03	1.368663E-16	5.802893E-18
6.740000E+03	1.344156E-16	5.698991E-18
6.750000E+03	1.320713E-16	5.599607E-18
6.760000E+03	1.298371E-16	5.504892E-18
6.770000E+03	1.277153E-16	5.414950E-18
6.780000E+03	1.257081E-16	5.329867E-18
6.790000E+03	1.238170E-16	5.249711E-18
6.800000E+03	1.220504E-16	5.174836E-18
6.810000E+03	1.203960E-16	5.104721E-18
6.820000E+03	1.188555E-16	5.039438E-18
6.830000E+03	1.174434E-16	4.979603E-18
6.840000E+03	1.161547E-16	4.924999E-18
6.850000E+03	1.149904E-16	4.875674E-18
6.860000E+03	1.139514E-16	4.831668E-18
6.870000E+03	1.130388E-16	4.793024E-18
6.880000E+03	1.122535E-16	4.759777E-18
6.890000E+03	1.115959E-16	4.731949E-18
6.900000E+03	1.110665E-16	4.709558E-18
6.910000E+03	1.106659E-16	4.692635E-18
6.920000E+03	1.103948E-16	4.681204E-18
6.930000E+03	1.102542E-16	4.675312E-18
6.940000E+03	1.102449E-16	4.674987E-18
6.950000E+03	1.103618E-16	4.680019E-18
6.960000E+03	1.106183E-16	4.690977E-18
6.970000E+03	1.110093E-16	4.707641E-18
6.980000E+03	1.115356E-16	4.730046E-18
6.990000E+03	1.121976E-16	4.758214E-18
7.000000E+03	1.129962E-16	4.792176E-18
7.010000E+03	1.139254E-16	4.831684E-18
7.020000E+03	1.149986E-16	4.877300E-18
7.030000E+03	1.162094E-16	4.928764E-18
7.040000E+03	1.175508E-16	4.985770E-18
7.050000E+03	1.190351E-16	5.048846E-18
7.060000E+03	1.206545E-16	5.117655E-18
7.070000E+03	1.223992E-16	5.191789E-18
7.080000E+03	1.242804E-16	5.271720E-18
7.090000E+03	1.262798E-16	5.356676E-18
7.100000E+03	1.284068E-16	5.447052E-18
7.110000E+03	1.306406E-16	5.541967E-18
7.120000E+03	1.329887E-16	5.641742E-18
7.130000E+03	1.354274E-16	5.745369E-18
7.140000E+03	1.379545E-16	5.852759E-18
7.150000E+03	1.405670E-16	5.963781E-18
7.160000E+03	1.432358E-16	6.077206E-18
7.170000E+03	1.459545E-16	6.192760E-18
7.180000E+03	1.487065E-16	6.309743E-18
7.190000E+03	1.514722E-16	6.427319E-18
7.200000E+03	1.542298E-16	6.544562E-18
7.210000E+03	1.569548E-16	6.660436E-18
7.220000E+03	1.596201E-16	6.773795E-18
7.230000E+03	1.621963E-16	6.883384E-18
7.240000E+03	1.646522E-16	6.987879E-18
7.250000E+03	1.669443E-16	7.085443E-18
7.260000E+03	1.690571E-16	7.175405E-18
7.270000E+03	1.709463E-16	7.255891E-18
7.280000E+03	1.725686E-16	7.325062E-18
7.290000E+03	1.739023E-16	7.381997E-18
7.300000E+03	1.749302E-16	7.425957E-18
7.310000E+03	1.756123E-16	7.455250E-18
7.320000E+03	1.759445E-16	7.469697E-18
7.330000E+03	1.759190E-16	7.468969E-18
7.340000E+03	1.755389E-16	7.453188E-18
7.350000E+03	1.748133E-16	7.422741E-18
7.360000E+03	1.737458E-16	7.377784E-18
7.370000E+03	1.723766E-16	7.320015E-18
7.380000E+03	1.707184E-16	7.249974E-18
7.390000E+03	1.687863E-16	7.168296E-18
7.400000E+03	1.666169E-16	7.076541E-18
7.410000E+03	1.642377E-16	6.975873E-18
7.420000E+03	1.616767E-16	6.867478E-18
7.430000E+03	1.589629E-16	6.752587E-18
7.440000E+03	1.561249E-16	6.632413E-18
7.450000E+03	1.531909E-16	6.508153E-18
7.460000E+03	1.501802E-16	6.380626E-18
7.470000E+03	1.471378E-16	6.251745E-18
7.480000E+03	1.440720E-16	6.121857E-18
7.490000E+03	1.410168E-16	5.992411E-18
7.500000E+03	1.379955E-16	5.864394E-18
7.510000E+03	1.350289E-16	5.738695E-18
7.520000E+03	1.321276E-16	5.615755E-18
7.530000E+03	1.293233E-16	5.496929E-18
7.540000E+03	1.266128E-16	5.382079E-18
7.550000E+03	1.240131E-16	5.271932E-18
7.560000E+03	1.215306E-16	5.166751E-18
7.570000E+03	1.191689E-16	5.066701E-18
7.580000E+03	1.169298E-16	4.971853E-18
7.590000E+03	1.148131E-16	4.882199E-18
7.600000E+03	1.128110E-16	4.797412E-18
7.610000E+03	1.109286E-16	4.717705E-18
7.620000E+03	1.091630E-16	4.642959E-18
7.630000E+03	1.075112E-16	4.573046E-18
7.640000E+03	1.059697E-16	4.507820E-18
7.650000E+03	1.045287E-16	4.446861E-18
7.660000E+03	1.031971E-16	4.390549E-18
7.670000E+03	1.019579E-16	4.338165E-18
7.680000E+03	1.008132E-16	4.289794E-18
7.690000E+03	9.975177E-17	4.244965E-18
7.700000E+03	9.877959E-17	4.203929E-18
7.710000E+03	9.787768E-17	4.165881E-18
7.720000E+03	9.704530E-17	4.130789E-18
7.730000E+03	9.627570E-17	4.098366E-18
7.740000E+03	9.556223E-17	4.068330E-18
7.750000E+03	9.489843E-17	4.040406E-18
7.760000E+03	9.427223E-17	4.014080E-18
