#wls	flux	fluxerr
1.600000E+03	1.313794E-16	6.053045E-18
1.640000E+03	1.343794E-16	6.190819E-18
1.680000E+03	1.373982E-16	6.329423E-18
1.720000E+03	1.404297E-16	6.468582E-18
1.760000E+03	1.434922E-16	6.609133E-18
1.800000E+03	1.465551E-16	6.749666E-18
1.840000E+03	1.496111E-16	6.889847E-18
1.880000E+03	1.526784E-16	7.030508E-18
1.920000E+03	1.557238E-16	7.170123E-18
1.960000E+03	1.587652E-16	7.309514E-18
2.000000E+03	1.617949E-16	7.448323E-18
2.040000E+03	1.647773E-16	7.584918E-18
2.080000E+03	1.677580E-16	7.721387E-18
2.120000E+03	1.706733E-16	7.854802E-18
2.160000E+03	1.735409E-16	7.985979E-18
2.200000E+03	1.763519E-16	8.114501E-18
2.240000E+03	1.791248E-16	8.241228E-18
2.280000E+03	1.818218E-16	8.364416E-18
2.320000E+03	1.844333E-16	8.483623E-18
2.360000E+03	1.869788E-16	8.599744E-18
2.400000E+03	1.894490E-16	8.712356E-18
2.440000E+03	1.918057E-16	8.819698E-18
2.480000E+03	1.940693E-16	8.922709E-18
2.520000E+03	1.962313E-16	9.021006E-18
2.560000E+03	1.982841E-16	9.114230E-18
2.600000E+03	2.002203E-16	9.202046E-18
2.640000E+03	2.020629E-16	9.285512E-18
2.680000E+03	2.037761E-16	9.362985E-18
2.720000E+03	2.053846E-16	9.435599E-18
2.760000E+03	2.068545E-16	9.501801E-18
2.800000E+03	2.082410E-16	9.564125E-18
2.840000E+03	2.094835E-16	9.619789E-18
2.880000E+03	2.106096E-16	9.670067E-18
2.920000E+03	2.116476E-16	9.716254E-18
2.960000E+03	2.125693E-16	9.757060E-18
3.000000E+03	2.133764E-16	9.792564E-18
3.010000E+03	2.135780E-16	9.801427E-18
3.020000E+03	2.137656E-16	9.809642E-18
3.030000E+03	2.139394E-16	9.817222E-18
3.040000E+03	2.140994E-16	9.824168E-18
3.050000E+03	2.142732E-16	9.831747E-18
3.060000E+03	2.144334E-16	9.838697E-18
3.070000E+03	2.145801E-16	9.845022E-18
3.080000E+03	2.147407E-16	9.851985E-18
3.090000E+03	2.148878E-16	9.858328E-18
3.100000E+03	2.150216E-16	9.864057E-18
3.110000E+03	2.151694E-16	9.870423E-18
3.120000E+03	2.153039E-16	9.876180E-18
3.130000E+03	2.154253E-16	9.881332E-18
3.140000E+03	2.155606E-16	9.887121E-18
3.150000E+03	2.156564E-16	9.891094E-18
3.160000E+03	2.157927E-16	9.896926E-18
3.170000E+03	2.158897E-16	9.900951E-18
3.180000E+03	2.160007E-16	9.905613E-18
3.190000E+03	2.160991E-16	9.909700E-18
3.200000E+03	2.161853E-16	9.913221E-18
3.210000E+03	2.162853E-16	9.917375E-18
3.220000E+03	2.163733E-16	9.920973E-18
3.230000E+03	2.164491E-16	9.924011E-18
3.240000E+03	2.165389E-16	9.927690E-18
3.250000E+03	2.166167E-16	9.930819E-18
3.260000E+03	2.167084E-16	9.934580E-18
3.270000E+03	2.167629E-16	9.936632E-18
3.280000E+03	2.168313E-16	9.939321E-18
3.290000E+03	2.169135E-16	9.942642E-18
3.300000E+03	2.169590E-16	9.944279E-18
3.310000E+03	2.170186E-16	9.946557E-18
3.320000E+03	2.170919E-16	9.949462E-18
3.330000E+03	2.171540E-16	9.951851E-18
3.340000E+03	2.172050E-16	9.953729E-18
3.350000E+03	2.172451E-16	9.955109E-18
3.360000E+03	2.172991E-16	9.957122E-18
3.370000E+03	2.173422E-16	9.958633E-18
3.380000E+03	2.173748E-16	9.959657E-18
3.390000E+03	2.174210E-16	9.961307E-18
3.400000E+03	2.174568E-16	9.962476E-18
3.410000E+03	2.174822E-16	9.963168E-18
3.420000E+03	2.175212E-16	9.964481E-18
3.430000E+03	2.175500E-16	9.965327E-18
3.440000E+03	2.175686E-16	9.965701E-18
3.450000E+03	2.176009E-16	9.966701E-18
3.460000E+03	2.176231E-16	9.967239E-18
3.470000E+03	2.176590E-16	9.968399E-18
3.480000E+03	2.176849E-16	9.969101E-18
3.490000E+03	2.177010E-16	9.969350E-18
3.500000E+03	2.177074E-16	9.969157E-18
3.510000E+03	2.177275E-16	9.969585E-18
3.520000E+03	2.177380E-16	9.969575E-18
3.530000E+03	2.177392E-16	9.969137E-18
3.540000E+03	2.177539E-16	9.969315E-18
3.550000E+03	2.177595E-16	9.969071E-18
3.560000E+03	2.177785E-16	9.969443E-18
3.570000E+03	2.177660E-16	9.968371E-18
3.580000E+03	2.177894E-16	9.968941E-18
3.590000E+03	2.177818E-16	9.968086E-18
3.600000E+03	2.177877E-16	9.967853E-18
3.610000E+03	2.177851E-16	9.967226E-18
3.620000E+03	2.177743E-16	9.966220E-18
3.630000E+03	2.177770E-16	9.965834E-18
3.640000E+03	2.177716E-16	9.965074E-18
3.650000E+03	2.177584E-16	9.963954E-18
3.660000E+03	2.177589E-16	9.963465E-18
3.670000E+03	2.177518E-16	9.962621E-18
3.680000E+03	2.177374E-16	9.961441E-18
3.690000E+03	2.177369E-16	9.960901E-18
3.700000E+03	2.177083E-16	9.959069E-18
3.710000E+03	2.177149E-16	9.958848E-18
3.720000E+03	2.176940E-16	9.957364E-18
3.730000E+03	2.176875E-16	9.956539E-18
3.740000E+03	2.176748E-16	9.955432E-18
3.750000E+03	2.176563E-16	9.954052E-18
3.760000E+03	2.176525E-16	9.953352E-18
3.770000E+03	2.176433E-16	9.952397E-18
3.780000E+03	2.176291E-16	9.951214E-18
3.790000E+03	2.176101E-16	9.949806E-18
3.800000E+03	2.176067E-16	9.949115E-18
3.810000E+03	2.175992E-16	9.948234E-18
3.820000E+03	2.175878E-16	9.947172E-18
3.830000E+03	2.175731E-16	9.945958E-18
3.840000E+03	2.175752E-16	9.945509E-18
3.850000E+03	2.175745E-16	9.944932E-18
3.860000E+03	2.175716E-16	9.944252E-18
3.870000E+03	2.175671E-16	9.943498E-18
3.880000E+03	2.175806E-16	9.943566E-18
3.890000E+03	2.175932E-16	9.943594E-18
3.900000E+03	2.176055E-16	9.943604E-18
3.910000E+03	2.176181E-16	9.943627E-18
3.920000E+03	2.176503E-16	9.944540E-18
3.930000E+03	2.176645E-16	9.944635E-18
3.940000E+03	2.176990E-16	9.945655E-18
3.950000E+03	2.177350E-16	9.946739E-18
3.960000E+03	2.177726E-16	9.947898E-18
3.970000E+03	2.178301E-16	9.949961E-18
3.980000E+03	2.178704E-16	9.951241E-18
3.990000E+03	2.179299E-16	9.953391E-18
4.000000E+03	2.179897E-16	9.955558E-18
4.010000E+03	2.180311E-16	9.956883E-18
4.020000E+03	2.181081E-16	9.959831E-18
4.030000E+03	2.181656E-16	9.961889E-18
4.040000E+03	2.182214E-16	9.963863E-18
4.050000E+03	2.182749E-16	9.965733E-18
4.060000E+03	2.183434E-16	9.968290E-18
4.070000E+03	2.184090E-16	9.970710E-18
4.080000E+03	2.184541E-16	9.972192E-18
4.090000E+03	2.185138E-16	9.974342E-18
4.100000E+03	2.185712E-16	9.976384E-18
4.110000E+03	2.186267E-16	9.978337E-18
4.120000E+03	2.186811E-16	9.980239E-18
4.130000E+03	2.187354E-16	9.982139E-18
4.140000E+03	2.187912E-16	9.984099E-18
4.150000E+03	2.188495E-16	9.986178E-18
4.160000E+03	2.189120E-16	9.988446E-18
4.170000E+03	2.189802E-16	9.990973E-18
4.180000E+03	2.190557E-16	9.993829E-18
4.190000E+03	2.191567E-16	9.997848E-18
4.200000E+03	2.192512E-16	1.000157E-17
4.210000E+03	2.193573E-16	1.000582E-17
4.220000E+03	2.194763E-16	1.001066E-17
4.230000E+03	2.196095E-16	1.001614E-17
4.240000E+03	2.197575E-16	1.002230E-17
4.250000E+03	2.199213E-16	1.002918E-17
4.260000E+03	2.201014E-16	1.003680E-17
4.270000E+03	2.202818E-16	1.004443E-17
4.280000E+03	2.204953E-16	1.005356E-17
4.290000E+03	2.207094E-16	1.006273E-17
4.300000E+03	2.209562E-16	1.007338E-17
4.310000E+03	2.212030E-16	1.008403E-17
4.320000E+03	2.214817E-16	1.009614E-17
4.330000E+03	2.217592E-16	1.010819E-17
4.340000E+03	2.220511E-16	1.012089E-17
4.350000E+03	2.223408E-16	1.013348E-17
4.360000E+03	2.226591E-16	1.014738E-17
4.370000E+03	2.229896E-16	1.016184E-17
4.380000E+03	2.233163E-16	1.017612E-17
4.390000E+03	2.236548E-16	1.019093E-17
4.400000E+03	2.240053E-16	1.020629E-17
4.410000E+03	2.243682E-16	1.022222E-17
4.420000E+03	2.247286E-16	1.023802E-17
4.430000E+03	2.251028E-16	1.025446E-17
4.440000E+03	2.254915E-16	1.027155E-17
4.450000E+03	2.258955E-16	1.028933E-17
4.460000E+03	2.263149E-16	1.030782E-17
4.470000E+03	2.267344E-16	1.032631E-17
4.480000E+03	2.271691E-16	1.034548E-17
4.490000E+03	2.276181E-16	1.036531E-17
4.500000E+03	2.280801E-16	1.038573E-17
4.510000E+03	2.285379E-16	1.040595E-17
4.520000E+03	2.290044E-16	1.042656E-17
4.530000E+03	2.294614E-16	1.044675E-17
4.540000E+03	2.299365E-16	1.046775E-17
4.550000E+03	2.303950E-16	1.048800E-17
4.560000E+03	2.308330E-16	1.050730E-17
4.570000E+03	2.312765E-16	1.052686E-17
4.580000E+03	2.316904E-16	1.054507E-17
4.590000E+03	2.320701E-16	1.056172E-17
4.600000E+03	2.324415E-16	1.057799E-17
4.610000E+03	2.327699E-16	1.059231E-17
4.620000E+03	2.330519E-16	1.060451E-17
4.630000E+03	2.332996E-16	1.061514E-17
4.640000E+03	2.335109E-16	1.062413E-17
4.650000E+03	2.336843E-16	1.063138E-17
4.660000E+03	2.338044E-16	1.063621E-17
4.670000E+03	2.338711E-16	1.063862E-17
4.680000E+03	2.339146E-16	1.063996E-17
4.690000E+03	2.339060E-16	1.063894E-17
4.700000E+03	2.338462E-16	1.063559E-17
4.710000E+03	2.337511E-16	1.063064E-17
4.720000E+03	2.336222E-16	1.062415E-17
4.730000E+03	2.334463E-16	1.061553E-17
4.740000E+03	2.332401E-16	1.060553E-17
4.750000E+03	2.329916E-16	1.059361E-17
4.760000E+03	2.327183E-16	1.058056E-17
4.770000E+03	2.324091E-16	1.056588E-17
4.780000E+03	2.320828E-16	1.055043E-17
4.790000E+03	2.317435E-16	1.053439E-17
4.800000E+03	2.313816E-16	1.051733E-17
4.810000E+03	2.310158E-16	1.050009E-17
4.820000E+03	2.306362E-16	1.048223E-17
4.830000E+03	2.302611E-16	1.046457E-17
4.840000E+03	2.298803E-16	1.044666E-17
4.850000E+03	2.295110E-16	1.042928E-17
4.860000E+03	2.291422E-16	1.041192E-17
4.870000E+03	2.287899E-16	1.039531E-17
4.880000E+03	2.284424E-16	1.037892E-17
4.890000E+03	2.281145E-16	1.036343E-17
4.900000E+03	2.277938E-16	1.034827E-17
4.910000E+03	2.274944E-16	1.033408E-17
4.920000E+03	2.272170E-16	1.032088E-17
4.930000E+03	2.269484E-16	1.030810E-17
4.940000E+03	2.266889E-16	1.029573E-17
4.950000E+03	2.264521E-16	1.028438E-17
4.960000E+03	2.262379E-16	1.027408E-17
4.970000E+03	2.260325E-16	1.026416E-17
4.980000E+03	2.258352E-16	1.025462E-17
4.990000E+03	2.256582E-16	1.024601E-17
5.000000E+03	2.255002E-16	1.023826E-17
5.010000E+03	2.253461E-16	1.023069E-17
5.020000E+03	2.251940E-16	1.022321E-17
5.030000E+03	2.250550E-16	1.021632E-17
5.040000E+03	2.249270E-16	1.020994E-17
5.050000E+03	2.247951E-16	1.020339E-17
5.060000E+03	2.246575E-16	1.019657E-17
5.070000E+03	2.245262E-16	1.019005E-17
5.080000E+03	2.243998E-16	1.018374E-17
5.090000E+03	2.242643E-16	1.017703E-17
5.100000E+03	2.241190E-16	1.016987E-17
5.110000E+03	2.239758E-16	1.016282E-17
5.120000E+03	2.238339E-16	1.015582E-17
5.130000E+03	2.236792E-16	1.014824E-17
5.140000E+03	2.235231E-16	1.014060E-17
5.150000E+03	2.233505E-16	1.013222E-17
5.160000E+03	2.231594E-16	1.012300E-17
5.170000E+03	2.229589E-16	1.011336E-17
5.180000E+03	2.227455E-16	1.010312E-17
5.190000E+03	2.225019E-16	1.009153E-17
5.200000E+03	2.222362E-16	1.007894E-17
5.210000E+03	2.219308E-16	1.006454E-17
5.220000E+03	2.215931E-16	1.004869E-17
5.230000E+03	2.212058E-16	1.003059E-17
5.240000E+03	2.207766E-16	1.001059E-17
5.250000E+03	2.202886E-16	9.987930E-18
5.260000E+03	2.197498E-16	9.962971E-18
5.270000E+03	2.191439E-16	9.934974E-18
5.280000E+03	2.184793E-16	9.904322E-18
5.290000E+03	2.177522E-16	9.870839E-18
5.300000E+03	2.169344E-16	9.833248E-18
5.310000E+03	2.160590E-16	9.793057E-18
5.320000E+03	2.150985E-16	9.749013E-18
5.330000E+03	2.140620E-16	9.701531E-18
5.340000E+03	2.129350E-16	9.649949E-18
5.350000E+03	2.117155E-16	9.594188E-18
5.360000E+03	2.104263E-16	9.535273E-18
5.370000E+03	2.090312E-16	9.471572E-18
5.380000E+03	2.075656E-16	9.404680E-18
5.390000E+03	2.060068E-16	9.333574E-18
5.400000E+03	2.043563E-16	9.258323E-18
5.410000E+03	2.026273E-16	9.179528E-18
5.420000E+03	2.008221E-16	9.097288E-18
5.430000E+03	1.989323E-16	9.011226E-18
5.440000E+03	1.969719E-16	8.921978E-18
5.450000E+03	1.949336E-16	8.829208E-18
5.460000E+03	1.928319E-16	8.733580E-18
5.470000E+03	1.906708E-16	8.635273E-18
5.480000E+03	1.884439E-16	8.533999E-18
5.490000E+03	1.861664E-16	8.430444E-18
5.500000E+03	1.838330E-16	8.324370E-18
5.510000E+03	1.814594E-16	8.216488E-18
5.520000E+03	1.790512E-16	8.107049E-18
5.530000E+03	1.766046E-16	7.995887E-18
5.540000E+03	1.741264E-16	7.883304E-18
5.550000E+03	1.716429E-16	7.770492E-18
5.560000E+03	1.691418E-16	7.656901E-18
5.570000E+03	1.666309E-16	7.542873E-18
5.580000E+03	1.641359E-16	7.429584E-18
5.590000E+03	1.616460E-16	7.316533E-18
5.600000E+03	1.591689E-16	7.204077E-18
5.610000E+03	1.567206E-16	7.092934E-18
5.620000E+03	1.543082E-16	6.983427E-18
5.630000E+03	1.519298E-16	6.875470E-18
5.640000E+03	1.496087E-16	6.770123E-18
5.650000E+03	1.473263E-16	6.666535E-18
5.660000E+03	1.451132E-16	6.566092E-18
5.670000E+03	1.429588E-16	6.468315E-18
5.680000E+03	1.408761E-16	6.373796E-18
5.690000E+03	1.388624E-16	6.282407E-18
5.700000E+03	1.369297E-16	6.194692E-18
5.710000E+03	1.350817E-16	6.110819E-18
5.720000E+03	1.333143E-16	6.030600E-18
5.730000E+03	1.316374E-16	5.954486E-18
5.740000E+03	1.300531E-16	5.882566E-18
5.750000E+03	1.285623E-16	5.814883E-18
5.760000E+03	1.271583E-16	5.751135E-18
5.770000E+03	1.258479E-16	5.691626E-18
5.780000E+03	1.246233E-16	5.636003E-18
5.790000E+03	1.234965E-16	5.584813E-18
5.800000E+03	1.224518E-16	5.537340E-18
5.810000E+03	1.214868E-16	5.493472E-18
5.820000E+03	1.206122E-16	5.453704E-18
5.830000E+03	1.198119E-16	5.417297E-18
5.840000E+03	1.190898E-16	5.384429E-18
5.850000E+03	1.184429E-16	5.354967E-18
5.860000E+03	1.178622E-16	5.328501E-18
5.870000E+03	1.173520E-16	5.305227E-18
5.880000E+03	1.169101E-16	5.285042E-18
5.890000E+03	1.165347E-16	5.267868E-18
5.900000E+03	1.162180E-16	5.253355E-18
5.910000E+03	1.159655E-16	5.241741E-18
5.920000E+03	1.157764E-16	5.232996E-18
5.930000E+03	1.156505E-16	5.227112E-18
5.940000E+03	1.155815E-16	5.223802E-18
5.950000E+03	1.155764E-16	5.223379E-18
5.960000E+03	1.156359E-16	5.225881E-18
5.970000E+03	1.157611E-16	5.231354E-18
5.980000E+03	1.159473E-16	5.239585E-18
5.990000E+03	1.162090E-16	5.251227E-18
6.000000E+03	1.165357E-16	5.265811E-18
6.010000E+03	1.169362E-16	5.283729E-18
6.020000E+03	1.174072E-16	5.304834E-18
6.030000E+03	1.179650E-16	5.329861E-18
6.040000E+03	1.186005E-16	5.358400E-18
6.050000E+03	1.193247E-16	5.390944E-18
6.060000E+03	1.201423E-16	5.427712E-18
6.070000E+03	1.210593E-16	5.468967E-18
6.080000E+03	1.220750E-16	5.514685E-18
6.090000E+03	1.232101E-16	5.565795E-18
6.100000E+03	1.244585E-16	5.622020E-18
6.110000E+03	1.258345E-16	5.684010E-18
6.120000E+03	1.273462E-16	5.752128E-18
6.130000E+03	1.289938E-16	5.826388E-18
6.140000E+03	1.307990E-16	5.907760E-18
6.150000E+03	1.327542E-16	5.995907E-18
6.160000E+03	1.348801E-16	6.091761E-18
6.170000E+03	1.371670E-16	6.194886E-18
6.180000E+03	1.396268E-16	6.305815E-18
6.190000E+03	1.422540E-16	6.424306E-18
6.200000E+03	1.450657E-16	6.551125E-18
6.210000E+03	1.480444E-16	6.685482E-18
6.220000E+03	1.512021E-16	6.827918E-18
6.230000E+03	1.545138E-16	6.977307E-18
6.240000E+03	1.579750E-16	7.133444E-18
6.250000E+03	1.615676E-16	7.295514E-18
6.260000E+03	1.652675E-16	7.462428E-18
6.270000E+03	1.690451E-16	7.632844E-18
6.280000E+03	1.728556E-16	7.804745E-18
6.290000E+03	1.766781E-16	7.977186E-18
6.300000E+03	1.804497E-16	8.147325E-18
6.310000E+03	1.841447E-16	8.314003E-18
6.320000E+03	1.876958E-16	8.474187E-18
6.330000E+03	1.910680E-16	8.626291E-18
6.340000E+03	1.942183E-16	8.768377E-18
6.350000E+03	1.971082E-16	8.898708E-18
6.360000E+03	1.997040E-16	9.015762E-18
6.370000E+03	2.019782E-16	9.118302E-18
6.380000E+03	2.038977E-16	9.204829E-18
6.390000E+03	2.054701E-16	9.275690E-18
6.400000E+03	2.066630E-16	9.329420E-18
6.410000E+03	2.074964E-16	9.366925E-18
6.420000E+03	2.079493E-16	9.387261E-18
6.430000E+03	2.080410E-16	9.391295E-18
6.440000E+03	2.077953E-16	9.380104E-18
6.450000E+03	2.072048E-16	9.353353E-18
6.460000E+03	2.063003E-16	9.312430E-18
6.470000E+03	2.051027E-16	9.258288E-18
6.480000E+03	2.036348E-16	9.191948E-18
6.490000E+03	2.019195E-16	9.114445E-18
6.500000E+03	1.999682E-16	9.026299E-18
6.510000E+03	1.978261E-16	8.929545E-18
6.520000E+03	1.955030E-16	8.824629E-18
6.530000E+03	1.930198E-16	8.712488E-18
6.540000E+03	1.903850E-16	8.593514E-18
6.550000E+03	1.876398E-16	8.469557E-18
6.560000E+03	1.847806E-16	8.340463E-18
6.570000E+03	1.818462E-16	8.207980E-18
6.580000E+03	1.788326E-16	8.071929E-18
6.590000E+03	1.757764E-16	7.933961E-18
6.600000E+03	1.726729E-16	7.793858E-18
6.610000E+03	1.695567E-16	7.653191E-18
6.620000E+03	1.664223E-16	7.511702E-18
6.630000E+03	1.632927E-16	7.370439E-18
6.640000E+03	1.601900E-16	7.230387E-18
6.650000E+03	1.571072E-16	7.091241E-18
6.660000E+03	1.540646E-16	6.953916E-18
6.670000E+03	1.510726E-16	6.818872E-18
6.680000E+03	1.481406E-16	6.686542E-18
6.690000E+03	1.452856E-16	6.557693E-18
6.700000E+03	1.424985E-16	6.431908E-18
6.710000E+03	1.397950E-16	6.309900E-18
6.720000E+03	1.371812E-16	6.191943E-18
6.730000E+03	1.346627E-16	6.078292E-18
6.740000E+03	1.322446E-16	5.969169E-18
6.750000E+03	1.299305E-16	5.864749E-18
6.760000E+03	1.277244E-16	5.765201E-18
6.770000E+03	1.256289E-16	5.670648E-18
6.780000E+03	1.236464E-16	5.581198E-18
6.790000E+03	1.217789E-16	5.496940E-18
6.800000E+03	1.200281E-16	5.417950E-18
6.810000E+03	1.183957E-16	5.344308E-18
6.820000E+03	1.168828E-16	5.276061E-18
6.830000E+03	1.154909E-16	5.213275E-18
6.840000E+03	1.142209E-16	5.155997E-18
6.850000E+03	1.130675E-16	5.103980E-18
6.860000E+03	1.120446E-16	5.057858E-18
6.870000E+03	1.111466E-16	5.017376E-18
6.880000E+03	1.103742E-16	4.982566E-18
6.890000E+03	1.097280E-16	4.953452E-18
6.900000E+03	1.092089E-16	4.930076E-18
6.910000E+03	1.088109E-16	4.912174E-18
6.920000E+03	1.085478E-16	4.900359E-18
6.930000E+03	1.084137E-16	4.894373E-18
6.940000E+03	1.084096E-16	4.894261E-18
6.950000E+03	1.085301E-16	4.899769E-18
6.960000E+03	1.087886E-16	4.911516E-18
6.970000E+03	1.091797E-16	4.929252E-18
6.980000E+03	1.096977E-16	4.952717E-18
6.990000E+03	1.103560E-16	4.982524E-18
7.000000E+03	1.111491E-16	5.018420E-18
7.010000E+03	1.120705E-16	5.060111E-18
7.020000E+03	1.131337E-16	5.108208E-18
7.030000E+03	1.143252E-16	5.162104E-18
7.040000E+03	1.156581E-16	5.222388E-18
7.050000E+03	1.171174E-16	5.288387E-18
7.060000E+03	1.187156E-16	5.360659E-18
7.070000E+03	1.204363E-16	5.438474E-18
7.080000E+03	1.222905E-16	5.522322E-18
7.090000E+03	1.242600E-16	5.611381E-18
7.100000E+03	1.263468E-16	5.705746E-18
7.110000E+03	1.285527E-16	5.805498E-18
7.120000E+03	1.308552E-16	5.909616E-18
7.130000E+03	1.332534E-16	6.018068E-18
7.140000E+03	1.357374E-16	6.130404E-18
7.150000E+03	1.382959E-16	6.246110E-18
7.160000E+03	1.409157E-16	6.364596E-18
7.170000E+03	1.435817E-16	6.485181E-18
7.180000E+03	1.462771E-16	6.607099E-18
7.190000E+03	1.489824E-16	6.729481E-18
7.200000E+03	1.516762E-16	6.851348E-18
7.210000E+03	1.543346E-16	6.971628E-18
7.220000E+03	1.569220E-16	7.088716E-18
7.230000E+03	1.594293E-16	7.202189E-18
7.240000E+03	1.618075E-16	7.309848E-18
7.250000E+03	1.640452E-16	7.411166E-18
7.260000E+03	1.660914E-16	7.503846E-18
7.270000E+03	1.679353E-16	7.587391E-18
7.280000E+03	1.695268E-16	7.659545E-18
7.290000E+03	1.708492E-16	7.719549E-18
7.300000E+03	1.718791E-16	7.766350E-18
7.310000E+03	1.725982E-16	7.799108E-18
7.320000E+03	1.729934E-16	7.817240E-18
7.330000E+03	1.730579E-16	7.820435E-18
7.340000E+03	1.727907E-16	7.808642E-18
7.350000E+03	1.721866E-16	7.781628E-18
7.360000E+03	1.712769E-16	7.740807E-18
7.370000E+03	1.700559E-16	7.685917E-18
7.380000E+03	1.685632E-16	7.618745E-18
7.390000E+03	1.667997E-16	7.539336E-18
7.400000E+03	1.648000E-16	7.449251E-18
7.410000E+03	1.625897E-16	7.349637E-18
7.420000E+03	1.601952E-16	7.241700E-18
7.430000E+03	1.576442E-16	7.126678E-18
7.440000E+03	1.549544E-16	7.005380E-18
7.450000E+03	1.521726E-16	6.879914E-18
7.460000E+03	1.493068E-16	6.750645E-18
7.470000E+03	1.464019E-16	6.619602E-18
7.480000E+03	1.434646E-16	6.487086E-18
7.490000E+03	1.405281E-16	6.354599E-18
7.500000E+03	1.376141E-16	6.223118E-18
7.510000E+03	1.347343E-16	6.093178E-18
7.520000E+03	1.319231E-16	5.966333E-18
7.530000E+03	1.291871E-16	5.842879E-18
7.540000E+03	1.265307E-16	5.723017E-18
7.550000E+03	1.239716E-16	5.607546E-18
7.560000E+03	1.215169E-16	5.496793E-18
7.570000E+03	1.191713E-16	5.390967E-18
7.580000E+03	1.169377E-16	5.290196E-18
7.590000E+03	1.148102E-16	5.194221E-18
7.600000E+03	1.128033E-16	5.103695E-18
7.610000E+03	1.109017E-16	5.017927E-18
7.620000E+03	1.091110E-16	4.937169E-18
7.630000E+03	1.074288E-16	4.861313E-18
7.640000E+03	1.058520E-16	4.790227E-18
7.650000E+03	1.043710E-16	4.723464E-18
7.660000E+03	1.029952E-16	4.661463E-18
7.670000E+03	1.017076E-16	4.603446E-18
7.680000E+03	1.005102E-16	4.549510E-18
7.690000E+03	9.939808E-17	4.499430E-18
7.700000E+03	9.836591E-17	4.452964E-18
7.710000E+03	9.740182E-17	4.409578E-18
7.720000E+03	9.651230E-17	4.369564E-18
7.730000E+03	9.567909E-17	4.332098E-18
7.740000E+03	9.490233E-17	4.297184E-18
7.750000E+03	9.417618E-17	4.264560E-18
7.760000E+03	9.348892E-17	4.233695E-18
