#wls	flux	fluxerr
1.600000E+03	1.084758E-16	5.219019E-18
1.640000E+03	1.109486E-16	5.337776E-18
1.680000E+03	1.134488E-16	5.457837E-18
1.720000E+03	1.159729E-16	5.579032E-18
1.760000E+03	1.185172E-16	5.701181E-18
1.800000E+03	1.210572E-16	5.823106E-18
1.840000E+03	1.236295E-16	5.946567E-18
1.880000E+03	1.262092E-16	6.070369E-18
1.920000E+03	1.287916E-16	6.194280E-18
1.960000E+03	1.313937E-16	6.319120E-18
2.000000E+03	1.339662E-16	6.442513E-18
2.040000E+03	1.365481E-16	6.566342E-18
2.080000E+03	1.391116E-16	6.689263E-18
2.120000E+03	1.416740E-16	6.812111E-18
2.160000E+03	1.442064E-16	6.933494E-18
2.200000E+03	1.467265E-16	7.054264E-18
2.240000E+03	1.492045E-16	7.172990E-18
2.280000E+03	1.516339E-16	7.289353E-18
2.320000E+03	1.540579E-16	7.405432E-18
2.360000E+03	1.564214E-16	7.518581E-18
2.400000E+03	1.587432E-16	7.629702E-18
2.440000E+03	1.610177E-16	7.738524E-18
2.480000E+03	1.632394E-16	7.844783E-18
2.520000E+03	1.653771E-16	7.946979E-18
2.560000E+03	1.674768E-16	8.047325E-18
2.600000E+03	1.695082E-16	8.144363E-18
2.640000E+03	1.714663E-16	8.237857E-18
2.680000E+03	1.733731E-16	8.328859E-18
2.720000E+03	1.751724E-16	8.414672E-18
2.760000E+03	1.769128E-16	8.497632E-18
2.800000E+03	1.785651E-16	8.576332E-18
2.840000E+03	1.801525E-16	8.651894E-18
2.880000E+03	1.816728E-16	8.724205E-18
2.920000E+03	1.830978E-16	8.791917E-18
2.960000E+03	1.844258E-16	8.854947E-18
3.000000E+03	1.856818E-16	8.914496E-18
3.010000E+03	1.860046E-16	8.929801E-18
3.020000E+03	1.862920E-16	8.943406E-18
3.030000E+03	1.865959E-16	8.957803E-18
3.040000E+03	1.868645E-16	8.970500E-18
3.050000E+03	1.871494E-16	8.983983E-18
3.060000E+03	1.874249E-16	8.997011E-18
3.070000E+03	1.876908E-16	9.009580E-18
3.080000E+03	1.879731E-16	9.022928E-18
3.090000E+03	1.882202E-16	9.034588E-18
3.100000E+03	1.884834E-16	9.047023E-18
3.110000E+03	1.887373E-16	9.059004E-18
3.120000E+03	1.889815E-16	9.070525E-18
3.130000E+03	1.892419E-16	9.082815E-18
3.140000E+03	1.894673E-16	9.093428E-18
3.150000E+03	1.897088E-16	9.104810E-18
3.160000E+03	1.899153E-16	9.114515E-18
3.170000E+03	1.901378E-16	9.124984E-18
3.180000E+03	1.903762E-16	9.136216E-18
3.190000E+03	1.905799E-16	9.145776E-18
3.200000E+03	1.907742E-16	9.154889E-18
3.210000E+03	1.909842E-16	9.164753E-18
3.220000E+03	1.911849E-16	9.174170E-18
3.230000E+03	1.913762E-16	9.183132E-18
3.240000E+03	1.915580E-16	9.191641E-18
3.250000E+03	1.917555E-16	9.200902E-18
3.260000E+03	1.919189E-16	9.208520E-18
3.270000E+03	1.920978E-16	9.216884E-18
3.280000E+03	1.922672E-16	9.224795E-18
3.290000E+03	1.924276E-16	9.232268E-18
3.300000E+03	1.925787E-16	9.239293E-18
3.310000E+03	1.927451E-16	9.247054E-18
3.320000E+03	1.928779E-16	9.253199E-18
3.330000E+03	1.930259E-16	9.260074E-18
3.340000E+03	1.931650E-16	9.266518E-18
3.350000E+03	1.932948E-16	9.272519E-18
3.360000E+03	1.934399E-16	9.279250E-18
3.370000E+03	1.935518E-16	9.284387E-18
3.380000E+03	1.936788E-16	9.290249E-18
3.390000E+03	1.937970E-16	9.295685E-18
3.400000E+03	1.939062E-16	9.300689E-18
3.410000E+03	1.940066E-16	9.305272E-18
3.420000E+03	1.940982E-16	9.309434E-18
3.430000E+03	1.942051E-16	9.314321E-18
3.440000E+03	1.942795E-16	9.317657E-18
3.450000E+03	1.943691E-16	9.321713E-18
3.460000E+03	1.944502E-16	9.325364E-18
3.470000E+03	1.945228E-16	9.328610E-18
3.480000E+03	1.946107E-16	9.332582E-18
3.490000E+03	1.946668E-16	9.335035E-18
3.500000E+03	1.947383E-16	9.338219E-18
3.510000E+03	1.948015E-16	9.341009E-18
3.520000E+03	1.948569E-16	9.343421E-18
3.530000E+03	1.949045E-16	9.345461E-18
3.540000E+03	1.949444E-16	9.347129E-18
3.550000E+03	1.949999E-16	9.349543E-18
3.560000E+03	1.950249E-16	9.350493E-18
3.570000E+03	1.950657E-16	9.352200E-18
3.580000E+03	1.950992E-16	9.353563E-18
3.590000E+03	1.951259E-16	9.354590E-18
3.600000E+03	1.951459E-16	9.355300E-18
3.610000E+03	1.951818E-16	9.356772E-18
3.620000E+03	1.951889E-16	9.356861E-18
3.630000E+03	1.952123E-16	9.357729E-18
3.640000E+03	1.952297E-16	9.358311E-18
3.650000E+03	1.952414E-16	9.358618E-18
3.660000E+03	1.952476E-16	9.358660E-18
3.670000E+03	1.952487E-16	9.358459E-18
3.680000E+03	1.952669E-16	9.359075E-18
3.690000E+03	1.952584E-16	9.358410E-18
3.700000E+03	1.952675E-16	9.358589E-18
3.710000E+03	1.952508E-16	9.357530E-18
3.720000E+03	1.952520E-16	9.357331E-18
3.730000E+03	1.952499E-16	9.356969E-18
3.740000E+03	1.952661E-16	9.357489E-18
3.750000E+03	1.952580E-16	9.356841E-18
3.760000E+03	1.952477E-16	9.356084E-18
3.770000E+03	1.952565E-16	9.356246E-18
3.780000E+03	1.952426E-16	9.355316E-18
3.790000E+03	1.952485E-16	9.355337E-18
3.800000E+03	1.952535E-16	9.355314E-18
3.810000E+03	1.952581E-16	9.355269E-18
3.820000E+03	1.952626E-16	9.355218E-18
3.830000E+03	1.952673E-16	9.355182E-18
3.840000E+03	1.952729E-16	9.355183E-18
3.850000E+03	1.952797E-16	9.355242E-18
3.860000E+03	1.953087E-16	9.356365E-18
3.870000E+03	1.953191E-16	9.356595E-18
3.880000E+03	1.953524E-16	9.357921E-18
3.890000E+03	1.953680E-16	9.358402E-18
3.900000E+03	1.954073E-16	9.360016E-18
3.910000E+03	1.954501E-16	9.361796E-18
3.920000E+03	1.954970E-16	9.363769E-18
3.930000E+03	1.955482E-16	9.365950E-18
3.940000E+03	1.956042E-16	9.368362E-18
3.950000E+03	1.956652E-16	9.371015E-18
3.960000E+03	1.957318E-16	9.373930E-18
3.970000E+03	1.958042E-16	9.377124E-18
3.980000E+03	1.958828E-16	9.380613E-18
3.990000E+03	1.959877E-16	9.385363E-18
4.000000E+03	1.960797E-16	9.389494E-18
4.010000E+03	1.961788E-16	9.393964E-18
4.020000E+03	1.963051E-16	9.399737E-18
4.030000E+03	1.964197E-16	9.404946E-18
4.040000E+03	1.965423E-16	9.410541E-18
4.050000E+03	1.966928E-16	9.417472E-18
4.060000E+03	1.968327E-16	9.423892E-18
4.070000E+03	1.970012E-16	9.431680E-18
4.080000E+03	1.971596E-16	9.438985E-18
4.090000E+03	1.973471E-16	9.447679E-18
4.100000E+03	1.975253E-16	9.455932E-18
4.110000E+03	1.977332E-16	9.465601E-18
4.120000E+03	1.979324E-16	9.474856E-18
4.130000E+03	1.981617E-16	9.485549E-18
4.140000E+03	1.983831E-16	9.495866E-18
4.150000E+03	1.986351E-16	9.507647E-18
4.160000E+03	1.988797E-16	9.519072E-18
4.170000E+03	1.991554E-16	9.531983E-18
4.180000E+03	1.994241E-16	9.544555E-18
4.190000E+03	1.997050E-16	9.557717E-18
4.200000E+03	2.000173E-16	9.572375E-18
4.210000E+03	2.003230E-16	9.586720E-18
4.220000E+03	2.006412E-16	9.601660E-18
4.230000E+03	2.009716E-16	9.617183E-18
4.240000E+03	2.013331E-16	9.634193E-18
4.250000E+03	2.016878E-16	9.650879E-18
4.260000E+03	2.020543E-16	9.668127E-18
4.270000E+03	2.024321E-16	9.685915E-18
4.280000E+03	2.028212E-16	9.704239E-18
4.290000E+03	2.032020E-16	9.722170E-18
4.300000E+03	2.036118E-16	9.741484E-18
4.310000E+03	2.040311E-16	9.761252E-18
4.320000E+03	2.044409E-16	9.780563E-18
4.330000E+03	2.048777E-16	9.801166E-18
4.340000E+03	2.053037E-16	9.821252E-18
4.350000E+03	2.057369E-16	9.841680E-18
4.360000E+03	2.061955E-16	9.863324E-18
4.370000E+03	2.066416E-16	9.884366E-18
4.380000E+03	2.070936E-16	9.905690E-18
4.390000E+03	2.075323E-16	9.926380E-18
4.400000E+03	2.079946E-16	9.948196E-18
4.410000E+03	2.084619E-16	9.970245E-18
4.420000E+03	2.089153E-16	9.991633E-18
4.430000E+03	2.093732E-16	1.001323E-17
4.440000E+03	2.098539E-16	1.003592E-17
4.450000E+03	2.103203E-16	1.005793E-17
4.460000E+03	2.107905E-16	1.008012E-17
4.470000E+03	2.112458E-16	1.010159E-17
4.480000E+03	2.117227E-16	1.012409E-17
4.490000E+03	2.121839E-16	1.014585E-17
4.500000E+03	2.126656E-16	1.016858E-17
4.510000E+03	2.131302E-16	1.019049E-17
4.520000E+03	2.135953E-16	1.021243E-17
4.530000E+03	2.140601E-16	1.023435E-17
4.540000E+03	2.145049E-16	1.025531E-17
4.550000E+03	2.149653E-16	1.027703E-17
4.560000E+03	2.154035E-16	1.029767E-17
4.570000E+03	2.158361E-16	1.031805E-17
4.580000E+03	2.162619E-16	1.033811E-17
4.590000E+03	2.166793E-16	1.035776E-17
4.600000E+03	2.170682E-16	1.037604E-17
4.610000E+03	2.174636E-16	1.039464E-17
4.620000E+03	2.178272E-16	1.041172E-17
4.630000E+03	2.181753E-16	1.042806E-17
4.640000E+03	2.185061E-16	1.044357E-17
4.650000E+03	2.187998E-16	1.045730E-17
4.660000E+03	2.190910E-16	1.047092E-17
4.670000E+03	2.193414E-16	1.048258E-17
4.680000E+03	2.195675E-16	1.049309E-17
4.690000E+03	2.197498E-16	1.050150E-17
4.700000E+03	2.199230E-16	1.050948E-17
4.710000E+03	2.200497E-16	1.051524E-17
4.720000E+03	2.201469E-16	1.051959E-17
4.730000E+03	2.202141E-16	1.052250E-17
4.740000E+03	2.202507E-16	1.052395E-17
4.750000E+03	2.202386E-16	1.052308E-17
4.760000E+03	2.201963E-16	1.052076E-17
4.770000E+03	2.201246E-16	1.051705E-17
4.780000E+03	2.200247E-16	1.051198E-17
4.790000E+03	2.198800E-16	1.050478E-17
4.800000E+03	2.197103E-16	1.049638E-17
4.810000E+03	2.195173E-16	1.048687E-17
4.820000E+03	2.193031E-16	1.047635E-17
4.830000E+03	2.190521E-16	1.046407E-17
4.840000E+03	2.188014E-16	1.045181E-17
4.850000E+03	2.185003E-16	1.043715E-17
4.860000E+03	2.182035E-16	1.042269E-17
4.870000E+03	2.178951E-16	1.040768E-17
4.880000E+03	2.175592E-16	1.039135E-17
4.890000E+03	2.172147E-16	1.037462E-17
4.900000E+03	2.168630E-16	1.035755E-17
4.910000E+03	2.164877E-16	1.033935E-17
4.920000E+03	2.161071E-16	1.032090E-17
4.930000E+03	2.157218E-16	1.030223E-17
4.940000E+03	2.153322E-16	1.028335E-17
4.950000E+03	2.149219E-16	1.026349E-17
4.960000E+03	2.145078E-16	1.024345E-17
4.970000E+03	2.140900E-16	1.022323E-17
4.980000E+03	2.136683E-16	1.020283E-17
4.990000E+03	2.132257E-16	1.018143E-17
5.000000E+03	2.127950E-16	1.016061E-17
5.010000E+03	2.123258E-16	1.013794E-17
5.020000E+03	2.118674E-16	1.011580E-17
5.030000E+03	2.113858E-16	1.009255E-17
5.040000E+03	2.108966E-16	1.006894E-17
5.050000E+03	2.103988E-16	1.004492E-17
5.060000E+03	2.098915E-16	1.002045E-17
5.070000E+03	2.093572E-16	9.994688E-18
5.080000E+03	2.088108E-16	9.968359E-18
5.090000E+03	2.082514E-16	9.941406E-18
5.100000E+03	2.076613E-16	9.912995E-18
5.110000E+03	2.070715E-16	9.884597E-18
5.120000E+03	2.064483E-16	9.854607E-18
5.130000E+03	2.057906E-16	9.822972E-18
5.140000E+03	2.051284E-16	9.791131E-18
5.150000E+03	2.044289E-16	9.757505E-18
5.160000E+03	2.037060E-16	9.722770E-18
5.170000E+03	2.029584E-16	9.686855E-18
5.180000E+03	2.021689E-16	9.648948E-18
5.190000E+03	2.013517E-16	9.609717E-18
5.200000E+03	2.005053E-16	9.569098E-18
5.210000E+03	1.996280E-16	9.527006E-18
5.220000E+03	1.987036E-16	9.482670E-18
5.230000E+03	1.977458E-16	9.436744E-18
5.240000E+03	1.967535E-16	9.389174E-18
5.250000E+03	1.957255E-16	9.339906E-18
5.260000E+03	1.946461E-16	9.288187E-18
5.270000E+03	1.935294E-16	9.234691E-18
5.280000E+03	1.923747E-16	9.179385E-18
5.290000E+03	1.911815E-16	9.122249E-18
5.300000E+03	1.899349E-16	9.062565E-18
5.310000E+03	1.886494E-16	9.001031E-18
5.320000E+03	1.873249E-16	8.937639E-18
5.330000E+03	1.859615E-16	8.872396E-18
5.340000E+03	1.845456E-16	8.804655E-18
5.350000E+03	1.830919E-16	8.735111E-18
5.360000E+03	1.816009E-16	8.663791E-18
5.370000E+03	1.800733E-16	8.590732E-18
5.380000E+03	1.784968E-16	8.515342E-18
5.390000E+03	1.768858E-16	8.438314E-18
5.400000E+03	1.752417E-16	8.359710E-18
5.410000E+03	1.735658E-16	8.279591E-18
5.420000E+03	1.718469E-16	8.197425E-18
5.430000E+03	1.700995E-16	8.113906E-18
5.440000E+03	1.683257E-16	8.029135E-18
5.450000E+03	1.665276E-16	7.943205E-18
5.460000E+03	1.647073E-16	7.856221E-18
5.470000E+03	1.628551E-16	7.767724E-18
5.480000E+03	1.609861E-16	7.678426E-18
5.490000E+03	1.591031E-16	7.588465E-18
5.500000E+03	1.571972E-16	7.497419E-18
5.510000E+03	1.552952E-16	7.406560E-18
5.520000E+03	1.533768E-16	7.314926E-18
5.530000E+03	1.514570E-16	7.223229E-18
5.540000E+03	1.495393E-16	7.131638E-18
5.550000E+03	1.476160E-16	7.039786E-18
5.560000E+03	1.457129E-16	6.948896E-18
5.570000E+03	1.438114E-16	6.858092E-18
5.580000E+03	1.419261E-16	6.768064E-18
5.590000E+03	1.400499E-16	6.678468E-18
5.600000E+03	1.382072E-16	6.590481E-18
5.610000E+03	1.363806E-16	6.503264E-18
5.620000E+03	1.345838E-16	6.417468E-18
5.630000E+03	1.328198E-16	6.333243E-18
5.640000E+03	1.310916E-16	6.250729E-18
5.650000E+03	1.293924E-16	6.169603E-18
5.660000E+03	1.277350E-16	6.090471E-18
5.670000E+03	1.261215E-16	6.013438E-18
5.680000E+03	1.245547E-16	5.938634E-18
5.690000E+03	1.230363E-16	5.866142E-18
5.700000E+03	1.215686E-16	5.796070E-18
5.710000E+03	1.201445E-16	5.728076E-18
5.720000E+03	1.187744E-16	5.662668E-18
5.730000E+03	1.174600E-16	5.599913E-18
5.740000E+03	1.162025E-16	5.539872E-18
5.750000E+03	1.149943E-16	5.482186E-18
5.760000E+03	1.138534E-16	5.427709E-18
5.770000E+03	1.127637E-16	5.375678E-18
5.780000E+03	1.117342E-16	5.326519E-18
5.790000E+03	1.107654E-16	5.280258E-18
5.800000E+03	1.098577E-16	5.236911E-18
5.810000E+03	1.090115E-16	5.196494E-18
5.820000E+03	1.082188E-16	5.158633E-18
5.830000E+03	1.074881E-16	5.123728E-18
5.840000E+03	1.068195E-16	5.091784E-18
5.850000E+03	1.062131E-16	5.062809E-18
5.860000E+03	1.056692E-16	5.036812E-18
5.870000E+03	1.051879E-16	5.013802E-18
5.880000E+03	1.047618E-16	4.993425E-18
5.890000E+03	1.044067E-16	4.976436E-18
5.900000E+03	1.041077E-16	4.962118E-18
5.910000E+03	1.038730E-16	4.950865E-18
5.920000E+03	1.037031E-16	4.942706E-18
5.930000E+03	1.035989E-16	4.937677E-18
5.940000E+03	1.035535E-16	4.935452E-18
5.950000E+03	1.035833E-16	4.936811E-18
5.960000E+03	1.036740E-16	4.941075E-18
5.970000E+03	1.038345E-16	4.948666E-18
5.980000E+03	1.040662E-16	4.959650E-18
5.990000E+03	1.043704E-16	4.974094E-18
6.000000E+03	1.047488E-16	4.992073E-18
6.010000E+03	1.052031E-16	5.013665E-18
6.020000E+03	1.057348E-16	5.038951E-18
6.030000E+03	1.063379E-16	5.067639E-18
6.040000E+03	1.070219E-16	5.100183E-18
6.050000E+03	1.077966E-16	5.137047E-18
6.060000E+03	1.086476E-16	5.177554E-18
6.070000E+03	1.095847E-16	5.222159E-18
6.080000E+03	1.106010E-16	5.270540E-18
6.090000E+03	1.117142E-16	5.323538E-18
6.100000E+03	1.129172E-16	5.380815E-18
6.110000E+03	1.142023E-16	5.442007E-18
6.120000E+03	1.155867E-16	5.507926E-18
6.130000E+03	1.170533E-16	5.577765E-18
6.140000E+03	1.186100E-16	5.651899E-18
6.150000E+03	1.202646E-16	5.730696E-18
6.160000E+03	1.219973E-16	5.813215E-18
6.170000E+03	1.238143E-16	5.899756E-18
6.180000E+03	1.257028E-16	5.989699E-18
6.190000E+03	1.276770E-16	6.083723E-18
6.200000E+03	1.297218E-16	6.181117E-18
6.210000E+03	1.318210E-16	6.281102E-18
6.220000E+03	1.339862E-16	6.384232E-18
6.230000E+03	1.361886E-16	6.489131E-18
6.240000E+03	1.384377E-16	6.596262E-18
6.250000E+03	1.407017E-16	6.704099E-18
6.260000E+03	1.429778E-16	6.812514E-18
6.270000E+03	1.452520E-16	6.920838E-18
6.280000E+03	1.475094E-16	7.028363E-18
6.290000E+03	1.497338E-16	7.134318E-18
6.300000E+03	1.519089E-16	7.237924E-18
6.310000E+03	1.540059E-16	7.337810E-18
6.320000E+03	1.560304E-16	7.434241E-18
6.330000E+03	1.579536E-16	7.525852E-18
6.340000E+03	1.597469E-16	7.611270E-18
6.350000E+03	1.614172E-16	7.690831E-18
6.360000E+03	1.629253E-16	7.762661E-18
6.370000E+03	1.642687E-16	7.826648E-18
6.380000E+03	1.654466E-16	7.882755E-18
6.390000E+03	1.664232E-16	7.929268E-18
6.400000E+03	1.672012E-16	7.966321E-18
6.410000E+03	1.677730E-16	7.993555E-18
6.420000E+03	1.681333E-16	8.010709E-18
6.430000E+03	1.682786E-16	8.017623E-18
6.440000E+03	1.682077E-16	8.014238E-18
6.450000E+03	1.679217E-16	8.000608E-18
6.460000E+03	1.674108E-16	7.976262E-18
6.470000E+03	1.667054E-16	7.942654E-18
6.480000E+03	1.657998E-16	7.899505E-18
6.490000E+03	1.646897E-16	7.846618E-18
6.500000E+03	1.634101E-16	7.785654E-18
6.510000E+03	1.619598E-16	7.716559E-18
6.520000E+03	1.603388E-16	7.639333E-18
6.530000E+03	1.585726E-16	7.555193E-18
6.540000E+03	1.566868E-16	7.465352E-18
6.550000E+03	1.546717E-16	7.369355E-18
6.560000E+03	1.525539E-16	7.268463E-18
6.570000E+03	1.503593E-16	7.163914E-18
6.580000E+03	1.480792E-16	7.055298E-18
6.590000E+03	1.457396E-16	6.943842E-18
6.600000E+03	1.433543E-16	6.830208E-18
6.610000E+03	1.409366E-16	6.715037E-18
6.620000E+03	1.384996E-16	6.598943E-18
6.630000E+03	1.360553E-16	6.482503E-18
6.640000E+03	1.336155E-16	6.366277E-18
6.650000E+03	1.311911E-16	6.250784E-18
6.660000E+03	1.287919E-16	6.136498E-18
6.670000E+03	1.264277E-16	6.023873E-18
6.680000E+03	1.241070E-16	5.913326E-18
6.690000E+03	1.218284E-16	5.804782E-18
6.700000E+03	1.196179E-16	5.699485E-18
6.710000E+03	1.174727E-16	5.597296E-18
6.720000E+03	1.153982E-16	5.498483E-18
6.730000E+03	1.133915E-16	5.402896E-18
6.740000E+03	1.114744E-16	5.311577E-18
6.750000E+03	1.096339E-16	5.223907E-18
6.760000E+03	1.078904E-16	5.140862E-18
6.770000E+03	1.062304E-16	5.061796E-18
6.780000E+03	1.046730E-16	4.987620E-18
6.790000E+03	1.032045E-16	4.917675E-18
6.800000E+03	1.018426E-16	4.852816E-18
6.810000E+03	1.005735E-16	4.792376E-18
6.820000E+03	9.940647E-17	4.736799E-18
6.830000E+03	9.835030E-17	4.686505E-18
6.840000E+03	9.739088E-17	4.640822E-18
6.850000E+03	9.653672E-17	4.600155E-18
6.860000E+03	9.578861E-17	4.564542E-18
6.870000E+03	9.514718E-17	4.534013E-18
6.880000E+03	9.462030E-17	4.508943E-18
6.890000E+03	9.419385E-17	4.488659E-18
6.900000E+03	9.387561E-17	4.473532E-18
6.910000E+03	9.366592E-17	4.463579E-18
6.920000E+03	9.356509E-17	4.458815E-18
6.930000E+03	9.357341E-17	4.459252E-18
6.940000E+03	9.369101E-17	4.464899E-18
6.950000E+03	9.391804E-17	4.475761E-18
6.960000E+03	9.424718E-17	4.491491E-18
6.970000E+03	9.469289E-17	4.512777E-18
6.980000E+03	9.524761E-17	4.539260E-18
6.990000E+03	9.591091E-17	4.570919E-18
7.000000E+03	9.668214E-17	4.607723E-18
7.010000E+03	9.755277E-17	4.649266E-18
7.020000E+03	9.853664E-17	4.696209E-18
7.030000E+03	9.961690E-17	4.747747E-18
7.040000E+03	1.008069E-16	4.804518E-18
7.050000E+03	1.020964E-16	4.866035E-18
7.060000E+03	1.034744E-16	4.931768E-18
7.070000E+03	1.049530E-16	5.002304E-18
7.080000E+03	1.065117E-16	5.076659E-18
7.090000E+03	1.081534E-16	5.154969E-18
7.100000E+03	1.098805E-16	5.237356E-18
7.110000E+03	1.116692E-16	5.322684E-18
7.120000E+03	1.135201E-16	5.410976E-18
7.130000E+03	1.154244E-16	5.501820E-18
7.140000E+03	1.173815E-16	5.595184E-18
7.150000E+03	1.193622E-16	5.689674E-18
7.160000E+03	1.213637E-16	5.785163E-18
7.170000E+03	1.233732E-16	5.881035E-18
7.180000E+03	1.253768E-16	5.976635E-18
7.190000E+03	1.273601E-16	6.071267E-18
7.200000E+03	1.292973E-16	6.163707E-18
7.210000E+03	1.311930E-16	6.254170E-18
7.220000E+03	1.330206E-16	6.341394E-18
7.230000E+03	1.347637E-16	6.424593E-18
7.240000E+03	1.363952E-16	6.502475E-18
7.250000E+03	1.379204E-16	6.575290E-18
7.260000E+03	1.393020E-16	6.641270E-18
7.270000E+03	1.405473E-16	6.700749E-18
7.280000E+03	1.416207E-16	6.752040E-18
7.290000E+03	1.425325E-16	6.795629E-18
7.300000E+03	1.432498E-16	6.829948E-18
7.310000E+03	1.437754E-16	6.855131E-18
7.320000E+03	1.441145E-16	6.871424E-18
7.330000E+03	1.442400E-16	6.877532E-18
7.340000E+03	1.441616E-16	6.873920E-18
7.350000E+03	1.438797E-16	6.860608E-18
7.360000E+03	1.433975E-16	6.837746E-18
7.370000E+03	1.427087E-16	6.805028E-18
7.380000E+03	1.418433E-16	6.763897E-18
7.390000E+03	1.407994E-16	6.714251E-18
7.400000E+03	1.395881E-16	6.656618E-18
7.410000E+03	1.382107E-16	6.591068E-18
7.420000E+03	1.367034E-16	6.519320E-18
7.430000E+03	1.350590E-16	6.441039E-18
7.440000E+03	1.333042E-16	6.357484E-18
7.450000E+03	1.314654E-16	6.269923E-18
7.460000E+03	1.295375E-16	6.178108E-18
7.470000E+03	1.275468E-16	6.083303E-18
7.480000E+03	1.255091E-16	5.986249E-18
7.490000E+03	1.234391E-16	5.887652E-18
7.500000E+03	1.213511E-16	5.788191E-18
7.510000E+03	1.192580E-16	5.688486E-18
7.520000E+03	1.171624E-16	5.588659E-18
7.530000E+03	1.150943E-16	5.490139E-18
7.540000E+03	1.130534E-16	5.392914E-18
7.550000E+03	1.110392E-16	5.296961E-18
7.560000E+03	1.090679E-16	5.203052E-18
7.570000E+03	1.071542E-16	5.111882E-18
7.580000E+03	1.052852E-16	5.022846E-18
7.590000E+03	1.034736E-16	4.936544E-18
7.600000E+03	1.017222E-16	4.853114E-18
7.610000E+03	1.000332E-16	4.772656E-18
7.620000E+03	9.840797E-17	4.695234E-18
7.630000E+03	9.684719E-17	4.620887E-18
7.640000E+03	9.534331E-17	4.549251E-18
7.650000E+03	9.391175E-17	4.481064E-18
7.660000E+03	9.253639E-17	4.415556E-18
7.670000E+03	9.122397E-17	4.353048E-18
7.680000E+03	8.998057E-17	4.293832E-18
7.690000E+03	8.878977E-17	4.237123E-18
7.700000E+03	8.765726E-17	4.183194E-18
7.710000E+03	8.658112E-17	4.131953E-18
7.720000E+03	8.555927E-17	4.083301E-18
7.730000E+03	8.458259E-17	4.036802E-18
7.740000E+03	8.366284E-17	3.993019E-18
7.750000E+03	8.279073E-17	3.951507E-18
7.760000E+03	8.195719E-17	3.911836E-18
