#wls	flux	fluxerr
1.600000E+03	1.053220E-16	4.628041E-18
1.640000E+03	1.077266E-16	4.733543E-18
1.680000E+03	1.101585E-16	4.840237E-18
1.720000E+03	1.126149E-16	4.947990E-18
1.760000E+03	1.150917E-16	5.056634E-18
1.800000E+03	1.175657E-16	5.165134E-18
1.840000E+03	1.200721E-16	5.275053E-18
1.880000E+03	1.225873E-16	5.385337E-18
1.920000E+03	1.251064E-16	5.495783E-18
1.960000E+03	1.276463E-16	5.607128E-18
2.000000E+03	1.301591E-16	5.717268E-18
2.040000E+03	1.326830E-16	5.827878E-18
2.080000E+03	1.351908E-16	5.937768E-18
2.120000E+03	1.376997E-16	6.047688E-18
2.160000E+03	1.401816E-16	6.156408E-18
2.200000E+03	1.426538E-16	6.264687E-18
2.240000E+03	1.450876E-16	6.371259E-18
2.280000E+03	1.474766E-16	6.475850E-18
2.320000E+03	1.498632E-16	6.580312E-18
2.360000E+03	1.521936E-16	6.682293E-18
2.400000E+03	1.544864E-16	6.782605E-18
2.440000E+03	1.567362E-16	6.881008E-18
2.480000E+03	1.589375E-16	6.977266E-18
2.520000E+03	1.610602E-16	7.070053E-18
2.560000E+03	1.631493E-16	7.161344E-18
2.600000E+03	1.651749E-16	7.249832E-18
2.640000E+03	1.671325E-16	7.335315E-18
2.680000E+03	1.690433E-16	7.418726E-18
2.720000E+03	1.708526E-16	7.497662E-18
2.760000E+03	1.726078E-16	7.574204E-18
2.800000E+03	1.742800E-16	7.647089E-18
2.840000E+03	1.758922E-16	7.717316E-18
2.880000E+03	1.774418E-16	7.784780E-18
2.920000E+03	1.789010E-16	7.848261E-18
2.960000E+03	1.802682E-16	7.907689E-18
3.000000E+03	1.815675E-16	7.964114E-18
3.010000E+03	1.819012E-16	7.978608E-18
3.020000E+03	1.822005E-16	7.991594E-18
3.030000E+03	1.825161E-16	8.005289E-18
3.040000E+03	1.827972E-16	8.017475E-18
3.050000E+03	1.830946E-16	8.030371E-18
3.060000E+03	1.833827E-16	8.042857E-18
3.070000E+03	1.836618E-16	8.054948E-18
3.080000E+03	1.839567E-16	8.067735E-18
3.090000E+03	1.842174E-16	8.079017E-18
3.100000E+03	1.844941E-16	8.090999E-18
3.110000E+03	1.847615E-16	8.102577E-18
3.120000E+03	1.850199E-16	8.113755E-18
3.130000E+03	1.852940E-16	8.125619E-18
3.140000E+03	1.855339E-16	8.135988E-18
3.150000E+03	1.857897E-16	8.147048E-18
3.160000E+03	1.860114E-16	8.156613E-18
3.170000E+03	1.862489E-16	8.166869E-18
3.180000E+03	1.865019E-16	8.177805E-18
3.190000E+03	1.867209E-16	8.187252E-18
3.200000E+03	1.869309E-16	8.196299E-18
3.210000E+03	1.871563E-16	8.206022E-18
3.220000E+03	1.873727E-16	8.215346E-18
3.230000E+03	1.875799E-16	8.224270E-18
3.240000E+03	1.877779E-16	8.232790E-18
3.250000E+03	1.879914E-16	8.241985E-18
3.260000E+03	1.881713E-16	8.249706E-18
3.270000E+03	1.883665E-16	8.258098E-18
3.280000E+03	1.885527E-16	8.266096E-18
3.290000E+03	1.887297E-16	8.273689E-18
3.300000E+03	1.888979E-16	8.280892E-18
3.310000E+03	1.890810E-16	8.288752E-18
3.320000E+03	1.892312E-16	8.295167E-18
3.330000E+03	1.893964E-16	8.302238E-18
3.340000E+03	1.895527E-16	8.308919E-18
3.350000E+03	1.897000E-16	8.315205E-18
3.360000E+03	1.898623E-16	8.322148E-18
3.370000E+03	1.899921E-16	8.327661E-18
3.380000E+03	1.901368E-16	8.333829E-18
3.390000E+03	1.902726E-16	8.339608E-18
3.400000E+03	1.903998E-16	8.345008E-18
3.410000E+03	1.905183E-16	8.350027E-18
3.420000E+03	1.906282E-16	8.354666E-18
3.430000E+03	1.907531E-16	8.359962E-18
3.440000E+03	1.908460E-16	8.363856E-18
3.450000E+03	1.909539E-16	8.368406E-18
3.460000E+03	1.910534E-16	8.372586E-18
3.470000E+03	1.911447E-16	8.376405E-18
3.480000E+03	1.912508E-16	8.380876E-18
3.490000E+03	1.913258E-16	8.383979E-18
3.500000E+03	1.914158E-16	8.387743E-18
3.510000E+03	1.914978E-16	8.391151E-18
3.520000E+03	1.915720E-16	8.394218E-18
3.530000E+03	1.916386E-16	8.396953E-18
3.540000E+03	1.916976E-16	8.399352E-18
3.550000E+03	1.917718E-16	8.402416E-18
3.560000E+03	1.918161E-16	8.404170E-18
3.570000E+03	1.918759E-16	8.406605E-18
3.580000E+03	1.919286E-16	8.408727E-18
3.590000E+03	1.919744E-16	8.410547E-18
3.600000E+03	1.920137E-16	8.412077E-18
3.610000E+03	1.920687E-16	8.414298E-18
3.620000E+03	1.920953E-16	8.415271E-18
3.630000E+03	1.921379E-16	8.416949E-18
3.640000E+03	1.921746E-16	8.418366E-18
3.650000E+03	1.922058E-16	8.419539E-18
3.660000E+03	1.922314E-16	8.420471E-18
3.670000E+03	1.922520E-16	8.421177E-18
3.680000E+03	1.922894E-16	8.422625E-18
3.690000E+03	1.923005E-16	8.422918E-18
3.700000E+03	1.923291E-16	8.423972E-18
3.710000E+03	1.923319E-16	8.423903E-18
3.720000E+03	1.923527E-16	8.424616E-18
3.730000E+03	1.923700E-16	8.425179E-18
3.740000E+03	1.924054E-16	8.426532E-18
3.750000E+03	1.924169E-16	8.426840E-18
3.760000E+03	1.924261E-16	8.427042E-18
3.770000E+03	1.924542E-16	8.428077E-18
3.780000E+03	1.924597E-16	8.428119E-18
3.790000E+03	1.924849E-16	8.429024E-18
3.800000E+03	1.925091E-16	8.429884E-18
3.810000E+03	1.925329E-16	8.430725E-18
3.820000E+03	1.925565E-16	8.431556E-18
3.830000E+03	1.925804E-16	8.432405E-18
3.840000E+03	1.926050E-16	8.433278E-18
3.850000E+03	1.926308E-16	8.434207E-18
3.860000E+03	1.926785E-16	8.436095E-18
3.870000E+03	1.927078E-16	8.437171E-18
3.880000E+03	1.927596E-16	8.439239E-18
3.890000E+03	1.927940E-16	8.440540E-18
3.900000E+03	1.928517E-16	8.442861E-18
3.910000E+03	1.929130E-16	8.445339E-18
3.920000E+03	1.929781E-16	8.447984E-18
3.930000E+03	1.930476E-16	8.450821E-18
3.940000E+03	1.931216E-16	8.453857E-18
3.950000E+03	1.932009E-16	8.457119E-18
3.960000E+03	1.932854E-16	8.460614E-18
3.970000E+03	1.933759E-16	8.464367E-18
3.980000E+03	1.934725E-16	8.468388E-18
3.990000E+03	1.935952E-16	8.473549E-18
4.000000E+03	1.937051E-16	8.478152E-18
4.010000E+03	1.938223E-16	8.483072E-18
4.020000E+03	1.939664E-16	8.489169E-18
4.030000E+03	1.940989E-16	8.494757E-18
4.040000E+03	1.942396E-16	8.500704E-18
4.050000E+03	1.944081E-16	8.507866E-18
4.060000E+03	1.945661E-16	8.514568E-18
4.070000E+03	1.947524E-16	8.522510E-18
4.080000E+03	1.949288E-16	8.530019E-18
4.090000E+03	1.951343E-16	8.538797E-18
4.100000E+03	1.953305E-16	8.547172E-18
4.110000E+03	1.955562E-16	8.556834E-18
4.120000E+03	1.957734E-16	8.566121E-18
4.130000E+03	1.960204E-16	8.576715E-18
4.140000E+03	1.962597E-16	8.586968E-18
4.150000E+03	1.965290E-16	8.598537E-18
4.160000E+03	1.967911E-16	8.609789E-18
4.170000E+03	1.970836E-16	8.622370E-18
4.180000E+03	1.973693E-16	8.634650E-18
4.190000E+03	1.976667E-16	8.647445E-18
4.200000E+03	1.979950E-16	8.661589E-18
4.210000E+03	1.983165E-16	8.675435E-18
4.220000E+03	1.986499E-16	8.689802E-18
4.230000E+03	1.989953E-16	8.704690E-18
4.240000E+03	1.993709E-16	8.720902E-18
4.250000E+03	1.997394E-16	8.736797E-18
4.260000E+03	2.001191E-16	8.753185E-18
4.270000E+03	2.005097E-16	8.770049E-18
4.280000E+03	2.009107E-16	8.787368E-18
4.290000E+03	2.013033E-16	8.804316E-18
4.300000E+03	2.017241E-16	8.822498E-18
4.310000E+03	2.021539E-16	8.841072E-18
4.320000E+03	2.025738E-16	8.859213E-18
4.330000E+03	2.030201E-16	8.878507E-18
4.340000E+03	2.034553E-16	8.897316E-18
4.350000E+03	2.038976E-16	8.916430E-18
4.360000E+03	2.043645E-16	8.936624E-18
4.370000E+03	2.048190E-16	8.956272E-18
4.380000E+03	2.052788E-16	8.976153E-18
4.390000E+03	2.057254E-16	8.995454E-18
4.400000E+03	2.061952E-16	9.015768E-18
4.410000E+03	2.066694E-16	9.036276E-18
4.420000E+03	2.071296E-16	9.056167E-18
4.430000E+03	2.075937E-16	9.076233E-18
4.440000E+03	2.080800E-16	9.097265E-18
4.450000E+03	2.085516E-16	9.117655E-18
4.460000E+03	2.090265E-16	9.138186E-18
4.470000E+03	2.094860E-16	9.158048E-18
4.480000E+03	2.099664E-16	9.178816E-18
4.490000E+03	2.104305E-16	9.198876E-18
4.500000E+03	2.109143E-16	9.219796E-18
4.510000E+03	2.113807E-16	9.239954E-18
4.520000E+03	2.118470E-16	9.260107E-18
4.530000E+03	2.123123E-16	9.280215E-18
4.540000E+03	2.127575E-16	9.299443E-18
4.550000E+03	2.132179E-16	9.319334E-18
4.560000E+03	2.136557E-16	9.338239E-18
4.570000E+03	2.140880E-16	9.356900E-18
4.580000E+03	2.145132E-16	9.375253E-18
4.590000E+03	2.149300E-16	9.393238E-18
4.600000E+03	2.153185E-16	9.409988E-18
4.610000E+03	2.157138E-16	9.427030E-18
4.620000E+03	2.160775E-16	9.442693E-18
4.630000E+03	2.164263E-16	9.457706E-18
4.640000E+03	2.167585E-16	9.471992E-18
4.650000E+03	2.170544E-16	9.484690E-18
4.660000E+03	2.173484E-16	9.497306E-18
4.670000E+03	2.176028E-16	9.508192E-18
4.680000E+03	2.178341E-16	9.518068E-18
4.690000E+03	2.180228E-16	9.526085E-18
4.700000E+03	2.182039E-16	9.533768E-18
4.710000E+03	2.183400E-16	9.539485E-18
4.720000E+03	2.184484E-16	9.543994E-18
4.730000E+03	2.185283E-16	9.547260E-18
4.740000E+03	2.185795E-16	9.549270E-18
4.750000E+03	2.185840E-16	9.549239E-18
4.760000E+03	2.185599E-16	9.547961E-18
4.770000E+03	2.185080E-16	9.545470E-18
4.780000E+03	2.184291E-16	9.541799E-18
4.790000E+03	2.183069E-16	9.536237E-18
4.800000E+03	2.181604E-16	9.529614E-18
4.810000E+03	2.179912E-16	9.522004E-18
4.820000E+03	2.178010E-16	9.513477E-18
4.830000E+03	2.175741E-16	9.503345E-18
4.840000E+03	2.173473E-16	9.493219E-18
4.850000E+03	2.170698E-16	9.480883E-18
4.860000E+03	2.167956E-16	9.468691E-18
4.870000E+03	2.165090E-16	9.455955E-18
4.880000E+03	2.161940E-16	9.441984E-18
4.890000E+03	2.158691E-16	9.427583E-18
4.900000E+03	2.155355E-16	9.412803E-18
4.910000E+03	2.151772E-16	9.396943E-18
4.920000E+03	2.148119E-16	9.380780E-18
4.930000E+03	2.144404E-16	9.364346E-18
4.940000E+03	2.140630E-16	9.347661E-18
4.950000E+03	2.136631E-16	9.329993E-18
4.960000E+03	2.132579E-16	9.312092E-18
4.970000E+03	2.128472E-16	9.293955E-18
4.980000E+03	2.124308E-16	9.275571E-18
4.990000E+03	2.119919E-16	9.256204E-18
5.000000E+03	2.115633E-16	9.237289E-18
5.010000E+03	2.110946E-16	9.216627E-18
5.020000E+03	2.106349E-16	9.196358E-18
5.030000E+03	2.101506E-16	9.175017E-18
5.040000E+03	2.096572E-16	9.153277E-18
5.050000E+03	2.091535E-16	9.131094E-18
5.060000E+03	2.086389E-16	9.108436E-18
5.070000E+03	2.080959E-16	9.084539E-18
5.080000E+03	2.075398E-16	9.060070E-18
5.090000E+03	2.069691E-16	9.034969E-18
5.100000E+03	2.063668E-16	9.008489E-18
5.110000E+03	2.057635E-16	8.981964E-18
5.120000E+03	2.051259E-16	8.953947E-18
5.130000E+03	2.044529E-16	8.924390E-18
5.140000E+03	2.037747E-16	8.894602E-18
5.150000E+03	2.030583E-16	8.863154E-18
5.160000E+03	2.023182E-16	8.830668E-18
5.170000E+03	2.015527E-16	8.797082E-18
5.180000E+03	2.007453E-16	8.761665E-18
5.190000E+03	1.999098E-16	8.725024E-18
5.200000E+03	1.990449E-16	8.687107E-18
5.210000E+03	1.981495E-16	8.647855E-18
5.220000E+03	1.972070E-16	8.606554E-18
5.230000E+03	1.962316E-16	8.563819E-18
5.240000E+03	1.952222E-16	8.519603E-18
5.250000E+03	1.941779E-16	8.473862E-18
5.260000E+03	1.930830E-16	8.425920E-18
5.270000E+03	1.919518E-16	8.376396E-18
5.280000E+03	1.907835E-16	8.325257E-18
5.290000E+03	1.895779E-16	8.272494E-18
5.300000E+03	1.883204E-16	8.217468E-18
5.310000E+03	1.870254E-16	8.160808E-18
5.320000E+03	1.856930E-16	8.102520E-18
5.330000E+03	1.843234E-16	8.042608E-18
5.340000E+03	1.829030E-16	7.980486E-18
5.350000E+03	1.814466E-16	7.916797E-18
5.360000E+03	1.799547E-16	7.851562E-18
5.370000E+03	1.784281E-16	7.784817E-18
5.380000E+03	1.768545E-16	7.716025E-18
5.390000E+03	1.752486E-16	7.645824E-18
5.400000E+03	1.736115E-16	7.574268E-18
5.410000E+03	1.719446E-16	7.501413E-18
5.420000E+03	1.702365E-16	7.426768E-18
5.430000E+03	1.685021E-16	7.350977E-18
5.440000E+03	1.667431E-16	7.274116E-18
5.450000E+03	1.649618E-16	7.196282E-18
5.460000E+03	1.631599E-16	7.117560E-18
5.470000E+03	1.613281E-16	7.037530E-18
5.480000E+03	1.594809E-16	6.956837E-18
5.490000E+03	1.576213E-16	6.875603E-18
5.500000E+03	1.557401E-16	6.793434E-18
5.510000E+03	1.538640E-16	6.711489E-18
5.520000E+03	1.519727E-16	6.628885E-18
5.530000E+03	1.500810E-16	6.546266E-18
5.540000E+03	1.481921E-16	6.463775E-18
5.550000E+03	1.462984E-16	6.381074E-18
5.560000E+03	1.444251E-16	6.299268E-18
5.570000E+03	1.425538E-16	6.217553E-18
5.580000E+03	1.406988E-16	6.136552E-18
5.590000E+03	1.388529E-16	6.055951E-18
5.600000E+03	1.370402E-16	5.976804E-18
5.610000E+03	1.352434E-16	5.898347E-18
5.620000E+03	1.334757E-16	5.821168E-18
5.630000E+03	1.317402E-16	5.745395E-18
5.640000E+03	1.300399E-16	5.671156E-18
5.650000E+03	1.283677E-16	5.598152E-18
5.660000E+03	1.267362E-16	5.526920E-18
5.670000E+03	1.251477E-16	5.457570E-18
5.680000E+03	1.236044E-16	5.390194E-18
5.690000E+03	1.221086E-16	5.324890E-18
5.700000E+03	1.206622E-16	5.261740E-18
5.710000E+03	1.192580E-16	5.200434E-18
5.720000E+03	1.179066E-16	5.141434E-18
5.730000E+03	1.166094E-16	5.084803E-18
5.740000E+03	1.153677E-16	5.030591E-18
5.750000E+03	1.141741E-16	4.978476E-18
5.760000E+03	1.130465E-16	4.929244E-18
5.770000E+03	1.119686E-16	4.882183E-18
5.780000E+03	1.109498E-16	4.837695E-18
5.790000E+03	1.099904E-16	4.795803E-18
5.800000E+03	1.090908E-16	4.756520E-18
5.810000E+03	1.082515E-16	4.719866E-18
5.820000E+03	1.074647E-16	4.685503E-18
5.830000E+03	1.067387E-16	4.653795E-18
5.840000E+03	1.060738E-16	4.624749E-18
5.850000E+03	1.054701E-16	4.598375E-18
5.860000E+03	1.049280E-16	4.574685E-18
5.870000E+03	1.044476E-16	4.553687E-18
5.880000E+03	1.040216E-16	4.535062E-18
5.890000E+03	1.036657E-16	4.519499E-18
5.900000E+03	1.033652E-16	4.506348E-18
5.910000E+03	1.031283E-16	4.495969E-18
5.920000E+03	1.029555E-16	4.488390E-18
5.930000E+03	1.028478E-16	4.483644E-18
5.940000E+03	1.027983E-16	4.481439E-18
5.950000E+03	1.028232E-16	4.482482E-18
5.960000E+03	1.029086E-16	4.486157E-18
5.970000E+03	1.030631E-16	4.492850E-18
5.980000E+03	1.032882E-16	4.502618E-18
5.990000E+03	1.035853E-16	4.515525E-18
6.000000E+03	1.039559E-16	4.531636E-18
6.010000E+03	1.044015E-16	4.551021E-18
6.020000E+03	1.049240E-16	4.573754E-18
6.030000E+03	1.055171E-16	4.599566E-18
6.040000E+03	1.061902E-16	4.628869E-18
6.050000E+03	1.069530E-16	4.662080E-18
6.060000E+03	1.077913E-16	4.698581E-18
6.070000E+03	1.087144E-16	4.738782E-18
6.080000E+03	1.097157E-16	4.782386E-18
6.090000E+03	1.108124E-16	4.830155E-18
6.100000E+03	1.119975E-16	4.881771E-18
6.110000E+03	1.132631E-16	4.936900E-18
6.120000E+03	1.146262E-16	4.996281E-18
6.130000E+03	1.160699E-16	5.059171E-18
6.140000E+03	1.176016E-16	5.125897E-18
6.150000E+03	1.192289E-16	5.196794E-18
6.160000E+03	1.209324E-16	5.271009E-18
6.170000E+03	1.227178E-16	5.348793E-18
6.180000E+03	1.245723E-16	5.429591E-18
6.190000E+03	1.265098E-16	5.514006E-18
6.200000E+03	1.285155E-16	5.601395E-18
6.210000E+03	1.305732E-16	5.691048E-18
6.220000E+03	1.326941E-16	5.783462E-18
6.230000E+03	1.348500E-16	5.877396E-18
6.240000E+03	1.370503E-16	5.973266E-18
6.250000E+03	1.392636E-16	6.069703E-18
6.260000E+03	1.414873E-16	6.166594E-18
6.270000E+03	1.437077E-16	6.263343E-18
6.280000E+03	1.459103E-16	6.359315E-18
6.290000E+03	1.480795E-16	6.453835E-18
6.300000E+03	1.501993E-16	6.546201E-18
6.310000E+03	1.522418E-16	6.635198E-18
6.320000E+03	1.542126E-16	6.721071E-18
6.330000E+03	1.560839E-16	6.802607E-18
6.340000E+03	1.578271E-16	6.878564E-18
6.350000E+03	1.594500E-16	6.949279E-18
6.360000E+03	1.609139E-16	7.013062E-18
6.370000E+03	1.622162E-16	7.069806E-18
6.380000E+03	1.633569E-16	7.119509E-18
6.390000E+03	1.643005E-16	7.160620E-18
6.400000E+03	1.650496E-16	7.193259E-18
6.410000E+03	1.655970E-16	7.217107E-18
6.420000E+03	1.659373E-16	7.231930E-18
6.430000E+03	1.660670E-16	7.237575E-18
6.440000E+03	1.659851E-16	7.234001E-18
6.450000E+03	1.656924E-16	7.221240E-18
6.460000E+03	1.651793E-16	7.198877E-18
6.470000E+03	1.644756E-16	7.168204E-18
6.480000E+03	1.635753E-16	7.128969E-18
6.490000E+03	1.624744E-16	7.080991E-18
6.500000E+03	1.612072E-16	7.025765E-18
6.510000E+03	1.597723E-16	6.963234E-18
6.520000E+03	1.581696E-16	6.893390E-18
6.530000E+03	1.564243E-16	6.817332E-18
6.540000E+03	1.545614E-16	6.736152E-18
6.550000E+03	1.525716E-16	6.649440E-18
6.560000E+03	1.504805E-16	6.558316E-18
6.570000E+03	1.483140E-16	6.463905E-18
6.580000E+03	1.460636E-16	6.365839E-18
6.590000E+03	1.437545E-16	6.265215E-18
6.600000E+03	1.414006E-16	6.162638E-18
6.610000E+03	1.390150E-16	6.058684E-18
6.620000E+03	1.366104E-16	5.953896E-18
6.630000E+03	1.341989E-16	5.848814E-18
6.640000E+03	1.317919E-16	5.743927E-18
6.650000E+03	1.294002E-16	5.639703E-18
6.660000E+03	1.270338E-16	5.536585E-18
6.670000E+03	1.247020E-16	5.434979E-18
6.680000E+03	1.224133E-16	5.335245E-18
6.690000E+03	1.201664E-16	5.237337E-18
6.700000E+03	1.179868E-16	5.142361E-18
6.710000E+03	1.158718E-16	5.050201E-18
6.720000E+03	1.138270E-16	4.961101E-18
6.730000E+03	1.118490E-16	4.874913E-18
6.740000E+03	1.099597E-16	4.792591E-18
6.750000E+03	1.081462E-16	4.713572E-18
6.760000E+03	1.064286E-16	4.638733E-18
6.770000E+03	1.047936E-16	4.567493E-18
6.780000E+03	1.032600E-16	4.500674E-18
6.790000E+03	1.018142E-16	4.437681E-18
6.800000E+03	1.004738E-16	4.379285E-18
6.810000E+03	9.922512E-17	4.324884E-18
6.820000E+03	9.807729E-17	4.274879E-18
6.830000E+03	9.703900E-17	4.229649E-18
6.840000E+03	9.609629E-17	4.188586E-18
6.850000E+03	9.525761E-17	4.152056E-18
6.860000E+03	9.452369E-17	4.120094E-18
6.870000E+03	9.389517E-17	4.092726E-18
6.880000E+03	9.337981E-17	4.070290E-18
6.890000E+03	9.296370E-17	4.052182E-18
6.900000E+03	9.265448E-17	4.038733E-18
6.910000E+03	9.245251E-17	4.029959E-18
6.920000E+03	9.235812E-17	4.025875E-18
6.930000E+03	9.237153E-17	4.026491E-18
6.940000E+03	9.249294E-17	4.031815E-18
6.950000E+03	9.272244E-17	4.041852E-18
6.960000E+03	9.305285E-17	4.056289E-18
6.970000E+03	9.349842E-17	4.075747E-18
6.980000E+03	9.405170E-17	4.099901E-18
6.990000E+03	9.471226E-17	4.128732E-18
7.000000E+03	9.547944E-17	4.162213E-18
7.010000E+03	9.634485E-17	4.199977E-18
7.020000E+03	9.732211E-17	4.242619E-18
7.030000E+03	9.839460E-17	4.289413E-18
7.040000E+03	9.957548E-17	4.340935E-18
7.050000E+03	1.008547E-16	4.396744E-18
7.060000E+03	1.022212E-16	4.456362E-18
7.070000E+03	1.036872E-16	4.520318E-18
7.080000E+03	1.052322E-16	4.587722E-18
7.090000E+03	1.068590E-16	4.658696E-18
7.100000E+03	1.085703E-16	4.733352E-18
7.110000E+03	1.103424E-16	4.810662E-18
7.120000E+03	1.121756E-16	4.890643E-18
7.130000E+03	1.140616E-16	4.972925E-18
7.140000E+03	1.159996E-16	5.057476E-18
7.150000E+03	1.179607E-16	5.143040E-18
7.160000E+03	1.199423E-16	5.229500E-18
7.170000E+03	1.219316E-16	5.316296E-18
7.180000E+03	1.239150E-16	5.402839E-18
7.190000E+03	1.258779E-16	5.488494E-18
7.200000E+03	1.277953E-16	5.572164E-18
7.210000E+03	1.296713E-16	5.654035E-18
7.220000E+03	1.314799E-16	5.732972E-18
7.230000E+03	1.332048E-16	5.808261E-18
7.240000E+03	1.348193E-16	5.878736E-18
7.250000E+03	1.363283E-16	5.944618E-18
7.260000E+03	1.376954E-16	6.004313E-18
7.270000E+03	1.389276E-16	6.058132E-18
7.280000E+03	1.399899E-16	6.104542E-18
7.290000E+03	1.408925E-16	6.143988E-18
7.300000E+03	1.416026E-16	6.175048E-18
7.310000E+03	1.421235E-16	6.197854E-18
7.320000E+03	1.424599E-16	6.212617E-18
7.330000E+03	1.425853E-16	6.218181E-18
7.340000E+03	1.425093E-16	6.214962E-18
7.350000E+03	1.422324E-16	6.202988E-18
7.360000E+03	1.417577E-16	6.182381E-18
7.370000E+03	1.410789E-16	6.152879E-18
7.380000E+03	1.402260E-16	6.115780E-18
7.390000E+03	1.391967E-16	6.070991E-18
7.400000E+03	1.380022E-16	6.018995E-18
7.410000E+03	1.366438E-16	5.959848E-18
7.420000E+03	1.351571E-16	5.895109E-18
7.430000E+03	1.335350E-16	5.824458E-18
7.440000E+03	1.318038E-16	5.749051E-18
7.450000E+03	1.299895E-16	5.670016E-18
7.460000E+03	1.280869E-16	5.587129E-18
7.470000E+03	1.261221E-16	5.501526E-18
7.480000E+03	1.241104E-16	5.413879E-18
7.490000E+03	1.220665E-16	5.324822E-18
7.500000E+03	1.200041E-16	5.234956E-18
7.510000E+03	1.179362E-16	5.144844E-18
7.520000E+03	1.158650E-16	5.054591E-18
7.530000E+03	1.138203E-16	4.965490E-18
7.540000E+03	1.118018E-16	4.877531E-18
7.550000E+03	1.098091E-16	4.790691E-18
7.560000E+03	1.078579E-16	4.705663E-18
7.570000E+03	1.059629E-16	4.623085E-18
7.580000E+03	1.041116E-16	4.542406E-18
7.590000E+03	1.023163E-16	4.464172E-18
7.600000E+03	1.005800E-16	4.388510E-18
7.610000E+03	9.890486E-17	4.315513E-18
7.620000E+03	9.729226E-17	4.245242E-18
7.630000E+03	9.574301E-17	4.177734E-18
7.640000E+03	9.424968E-17	4.112664E-18
7.650000E+03	9.282759E-17	4.050699E-18
7.660000E+03	9.146084E-17	3.991149E-18
7.670000E+03	9.015618E-17	3.934305E-18
7.680000E+03	8.891965E-17	3.880433E-18
7.690000E+03	8.773508E-17	3.828826E-18
7.700000E+03	8.660816E-17	3.779734E-18
7.710000E+03	8.553704E-17	3.733075E-18
7.720000E+03	8.451973E-17	3.688763E-18
7.730000E+03	8.354727E-17	3.646407E-18
7.740000E+03	8.263134E-17	3.606517E-18
7.750000E+03	8.176279E-17	3.568694E-18
7.760000E+03	8.093274E-17	3.532550E-18
