#wls	flux	fluxerr
1.600000E+03	7.655623E-15	1.159401E-15
1.640000E+03	7.809809E-15	1.108985E-15
1.680000E+03	7.966682E-15	1.057605E-15
1.720000E+03	8.126353E-15	1.005779E-15
1.760000E+03	8.289747E-15	9.542342E-16
1.800000E+03	8.458509E-15	9.038773E-16
1.840000E+03	8.631380E-15	8.554242E-16
1.880000E+03	8.810487E-15	8.100813E-16
1.920000E+03	8.995514E-15	7.688943E-16
1.960000E+03	9.185741E-15	7.329116E-16
2.000000E+03	9.379345E-15	7.030005E-16
2.040000E+03	9.574803E-15	6.797835E-16
2.080000E+03	9.769203E-15	6.633367E-16
2.120000E+03	9.958663E-15	6.531524E-16
2.160000E+03	1.014166E-14	6.484150E-16
2.200000E+03	1.031488E-14	6.478966E-16
2.240000E+03	1.047637E-14	6.503519E-16
2.280000E+03	1.062598E-14	6.546584E-16
2.320000E+03	1.076506E-14	6.598485E-16
2.360000E+03	1.089658E-14	6.651621E-16
2.400000E+03	1.102329E-14	6.700431E-16
2.440000E+03	1.114666E-14	6.742196E-16
2.480000E+03	1.126785E-14	6.779014E-16
2.520000E+03	1.138487E-14	6.816469E-16
2.560000E+03	1.149566E-14	6.864277E-16
2.600000E+03	1.159688E-14	6.932559E-16
2.640000E+03	1.168708E-14	7.029549E-16
2.680000E+03	1.176637E-14	7.157636E-16
2.720000E+03	1.183743E-14	7.312387E-16
2.760000E+03	1.190486E-14	7.483243E-16
2.800000E+03	1.197381E-14	7.655549E-16
2.840000E+03	1.204951E-14	7.813354E-16
2.880000E+03	1.213738E-14	7.941856E-16
2.920000E+03	1.224145E-14	8.027698E-16
2.960000E+03	1.236672E-14	8.060920E-16
3.000000E+03	1.251663E-14	8.033294E-16
3.010000E+03	1.255875E-14	8.016400E-16
3.020000E+03	1.260251E-14	7.995155E-16
3.030000E+03	1.264794E-14	7.969483E-16
3.040000E+03	1.269563E-14	7.939669E-16
3.050000E+03	1.274531E-14	7.905462E-16
3.060000E+03	1.279700E-14	7.866798E-16
3.070000E+03	1.285097E-14	7.823790E-16
3.080000E+03	1.290697E-14	7.776212E-16
3.090000E+03	1.296500E-14	7.724019E-16
3.100000E+03	1.302561E-14	7.667489E-16
3.110000E+03	1.308824E-14	7.606257E-16
3.120000E+03	1.315316E-14	7.540446E-16
3.130000E+03	1.322009E-14	7.469872E-16
3.140000E+03	1.328979E-14	7.394951E-16
3.150000E+03	1.336146E-14	7.315211E-16
3.160000E+03	1.343531E-14	7.230779E-16
3.170000E+03	1.351157E-14	7.141773E-16
3.180000E+03	1.359017E-14	7.048171E-16
3.190000E+03	1.367055E-14	6.949697E-16
3.200000E+03	1.375339E-14	6.846738E-16
3.210000E+03	1.383812E-14	6.739033E-16
3.220000E+03	1.392488E-14	6.626713E-16
3.230000E+03	1.401332E-14	6.509676E-16
3.240000E+03	1.410358E-14	6.388065E-16
3.250000E+03	1.419553E-14	6.261916E-16
3.260000E+03	1.428904E-14	6.131282E-16
3.270000E+03	1.438371E-14	5.996134E-16
3.280000E+03	1.447964E-14	5.856679E-16
3.290000E+03	1.457665E-14	5.713046E-16
3.300000E+03	1.467435E-14	5.565311E-16
3.310000E+03	1.477278E-14	5.413789E-16
3.320000E+03	1.487155E-14	5.258669E-16
3.330000E+03	1.497071E-14	5.100388E-16
3.340000E+03	1.506986E-14	4.939307E-16
3.350000E+03	1.516883E-14	4.775979E-16
3.360000E+03	1.526750E-14	4.611092E-16
3.370000E+03	1.536573E-14	4.445497E-16
3.380000E+03	1.546344E-14	4.280239E-16
3.390000E+03	1.556034E-14	4.116537E-16
3.400000E+03	1.565665E-14	3.956018E-16
3.410000E+03	1.575198E-14	3.800459E-16
3.420000E+03	1.584689E-14	3.652231E-16
3.430000E+03	1.594114E-14	3.513894E-16
3.440000E+03	1.603504E-14	3.388530E-16
3.450000E+03	1.612900E-14	3.279599E-16
3.460000E+03	1.622334E-14	3.190788E-16
3.470000E+03	1.631895E-14	3.125945E-16
3.480000E+03	1.641641E-14	3.088579E-16
3.490000E+03	1.651627E-14	3.081445E-16
3.500000E+03	1.661883E-14	3.105576E-16
3.510000E+03	1.672326E-14	3.159397E-16
3.520000E+03	1.682884E-14	3.240008E-16
3.530000E+03	1.693405E-14	3.343676E-16
3.540000E+03	1.703825E-14	3.466602E-16
3.550000E+03	1.714052E-14	3.604978E-16
3.560000E+03	1.724021E-14	3.755295E-16
3.570000E+03	1.733636E-14	3.914309E-16
3.580000E+03	1.742829E-14	4.079198E-16
3.590000E+03	1.751577E-14	4.247617E-16
3.600000E+03	1.759784E-14	4.417374E-16
3.610000E+03	1.767437E-14	4.586779E-16
3.620000E+03	1.774488E-14	4.754313E-16
3.630000E+03	1.780871E-14	4.918625E-16
3.640000E+03	1.786543E-14	5.078604E-16
3.650000E+03	1.791485E-14	5.233359E-16
3.660000E+03	1.795638E-14	5.382017E-16
3.670000E+03	1.799006E-14	5.523994E-16
3.680000E+03	1.801514E-14	5.658562E-16
3.690000E+03	1.803151E-14	5.785255E-16
3.700000E+03	1.803886E-14	5.903613E-16
3.710000E+03	1.803709E-14	6.013298E-16
3.720000E+03	1.802575E-14	6.113901E-16
3.730000E+03	1.800478E-14	6.205185E-16
3.740000E+03	1.797399E-14	6.286893E-16
3.750000E+03	1.793335E-14	6.358871E-16
3.760000E+03	1.788272E-14	6.420942E-16
3.770000E+03	1.782215E-14	6.473027E-16
3.780000E+03	1.775153E-14	6.515020E-16
3.790000E+03	1.767081E-14	6.546851E-16
3.800000E+03	1.758047E-14	6.568676E-16
3.810000E+03	1.748017E-14	6.580364E-16
3.820000E+03	1.737027E-14	6.582077E-16
3.830000E+03	1.725118E-14	6.574004E-16
3.840000E+03	1.712282E-14	6.556181E-16
3.850000E+03	1.698547E-14	6.528799E-16
3.860000E+03	1.683960E-14	6.492142E-16
3.870000E+03	1.668553E-14	6.446457E-16
3.880000E+03	1.652361E-14	6.392019E-16
3.890000E+03	1.635405E-14	6.329067E-16
3.900000E+03	1.617740E-14	6.257982E-16
3.910000E+03	1.599403E-14	6.179104E-16
3.920000E+03	1.580437E-14	6.092791E-16
3.930000E+03	1.560884E-14	5.999414E-16
3.940000E+03	1.540786E-14	5.899361E-16
3.950000E+03	1.520201E-14	5.793078E-16
3.960000E+03	1.499175E-14	5.680968E-16
3.970000E+03	1.477739E-14	5.563385E-16
3.980000E+03	1.455965E-14	5.440840E-16
3.990000E+03	1.433886E-14	5.313693E-16
4.000000E+03	1.411562E-14	5.182399E-16
4.010000E+03	1.389039E-14	5.047365E-16
4.020000E+03	1.366353E-14	4.908945E-16
4.030000E+03	1.343574E-14	4.767624E-16
4.040000E+03	1.320739E-14	4.623746E-16
4.050000E+03	1.297906E-14	4.477733E-16
4.060000E+03	1.275122E-14	4.329955E-16
4.070000E+03	1.252434E-14	4.180775E-16
4.080000E+03	1.229889E-14	4.030546E-16
4.090000E+03	1.207544E-14	3.879648E-16
4.100000E+03	1.185434E-14	3.728383E-16
4.110000E+03	1.163606E-14	3.577081E-16
4.120000E+03	1.142124E-14	3.426127E-16
4.130000E+03	1.121013E-14	3.275778E-16
4.140000E+03	1.100325E-14	3.126378E-16
4.150000E+03	1.080105E-14	2.978245E-16
4.160000E+03	1.060394E-14	2.831699E-16
4.170000E+03	1.041233E-14	2.687073E-16
4.180000E+03	1.022664E-14	2.544714E-16
4.190000E+03	1.004725E-14	2.404997E-16
4.200000E+03	9.874555E-15	2.268334E-16
4.210000E+03	9.708951E-15	2.135187E-16
4.220000E+03	9.550816E-15	2.006089E-16
4.230000E+03	9.400448E-15	1.881648E-16
4.240000E+03	9.258232E-15	1.762615E-16
4.250000E+03	9.124632E-15	1.649906E-16
4.260000E+03	9.000035E-15	1.544609E-16
4.270000E+03	8.884678E-15	1.448010E-16
4.280000E+03	8.779045E-15	1.361674E-16
4.290000E+03	8.683541E-15	1.287373E-16
4.300000E+03	8.598558E-15	1.226999E-16
4.310000E+03	8.524407E-15	1.182327E-16
4.320000E+03	8.460979E-15	1.154421E-16
4.330000E+03	8.407976E-15	1.143403E-16
4.340000E+03	8.364717E-15	1.148789E-16
4.350000E+03	8.330831E-15	1.169724E-16
4.360000E+03	8.305813E-15	1.205010E-16
4.370000E+03	8.289172E-15	1.253076E-16
4.380000E+03	8.280173E-15	1.311869E-16
4.390000E+03	8.278119E-15	1.379310E-16
4.400000E+03	8.282265E-15	1.453514E-16
4.410000E+03	8.292061E-15	1.532895E-16
4.420000E+03	8.306852E-15	1.616114E-16
4.430000E+03	8.326027E-15	1.702071E-16
4.440000E+03	8.349161E-15	1.789900E-16
4.450000E+03	8.375719E-15	1.878869E-16
4.460000E+03	8.405268E-15	1.968395E-16
4.470000E+03	8.437484E-15	2.058021E-16
4.480000E+03	8.471838E-15	2.147317E-16
4.490000E+03	8.508057E-15	2.235975E-16
4.500000E+03	8.545816E-15	2.323722E-16
4.510000E+03	8.584729E-15	2.410309E-16
4.520000E+03	8.624512E-15	2.495539E-16
4.530000E+03	8.664899E-15	2.579246E-16
4.540000E+03	8.705646E-15	2.661287E-16
4.550000E+03	8.746527E-15	2.741542E-16
4.560000E+03	8.787253E-15	2.819881E-16
4.570000E+03	8.827552E-15	2.896186E-16
4.580000E+03	8.867418E-15	2.970437E-16
4.590000E+03	8.906533E-15	3.042515E-16
4.600000E+03	8.944677E-15	3.112338E-16
4.610000E+03	8.981817E-15	3.179893E-16
4.620000E+03	9.017853E-15	3.245146E-16
4.630000E+03	9.052442E-15	3.307980E-16
4.640000E+03	9.085777E-15	3.368472E-16
4.650000E+03	9.117455E-15	3.426482E-16
4.660000E+03	9.147612E-15	3.482069E-16
4.670000E+03	9.176134E-15	3.535202E-16
4.680000E+03	9.202917E-15	3.585850E-16
4.690000E+03	9.227866E-15	3.633984E-16
4.700000E+03	9.250894E-15	3.679575E-16
4.710000E+03	9.272106E-15	3.722670E-16
4.720000E+03	9.291336E-15	3.763203E-16
4.730000E+03	9.308517E-15	3.801147E-16
4.740000E+03	9.323676E-15	3.836505E-16
4.750000E+03	9.336564E-15	3.869167E-16
4.760000E+03	9.347401E-15	3.899209E-16
4.770000E+03	9.355847E-15	3.926472E-16
4.780000E+03	9.362030E-15	3.950989E-16
4.790000E+03	9.365892E-15	3.972710E-16
4.800000E+03	9.367188E-15	3.991504E-16
4.810000E+03	9.365954E-15	4.007356E-16
4.820000E+03	9.362230E-15	4.020252E-16
4.830000E+03	9.355773E-15	4.030056E-16
4.840000E+03	9.346630E-15	4.036755E-16
4.850000E+03	9.334753E-15	4.040301E-16
4.860000E+03	9.320007E-15	4.040608E-16
4.870000E+03	9.302359E-15	4.037637E-16
4.880000E+03	9.281876E-15	4.031401E-16
4.890000E+03	9.258447E-15	4.021839E-16
4.900000E+03	9.232157E-15	4.008981E-16
4.910000E+03	9.202821E-15	3.992749E-16
4.920000E+03	9.170549E-15	3.973198E-16
4.930000E+03	9.135366E-15	3.950356E-16
4.940000E+03	9.097220E-15	3.924224E-16
4.950000E+03	9.056257E-15	3.894894E-16
4.960000E+03	9.012448E-15	3.862393E-16
4.970000E+03	8.965966E-15	3.826836E-16
4.980000E+03	8.916807E-15	3.788271E-16
4.990000E+03	8.865073E-15	3.746791E-16
5.000000E+03	8.810788E-15	3.702462E-16
5.010000E+03	8.754254E-15	3.655468E-16
5.020000E+03	8.695423E-15	3.605845E-16
5.030000E+03	8.634433E-15	3.553709E-16
5.040000E+03	8.571522E-15	3.499212E-16
5.050000E+03	8.506750E-15	3.442435E-16
5.060000E+03	8.440274E-15	3.383491E-16
5.070000E+03	8.372254E-15	3.322493E-16
5.080000E+03	8.302851E-15	3.259550E-16
5.090000E+03	8.232143E-15	3.194735E-16
5.100000E+03	8.160295E-15	3.128148E-16
5.110000E+03	8.087557E-15	3.059921E-16
5.120000E+03	8.013926E-15	2.990081E-16
5.130000E+03	7.939731E-15	2.918781E-16
5.140000E+03	7.864889E-15	2.846014E-16
5.150000E+03	7.789724E-15	2.771922E-16
5.160000E+03	7.714317E-15	2.696555E-16
5.170000E+03	7.638825E-15	2.619990E-16
5.180000E+03	7.563407E-15	2.542303E-16
5.190000E+03	7.488141E-15	2.463544E-16
5.200000E+03	7.413186E-15	2.383791E-16
5.210000E+03	7.338621E-15	2.303103E-16
5.220000E+03	7.264756E-15	2.221614E-16
5.230000E+03	7.191523E-15	2.139346E-16
5.240000E+03	7.119159E-15	2.056429E-16
5.250000E+03	7.047824E-15	1.972977E-16
5.260000E+03	6.977682E-15	1.889123E-16
5.270000E+03	6.908761E-15	1.804982E-16
5.280000E+03	6.841303E-15	1.720758E-16
5.290000E+03	6.775416E-15	1.636649E-16
5.300000E+03	6.711284E-15	1.552919E-16
5.310000E+03	6.649028E-15	1.469875E-16
5.320000E+03	6.588913E-15	1.387927E-16
5.330000E+03	6.531008E-15	1.307539E-16
5.340000E+03	6.475530E-15	1.229328E-16
5.350000E+03	6.422636E-15	1.154052E-16
5.360000E+03	6.372629E-15	1.082689E-16
5.370000E+03	6.325565E-15	1.016403E-16
5.380000E+03	6.281773E-15	9.566670E-17
5.390000E+03	6.241470E-15	9.051905E-17
5.400000E+03	6.204891E-15	8.638832E-17
5.410000E+03	6.172156E-15	8.346653E-17
5.420000E+03	6.143501E-15	8.191851E-17
5.430000E+03	6.119066E-15	8.182533E-17
5.440000E+03	6.098531E-15	8.313433E-17
5.450000E+03	6.081603E-15	8.568587E-17
5.460000E+03	6.067727E-15	8.926551E-17
5.470000E+03	6.056464E-15	9.365289E-17
5.480000E+03	6.047696E-15	9.864969E-17
5.490000E+03	6.041082E-15	1.040826E-16
5.500000E+03	6.036541E-15	1.098131E-16
5.510000E+03	6.033890E-15	1.157293E-16
5.520000E+03	6.033145E-15	1.217471E-16
5.530000E+03	6.034032E-15	1.277962E-16
5.540000E+03	6.036474E-15	1.338252E-16
5.550000E+03	6.040288E-15	1.397924E-16
5.560000E+03	6.045481E-15	1.456698E-16
5.570000E+03	6.051832E-15	1.514308E-16
5.580000E+03	6.059251E-15	1.570575E-16
5.590000E+03	6.067594E-15	1.625348E-16
5.600000E+03	6.076856E-15	1.678541E-16
5.610000E+03	6.086850E-15	1.730049E-16
5.620000E+03	6.097525E-15	1.779819E-16
5.630000E+03	6.108837E-15	1.827817E-16
5.640000E+03	6.120690E-15	1.874005E-16
5.650000E+03	6.133054E-15	1.918373E-16
5.660000E+03	6.145781E-15	1.960881E-16
5.670000E+03	6.158855E-15	2.001531E-16
5.680000E+03	6.172265E-15	2.040335E-16
5.690000E+03	6.185941E-15	2.077285E-16
5.700000E+03	6.199812E-15	2.112374E-16
5.710000E+03	6.213813E-15	2.145596E-16
5.720000E+03	6.228009E-15	2.176989E-16
5.730000E+03	6.242203E-15	2.206501E-16
5.740000E+03	6.256458E-15	2.234168E-16
5.750000E+03	6.270708E-15	2.259977E-16
5.760000E+03	6.284813E-15	2.283888E-16
5.770000E+03	6.298766E-15	2.305904E-16
5.780000E+03	6.312556E-15	2.326027E-16
5.790000E+03	6.326033E-15	2.344203E-16
5.800000E+03	6.339112E-15	2.360400E-16
5.810000E+03	6.351840E-15	2.374631E-16
5.820000E+03	6.363989E-15	2.386806E-16
5.830000E+03	6.375534E-15	2.396906E-16
5.840000E+03	6.386379E-15	2.404885E-16
5.850000E+03	6.396429E-15	2.410697E-16
5.860000E+03	6.405663E-15	2.414319E-16
5.870000E+03	6.413849E-15	2.415650E-16
5.880000E+03	6.421045E-15	2.414697E-16
5.890000E+03	6.427101E-15	2.411391E-16
5.900000E+03	6.431949E-15	2.405691E-16
5.910000E+03	6.435530E-15	2.397562E-16
5.920000E+03	6.437797E-15	2.386975E-16
5.930000E+03	6.438792E-15	2.373935E-16
5.940000E+03	6.438351E-15	2.358374E-16
5.950000E+03	6.436472E-15	2.340284E-16
5.960000E+03	6.433242E-15	2.319693E-16
5.970000E+03	6.428693E-15	2.296613E-16
5.980000E+03	6.422727E-15	2.271009E-16
5.990000E+03	6.415556E-15	2.242960E-16
6.000000E+03	6.407036E-15	2.212426E-16
6.010000E+03	6.397488E-15	2.179527E-16
6.020000E+03	6.386796E-15	2.144238E-16
6.030000E+03	6.375080E-15	2.106621E-16
6.040000E+03	6.362547E-15	2.066768E-16
6.050000E+03	6.349261E-15	2.024731E-16
6.060000E+03	6.335369E-15	1.980594E-16
6.070000E+03	6.320873E-15	1.934404E-16
6.080000E+03	6.306080E-15	1.886315E-16
6.090000E+03	6.290921E-15	1.836377E-16
6.100000E+03	6.275707E-15	1.784772E-16
6.110000E+03	6.260522E-15	1.731634E-16
6.120000E+03	6.245450E-15	1.677124E-16
6.130000E+03	6.230646E-15	1.621456E-16
6.140000E+03	6.216344E-15	1.564905E-16
6.150000E+03	6.202624E-15	1.507754E-16
6.160000E+03	6.189638E-15	1.450371E-16
6.170000E+03	6.177697E-15	1.393237E-16
6.180000E+03	6.166804E-15	1.336855E-16
6.190000E+03	6.157197E-15	1.281899E-16
6.200000E+03	6.149121E-15	1.229177E-16
6.210000E+03	6.142832E-15	1.179653E-16
6.220000E+03	6.138438E-15	1.134433E-16
6.230000E+03	6.136143E-15	1.094805E-16
6.240000E+03	6.136248E-15	1.062217E-16
6.250000E+03	6.138914E-15	1.038167E-16
6.260000E+03	6.144476E-15	1.024136E-16
6.270000E+03	6.153186E-15	1.021359E-16
6.280000E+03	6.165283E-15	1.030505E-16
6.290000E+03	6.180663E-15	1.051208E-16
6.300000E+03	6.199105E-15	1.082453E-16
6.310000E+03	6.220456E-15	1.122964E-16
6.320000E+03	6.244578E-15	1.171382E-16
6.330000E+03	6.271176E-15	1.226364E-16
6.340000E+03	6.300140E-15	1.286715E-16
6.350000E+03	6.331374E-15	1.351393E-16
6.360000E+03	6.364611E-15	1.419470E-16
6.370000E+03	6.399854E-15	1.490225E-16
6.380000E+03	6.436932E-15	1.563024E-16
6.390000E+03	6.475670E-15	1.637341E-16
6.400000E+03	6.515887E-15	1.712736E-16
6.410000E+03	6.557585E-15	1.788890E-16
6.420000E+03	6.600479E-15	1.865467E-16
6.430000E+03	6.644563E-15	1.942252E-16
6.440000E+03	6.689633E-15	2.019014E-16
6.450000E+03	6.735475E-15	2.095543E-16
6.460000E+03	6.781971E-15	2.171678E-16
6.470000E+03	6.828893E-15	2.247240E-16
6.480000E+03	6.876114E-15	2.322092E-16
6.490000E+03	6.923187E-15	2.395995E-16
6.500000E+03	6.970083E-15	2.468856E-16
6.510000E+03	7.016561E-15	2.540513E-16
6.520000E+03	7.062273E-15	2.610764E-16
6.530000E+03	7.107091E-15	2.679487E-16
6.540000E+03	7.150784E-15	2.746524E-16
6.550000E+03	7.193132E-15	2.811720E-16
6.560000E+03	7.233922E-15	2.874924E-16
6.570000E+03	7.273072E-15	2.936041E-16
6.580000E+03	7.310282E-15	2.994889E-16
6.590000E+03	7.345386E-15	3.051346E-16
6.600000E+03	7.378355E-15	3.105351E-16
6.610000E+03	7.409065E-15	3.156810E-16
6.620000E+03	7.437288E-15	3.205592E-16
6.630000E+03	7.463063E-15	3.251689E-16
6.640000E+03	7.486205E-15	3.295004E-16
6.650000E+03	7.506927E-15	3.335625E-16
6.660000E+03	7.524962E-15	3.373435E-16
6.670000E+03	7.540314E-15	3.408447E-16
6.680000E+03	7.553136E-15	3.440752E-16
6.690000E+03	7.563477E-15	3.470401E-16
6.700000E+03	7.571268E-15	3.497399E-16
6.710000E+03	7.576588E-15	3.521824E-16
6.720000E+03	7.579662E-15	3.543831E-16
6.730000E+03	7.580461E-15	3.563459E-16
6.740000E+03	7.579236E-15	3.580881E-16
6.750000E+03	7.575838E-15	3.596085E-16
6.760000E+03	7.570665E-15	3.609317E-16
6.770000E+03	7.563575E-15	3.620571E-16
6.780000E+03	7.554971E-15	3.630094E-16
6.790000E+03	7.544712E-15	3.637875E-16
6.800000E+03	7.533061E-15	3.644093E-16
6.810000E+03	7.520141E-15	3.648856E-16
6.820000E+03	7.505931E-15	3.652201E-16
6.830000E+03	7.490679E-15	3.654289E-16
6.840000E+03	7.474346E-15	3.655140E-16
6.850000E+03	7.457165E-15	3.654900E-16
6.860000E+03	7.438939E-15	3.653504E-16
6.870000E+03	7.420018E-15	3.651148E-16
6.880000E+03	7.400322E-15	3.647817E-16
6.890000E+03	7.379902E-15	3.643554E-16
6.900000E+03	7.358656E-15	3.638324E-16
6.910000E+03	7.336893E-15	3.632294E-16
6.920000E+03	7.314210E-15	3.625273E-16
6.930000E+03	7.291036E-15	3.617483E-16
6.940000E+03	7.267089E-15	3.608790E-16
6.950000E+03	7.242360E-15	3.599193E-16
6.960000E+03	7.216973E-15	3.588755E-16
6.970000E+03	7.190764E-15	3.577397E-16
6.980000E+03	7.163704E-15	3.565103E-16
6.990000E+03	7.135761E-15	3.551855E-16
7.000000E+03	7.106898E-15	3.537631E-16
7.010000E+03	7.077076E-15	3.522410E-16
7.020000E+03	7.046117E-15	3.506098E-16
7.030000E+03	7.014261E-15	3.488808E-16
7.040000E+03	6.981055E-15	3.470310E-16
7.050000E+03	6.946879E-15	3.450786E-16
7.060000E+03	6.911289E-15	3.430009E-16
7.070000E+03	6.874535E-15	3.408097E-16
7.080000E+03	6.836460E-15	3.384965E-16
7.090000E+03	6.797051E-15	3.360601E-16
7.100000E+03	6.756438E-15	3.335064E-16
7.110000E+03	6.714351E-15	3.308214E-16
7.120000E+03	6.670938E-15	3.280120E-16
7.130000E+03	6.626084E-15	3.250721E-16
7.140000E+03	6.579952E-15	3.220094E-16
7.150000E+03	6.532578E-15	3.188254E-16
7.160000E+03	6.483875E-15	3.155157E-16
7.170000E+03	6.434029E-15	3.120892E-16
7.180000E+03	6.382841E-15	3.085363E-16
7.190000E+03	6.330643E-15	3.048730E-16
7.200000E+03	6.277379E-15	3.010968E-16
7.210000E+03	6.223005E-15	2.972058E-16
7.220000E+03	6.167738E-15	2.932105E-16
7.230000E+03	6.111669E-15	2.891157E-16
7.240000E+03	6.054769E-15	2.849200E-16
7.250000E+03	5.997137E-15	2.806287E-16
7.260000E+03	5.938878E-15	2.762467E-16
7.270000E+03	5.880092E-15	2.717793E-16
7.280000E+03	5.820884E-15	2.672313E-16
7.290000E+03	5.761117E-15	2.625970E-16
7.300000E+03	5.701135E-15	2.578922E-16
7.310000E+03	5.640922E-15	2.531165E-16
7.320000E+03	5.580462E-15	2.482692E-16
7.330000E+03	5.519972E-15	2.433604E-16
7.340000E+03	5.459318E-15	2.383843E-16
7.350000E+03	5.398599E-15	2.333455E-16
7.360000E+03	5.337911E-15	2.282485E-16
7.370000E+03	5.277233E-15	2.230926E-16
7.380000E+03	5.216767E-15	2.178869E-16
7.390000E+03	5.156269E-15	2.126214E-16
7.400000E+03	5.096044E-15	2.073095E-16
7.410000E+03	5.035957E-15	2.019462E-16
7.420000E+03	4.976193E-15	1.965398E-16
7.430000E+03	4.916721E-15	1.910901E-16
7.440000E+03	4.857613E-15	1.856008E-16
7.450000E+03	4.799039E-15	1.800800E-16
7.460000E+03	4.740957E-15	1.745273E-16
7.470000E+03	4.683729E-15	1.689579E-16
7.480000E+03	4.627202E-15	1.633679E-16
7.490000E+03	4.571623E-15	1.577684E-16
7.500000E+03	4.516933E-15	1.521599E-16
7.510000E+03	4.463463E-15	1.465569E-16
7.520000E+03	4.411147E-15	1.409609E-16
7.530000E+03	4.360013E-15	1.353775E-16
7.540000E+03	4.310183E-15	1.298165E-16
7.550000E+03	4.261682E-15	1.242862E-16
7.560000E+03	4.214717E-15	1.188017E-16
7.570000E+03	4.169123E-15	1.133698E-16
7.580000E+03	4.125012E-15	1.080081E-16
7.590000E+03	4.082496E-15	1.027375E-16
7.600000E+03	4.041507E-15	9.757865E-17
7.610000E+03	4.002159E-15	9.256234E-17
7.620000E+03	3.964389E-15	8.772170E-17
7.630000E+03	3.928407E-15	8.310391E-17
7.640000E+03	3.894073E-15	7.875763E-17
7.650000E+03	3.861608E-15	7.474936E-17
7.660000E+03	3.830890E-15	7.114918E-17
7.670000E+03	3.802157E-15	6.804350E-17
7.680000E+03	3.775312E-15	6.551838E-17
7.690000E+03	3.750614E-15	6.366552E-17
7.700000E+03	3.728073E-15	6.256064E-17
7.710000E+03	3.707769E-15	6.225351E-17
7.720000E+03	3.689691E-15	6.273700E-17
7.730000E+03	3.673726E-15	6.394518E-17
7.740000E+03	3.659750E-15	6.578570E-17
7.750000E+03	3.647560E-15	6.815578E-17
7.760000E+03	3.637226E-15	7.095970E-17
