#wls	flux	fluxerr
1.600000E+03	9.447252E-15	1.072433E-15
1.640000E+03	9.636800E-15	9.885931E-16
1.680000E+03	9.816727E-15	9.006379E-16
1.720000E+03	9.985833E-15	8.092616E-16
1.760000E+03	1.014036E-14	7.151202E-16
1.800000E+03	1.027741E-14	6.191855E-16
1.840000E+03	1.039510E-14	5.227209E-16
1.880000E+03	1.048954E-14	4.271435E-16
1.920000E+03	1.055984E-14	3.343382E-16
1.960000E+03	1.060496E-14	2.466321E-16
2.000000E+03	1.063092E-14	1.675267E-16
2.040000E+03	1.064778E-14	1.038800E-16
2.080000E+03	1.067622E-14	7.300629E-17
2.120000E+03	1.073317E-14	8.145867E-17
2.160000E+03	1.081372E-14	9.219878E-17
2.200000E+03	1.091029E-14	8.840344E-17
2.240000E+03	1.103552E-14	7.869559E-17
2.280000E+03	1.120752E-14	8.956888E-17
2.320000E+03	1.142175E-14	1.237456E-16
2.360000E+03	1.165438E-14	1.612149E-16
2.400000E+03	1.188562E-14	1.898271E-16
2.440000E+03	1.210436E-14	2.031101E-16
2.480000E+03	1.230833E-14	1.974081E-16
2.520000E+03	1.250769E-14	1.714062E-16
2.560000E+03	1.273087E-14	1.273811E-16
2.600000E+03	1.303271E-14	8.138081E-17
2.640000E+03	1.348520E-14	9.869420E-17
2.680000E+03	1.408304E-14	1.799039E-16
2.720000E+03	1.475955E-14	2.784729E-16
2.760000E+03	1.545744E-14	3.812833E-16
2.800000E+03	1.613680E-14	4.819412E-16
2.840000E+03	1.677065E-14	5.752151E-16
2.880000E+03	1.733798E-14	6.563550E-16
2.920000E+03	1.782620E-14	7.213640E-16
2.960000E+03	1.822811E-14	7.671663E-16
3.000000E+03	1.854059E-14	7.917532E-16
3.010000E+03	1.860403E-14	7.944306E-16
3.020000E+03	1.866145E-14	7.957023E-16
3.030000E+03	1.871309E-14	7.955788E-16
3.040000E+03	1.875864E-14	7.940535E-16
3.050000E+03	1.879783E-14	7.911246E-16
3.060000E+03	1.883130E-14	7.868343E-16
3.070000E+03	1.885782E-14	7.811499E-16
3.080000E+03	1.887804E-14	7.741222E-16
3.090000E+03	1.889163E-14	7.657670E-16
3.100000E+03	1.889877E-14	7.561234E-16
3.110000E+03	1.889913E-14	7.452165E-16
3.120000E+03	1.889285E-14	7.330938E-16
3.130000E+03	1.887964E-14	7.197899E-16
3.140000E+03	1.885921E-14	7.053452E-16
3.150000E+03	1.883169E-14	6.898206E-16
3.160000E+03	1.879724E-14	6.732802E-16
3.170000E+03	1.875558E-14	6.557776E-16
3.180000E+03	1.870649E-14	6.373720E-16
3.190000E+03	1.865013E-14	6.181401E-16
3.200000E+03	1.858671E-14	5.981612E-16
3.210000E+03	1.851605E-14	5.775059E-16
3.220000E+03	1.843804E-14	5.562488E-16
3.230000E+03	1.835261E-14	5.344686E-16
3.240000E+03	1.826045E-14	5.122663E-16
3.250000E+03	1.816157E-14	4.897229E-16
3.260000E+03	1.805606E-14	4.669217E-16
3.270000E+03	1.794410E-14	4.439473E-16
3.280000E+03	1.782624E-14	4.208918E-16
3.290000E+03	1.770251E-14	3.978310E-16
3.300000E+03	1.757423E-14	3.748665E-16
3.310000E+03	1.744132E-14	3.520621E-16
3.320000E+03	1.730440E-14	3.294928E-16
3.330000E+03	1.716475E-14	3.072387E-16
3.340000E+03	1.702291E-14	2.853584E-16
3.350000E+03	1.687984E-14	2.639114E-16
3.360000E+03	1.673661E-14	2.429543E-16
3.370000E+03	1.659447E-14	2.225422E-16
3.380000E+03	1.645480E-14	2.027339E-16
3.390000E+03	1.631898E-14	1.835951E-16
3.400000E+03	1.618927E-14	1.652196E-16
3.410000E+03	1.606700E-14	1.477229E-16
3.420000E+03	1.595448E-14	1.312850E-16
3.430000E+03	1.585438E-14	1.161731E-16
3.440000E+03	1.576891E-14	1.027720E-16
3.450000E+03	1.570031E-14	9.162116E-17
3.460000E+03	1.565120E-14	8.339194E-17
3.470000E+03	1.562290E-14	7.871449E-17
3.480000E+03	1.561416E-14	7.779847E-17
3.490000E+03	1.561791E-14	8.005666E-17
3.500000E+03	1.562620E-14	8.445227E-17
3.510000E+03	1.563422E-14	8.995372E-17
3.520000E+03	1.563982E-14	9.576906E-17
3.530000E+03	1.564165E-14	1.013725E-16
3.540000E+03	1.563968E-14	1.064575E-16
3.550000E+03	1.563420E-14	1.108703E-16
3.560000E+03	1.562662E-14	1.145662E-16
3.570000E+03	1.561846E-14	1.175666E-16
3.580000E+03	1.561130E-14	1.199345E-16
3.590000E+03	1.560727E-14	1.217603E-16
3.600000E+03	1.560817E-14	1.231443E-16
3.610000E+03	1.561563E-14	1.241899E-16
3.620000E+03	1.563156E-14	1.250018E-16
3.630000E+03	1.565756E-14	1.256782E-16
3.640000E+03	1.569521E-14	1.263096E-16
3.650000E+03	1.574523E-14	1.269697E-16
3.660000E+03	1.580841E-14	1.277200E-16
3.670000E+03	1.588494E-14	1.286017E-16
3.680000E+03	1.597496E-14	1.296383E-16
3.690000E+03	1.607743E-14	1.308253E-16
3.700000E+03	1.619175E-14	1.321436E-16
3.710000E+03	1.631617E-14	1.335506E-16
3.720000E+03	1.644904E-14	1.349955E-16
3.730000E+03	1.658850E-14	1.364238E-16
3.740000E+03	1.673240E-14	1.377844E-16
3.750000E+03	1.687858E-14	1.390384E-16
3.760000E+03	1.702525E-14	1.401667E-16
3.770000E+03	1.717034E-14	1.411653E-16
3.780000E+03	1.731258E-14	1.420530E-16
3.790000E+03	1.745022E-14	1.428561E-16
3.800000E+03	1.758249E-14	1.436140E-16
3.810000E+03	1.770830E-14	1.443624E-16
3.820000E+03	1.782720E-14	1.451352E-16
3.830000E+03	1.793877E-14	1.459562E-16
3.840000E+03	1.804242E-14	1.468362E-16
3.850000E+03	1.813828E-14	1.477799E-16
3.860000E+03	1.822604E-14	1.487793E-16
3.870000E+03	1.830547E-14	1.498189E-16
3.880000E+03	1.837658E-14	1.508795E-16
3.890000E+03	1.843894E-14	1.519335E-16
3.900000E+03	1.849267E-14	1.529540E-16
3.910000E+03	1.853727E-14	1.539070E-16
3.920000E+03	1.857263E-14	1.547603E-16
3.930000E+03	1.859836E-14	1.554798E-16
3.940000E+03	1.861402E-14	1.560336E-16
3.950000E+03	1.861951E-14	1.563965E-16
3.960000E+03	1.861433E-14	1.565460E-16
3.970000E+03	1.859848E-14	1.564713E-16
3.980000E+03	1.857175E-14	1.561675E-16
3.990000E+03	1.853405E-14	1.556382E-16
4.000000E+03	1.848555E-14	1.548953E-16
4.010000E+03	1.842652E-14	1.539568E-16
4.020000E+03	1.835706E-14	1.528425E-16
4.030000E+03	1.827765E-14	1.515770E-16
4.040000E+03	1.818885E-14	1.501865E-16
4.050000E+03	1.809112E-14	1.486962E-16
4.060000E+03	1.798483E-14	1.471286E-16
4.070000E+03	1.787077E-14	1.455063E-16
4.080000E+03	1.774947E-14	1.438435E-16
4.090000E+03	1.762142E-14	1.421443E-16
4.100000E+03	1.748708E-14	1.404005E-16
4.110000E+03	1.734695E-14	1.385895E-16
4.120000E+03	1.720154E-14	1.366755E-16
4.130000E+03	1.705173E-14	1.346149E-16
4.140000E+03	1.689814E-14	1.323576E-16
4.150000E+03	1.674173E-14	1.298585E-16
4.160000E+03	1.658369E-14	1.270828E-16
4.170000E+03	1.642567E-14	1.240122E-16
4.180000E+03	1.626916E-14	1.206401E-16
4.190000E+03	1.611598E-14	1.169746E-16
4.200000E+03	1.596789E-14	1.130318E-16
4.210000E+03	1.582665E-14	1.088327E-16
4.220000E+03	1.569373E-14	1.043995E-16
4.230000E+03	1.557054E-14	9.975777E-17
4.240000E+03	1.545785E-14	9.493889E-17
4.250000E+03	1.535622E-14	8.999246E-17
4.260000E+03	1.526549E-14	8.499814E-17
4.270000E+03	1.518523E-14	8.008673E-17
4.280000E+03	1.511458E-14	7.545676E-17
4.290000E+03	1.505218E-14	7.138282E-17
4.300000E+03	1.499655E-14	6.819899E-17
4.310000E+03	1.494634E-14	6.622723E-17
4.320000E+03	1.490076E-14	6.559361E-17
4.330000E+03	1.486017E-14	6.617686E-17
4.340000E+03	1.482524E-14	6.780047E-17
4.350000E+03	1.479629E-14	7.032426E-17
4.360000E+03	1.477384E-14	7.365568E-17
4.370000E+03	1.475746E-14	7.766474E-17
4.380000E+03	1.474570E-14	8.209363E-17
4.390000E+03	1.473681E-14	8.665944E-17
4.400000E+03	1.472911E-14	9.111673E-17
4.410000E+03	1.472117E-14	9.527730E-17
4.420000E+03	1.471223E-14	9.901630E-17
4.430000E+03	1.470163E-14	1.022641E-16
4.440000E+03	1.468935E-14	1.050016E-16
4.450000E+03	1.467574E-14	1.072492E-16
4.460000E+03	1.466122E-14	1.090533E-16
4.470000E+03	1.464625E-14	1.104759E-16
4.480000E+03	1.463136E-14	1.115856E-16
4.490000E+03	1.461682E-14	1.124479E-16
4.500000E+03	1.460275E-14	1.131217E-16
4.510000E+03	1.458943E-14	1.136599E-16
4.520000E+03	1.457666E-14	1.141035E-16
4.530000E+03	1.456422E-14	1.144865E-16
4.540000E+03	1.455183E-14	1.148352E-16
4.550000E+03	1.453917E-14	1.151697E-16
4.560000E+03	1.452605E-14	1.155052E-16
4.570000E+03	1.451222E-14	1.158514E-16
4.580000E+03	1.449749E-14	1.162135E-16
4.590000E+03	1.448180E-14	1.165938E-16
4.600000E+03	1.446532E-14	1.169931E-16
4.610000E+03	1.444820E-14	1.174107E-16
4.620000E+03	1.443063E-14	1.178441E-16
4.630000E+03	1.441314E-14	1.182936E-16
4.640000E+03	1.439625E-14	1.187593E-16
4.650000E+03	1.438057E-14	1.192429E-16
4.660000E+03	1.436655E-14	1.197453E-16
4.670000E+03	1.435504E-14	1.202728E-16
4.680000E+03	1.434655E-14	1.208308E-16
4.690000E+03	1.434197E-14	1.214306E-16
4.700000E+03	1.434216E-14	1.220866E-16
4.710000E+03	1.434768E-14	1.228141E-16
4.720000E+03	1.435938E-14	1.236347E-16
4.730000E+03	1.437787E-14	1.245709E-16
4.740000E+03	1.440363E-14	1.256465E-16
4.750000E+03	1.443694E-14	1.268850E-16
4.760000E+03	1.447791E-14	1.283074E-16
4.770000E+03	1.452613E-14	1.299277E-16
4.780000E+03	1.458119E-14	1.317552E-16
4.790000E+03	1.464243E-14	1.337890E-16
4.800000E+03	1.470874E-14	1.360146E-16
4.810000E+03	1.477877E-14	1.384031E-16
4.820000E+03	1.485101E-14	1.409107E-16
4.830000E+03	1.492346E-14	1.434750E-16
4.840000E+03	1.499419E-14	1.460217E-16
4.850000E+03	1.506098E-14	1.484639E-16
4.860000E+03	1.512143E-14	1.507068E-16
4.870000E+03	1.517344E-14	1.526581E-16
4.880000E+03	1.521487E-14	1.542296E-16
4.890000E+03	1.524385E-14	1.553455E-16
4.900000E+03	1.525879E-14	1.559467E-16
4.910000E+03	1.525836E-14	1.559938E-16
4.920000E+03	1.524209E-14	1.554748E-16
4.930000E+03	1.520944E-14	1.543959E-16
4.940000E+03	1.516079E-14	1.527901E-16
4.950000E+03	1.509680E-14	1.507096E-16
4.960000E+03	1.501847E-14	1.482217E-16
4.970000E+03	1.492736E-14	1.454086E-16
4.980000E+03	1.482518E-14	1.423576E-16
4.990000E+03	1.471376E-14	1.391582E-16
5.000000E+03	1.459472E-14	1.358933E-16
5.010000E+03	1.447032E-14	1.326436E-16
5.020000E+03	1.434188E-14	1.294696E-16
5.030000E+03	1.421127E-14	1.264226E-16
5.040000E+03	1.407990E-14	1.235341E-16
5.050000E+03	1.394871E-14	1.208173E-16
5.060000E+03	1.381892E-14	1.182744E-16
5.070000E+03	1.369156E-14	1.158968E-16
5.080000E+03	1.356717E-14	1.136656E-16
5.090000E+03	1.344658E-14	1.115625E-16
5.100000E+03	1.333044E-14	1.095677E-16
5.110000E+03	1.321933E-14	1.076641E-16
5.120000E+03	1.311364E-14	1.058367E-16
5.130000E+03	1.301383E-14	1.040751E-16
5.140000E+03	1.292042E-14	1.023733E-16
5.150000E+03	1.283356E-14	1.007261E-16
5.160000E+03	1.275340E-14	9.913037E-17
5.170000E+03	1.267999E-14	9.758383E-17
5.180000E+03	1.261323E-14	9.608383E-17
5.190000E+03	1.255276E-14	9.462609E-17
5.200000E+03	1.249838E-14	9.320733E-17
5.210000E+03	1.244967E-14	9.182256E-17
5.220000E+03	1.240602E-14	9.046532E-17
5.230000E+03	1.236693E-14	8.912935E-17
5.240000E+03	1.233201E-14	8.780812E-17
5.250000E+03	1.230062E-14	8.649114E-17
5.260000E+03	1.227215E-14	8.516429E-17
5.270000E+03	1.224623E-14	8.380959E-17
5.280000E+03	1.222240E-14	8.240110E-17
5.290000E+03	1.220015E-14	8.090459E-17
5.300000E+03	1.217885E-14	7.927679E-17
5.310000E+03	1.215793E-14	7.746837E-17
5.320000E+03	1.213676E-14	7.542616E-17
5.330000E+03	1.211463E-14	7.309789E-17
5.340000E+03	1.209079E-14	7.043913E-17
5.350000E+03	1.206425E-14	6.742201E-17
5.360000E+03	1.203426E-14	6.405031E-17
5.370000E+03	1.199973E-14	6.037465E-17
5.380000E+03	1.195974E-14	5.651879E-17
5.390000E+03	1.191327E-14	5.270808E-17
5.400000E+03	1.185969E-14	4.929699E-17
5.410000E+03	1.179839E-14	4.675948E-17
5.420000E+03	1.172938E-14	4.559152E-17
5.430000E+03	1.165399E-14	4.603980E-17
5.440000E+03	1.157514E-14	4.788844E-17
5.450000E+03	1.149507E-14	5.065065E-17
5.460000E+03	1.141556E-14	5.383699E-17
5.470000E+03	1.133760E-14	5.707985E-17
5.480000E+03	1.126223E-14	6.014903E-17
5.490000E+03	1.118993E-14	6.292056E-17
5.500000E+03	1.112121E-14	6.534556E-17
5.510000E+03	1.105630E-14	6.742169E-17
5.520000E+03	1.099515E-14	6.917269E-17
5.530000E+03	1.093785E-14	7.063769E-17
5.540000E+03	1.088404E-14	7.185827E-17
5.550000E+03	1.083327E-14	7.287519E-17
5.560000E+03	1.078511E-14	7.372615E-17
5.570000E+03	1.073925E-14	7.444453E-17
5.580000E+03	1.069516E-14	7.505676E-17
5.590000E+03	1.065249E-14	7.558490E-17
5.600000E+03	1.061096E-14	7.604662E-17
5.610000E+03	1.057042E-14	7.645604E-17
5.620000E+03	1.053084E-14	7.682464E-17
5.630000E+03	1.049231E-14	7.716209E-17
5.640000E+03	1.045495E-14	7.747604E-17
5.650000E+03	1.041920E-14	7.777494E-17
5.660000E+03	1.038538E-14	7.806520E-17
5.670000E+03	1.035410E-14	7.835453E-17
5.680000E+03	1.032579E-14	7.864888E-17
5.690000E+03	1.030103E-14	7.895482E-17
5.700000E+03	1.028049E-14	7.927954E-17
5.710000E+03	1.026461E-14	7.962818E-17
5.720000E+03	1.025402E-14	8.000698E-17
5.730000E+03	1.024908E-14	8.041968E-17
5.740000E+03	1.025016E-14	8.086988E-17
5.750000E+03	1.025756E-14	8.136003E-17
5.760000E+03	1.027171E-14	8.189302E-17
5.770000E+03	1.029235E-14	8.246594E-17
5.780000E+03	1.031974E-14	8.307969E-17
5.790000E+03	1.035333E-14	8.372811E-17
5.800000E+03	1.039309E-14	8.440876E-17
5.810000E+03	1.043834E-14	8.511362E-17
5.820000E+03	1.048824E-14	8.583248E-17
5.830000E+03	1.054208E-14	8.655561E-17
5.840000E+03	1.059864E-14	8.726781E-17
5.850000E+03	1.065676E-14	8.795301E-17
5.860000E+03	1.071474E-14	8.858933E-17
5.870000E+03	1.077134E-14	8.915734E-17
5.880000E+03	1.082464E-14	8.963075E-17
5.890000E+03	1.087312E-14	8.998647E-17
5.900000E+03	1.091478E-14	9.019770E-17
5.910000E+03	1.094818E-14	9.024371E-17
5.920000E+03	1.097179E-14	9.010539E-17
5.930000E+03	1.098429E-14	8.976923E-17
5.940000E+03	1.098455E-14	8.922829E-17
5.950000E+03	1.097216E-14	8.848775E-17
5.960000E+03	1.094690E-14	8.756008E-17
5.970000E+03	1.090882E-14	8.646503E-17
5.980000E+03	1.085884E-14	8.523167E-17
5.990000E+03	1.079790E-14	8.388937E-17
6.000000E+03	1.072756E-14	8.247021E-17
6.010000E+03	1.064973E-14	8.100462E-17
6.020000E+03	1.056628E-14	7.951784E-17
6.030000E+03	1.047955E-14	7.803315E-17
6.040000E+03	1.039194E-14	7.656960E-17
6.050000E+03	1.030591E-14	7.514231E-17
6.060000E+03	1.022363E-14	7.376093E-17
6.070000E+03	1.014749E-14	7.243378E-17
6.080000E+03	1.007987E-14	7.116708E-17
6.090000E+03	1.002264E-14	6.996124E-17
6.100000E+03	9.977916E-15	6.881608E-17
6.110000E+03	9.947226E-15	6.772490E-17
6.120000E+03	9.932412E-15	6.667992E-17
6.130000E+03	9.934566E-15	6.566425E-17
6.140000E+03	9.954623E-15	6.465520E-17
6.150000E+03	9.993437E-15	6.362392E-17
6.160000E+03	1.005105E-14	6.253029E-17
6.170000E+03	1.012695E-14	6.132517E-17
6.180000E+03	1.022037E-14	5.995383E-17
6.190000E+03	1.032942E-14	5.835486E-17
6.200000E+03	1.045106E-14	5.646775E-17
6.210000E+03	1.058131E-14	5.424756E-17
6.220000E+03	1.071437E-14	5.168149E-17
6.230000E+03	1.084350E-14	4.882499E-17
6.240000E+03	1.096043E-14	4.584227E-17
6.250000E+03	1.105585E-14	4.305407E-17
6.260000E+03	1.112035E-14	4.095529E-17
6.270000E+03	1.114547E-14	4.011717E-17
6.280000E+03	1.112703E-14	4.087131E-17
6.290000E+03	1.106891E-14	4.294720E-17
6.300000E+03	1.097952E-14	4.578362E-17
6.310000E+03	1.086830E-14	4.887383E-17
6.320000E+03	1.074545E-14	5.188541E-17
6.330000E+03	1.061952E-14	5.464454E-17
6.340000E+03	1.049845E-14	5.709561E-17
6.350000E+03	1.038828E-14	5.925087E-17
6.360000E+03	1.029381E-14	6.116047E-17
6.370000E+03	1.021875E-14	6.289122E-17
6.380000E+03	1.016567E-14	6.451348E-17
6.390000E+03	1.013593E-14	6.609319E-17
6.400000E+03	1.013044E-14	6.769389E-17
6.410000E+03	1.014931E-14	6.937448E-17
6.420000E+03	1.019199E-14	7.119089E-17
6.430000E+03	1.025749E-14	7.319881E-17
6.440000E+03	1.034473E-14	7.545698E-17
6.450000E+03	1.045181E-14	7.802115E-17
6.460000E+03	1.057683E-14	8.094739E-17
6.470000E+03	1.071760E-14	8.428580E-17
6.480000E+03	1.087146E-14	8.807361E-17
6.490000E+03	1.103572E-14	9.233140E-17
6.500000E+03	1.120744E-14	9.705614E-17
6.510000E+03	1.138317E-14	1.022137E-16
6.520000E+03	1.155987E-14	1.077448E-16
6.530000E+03	1.173425E-14	1.135603E-16
6.540000E+03	1.190301E-14	1.195465E-16
6.550000E+03	1.206252E-14	1.255675E-16
6.560000E+03	1.220981E-14	1.314815E-16
6.570000E+03	1.234194E-14	1.371409E-16
6.580000E+03	1.245600E-14	1.423990E-16
6.590000E+03	1.254965E-14	1.471203E-16
6.600000E+03	1.262117E-14	1.511867E-16
6.610000E+03	1.266894E-14	1.544946E-16
6.620000E+03	1.269207E-14	1.569666E-16
6.630000E+03	1.269024E-14	1.585509E-16
6.640000E+03	1.266365E-14	1.592242E-16
6.650000E+03	1.261305E-14	1.589910E-16
6.660000E+03	1.253938E-14	1.578814E-16
6.670000E+03	1.244445E-14	1.559563E-16
6.680000E+03	1.233013E-14	1.532970E-16
6.690000E+03	1.219857E-14	1.500039E-16
6.700000E+03	1.205185E-14	1.461895E-16
6.710000E+03	1.189276E-14	1.419833E-16
6.720000E+03	1.172333E-14	1.375091E-16
6.730000E+03	1.154592E-14	1.328943E-16
6.740000E+03	1.136322E-14	1.282638E-16
6.750000E+03	1.117700E-14	1.237212E-16
6.760000E+03	1.098948E-14	1.193603E-16
6.770000E+03	1.080231E-14	1.152510E-16
6.780000E+03	1.061752E-14	1.114484E-16
6.790000E+03	1.043623E-14	1.079783E-16
6.800000E+03	1.025990E-14	1.048535E-16
6.810000E+03	1.008966E-14	1.020685E-16
6.820000E+03	9.926429E-15	9.960564E-17
6.830000E+03	9.770971E-15	9.743861E-17
6.840000E+03	9.623888E-15	9.553654E-17
6.850000E+03	9.485463E-15	9.386535E-17
6.860000E+03	9.356352E-15	9.239694E-17
6.870000E+03	9.236408E-15	9.109912E-17
6.880000E+03	9.126040E-15	8.995005E-17
6.890000E+03	9.025055E-15	8.892700E-17
6.900000E+03	8.933171E-15	8.801141E-17
6.910000E+03	8.850518E-15	8.719329E-17
6.920000E+03	8.776661E-15	8.646105E-17
6.930000E+03	8.711263E-15	8.580734E-17
6.940000E+03	8.653932E-15	8.522683E-17
6.950000E+03	8.604380E-15	8.471716E-17
6.960000E+03	8.561792E-15	8.427216E-17
6.970000E+03	8.525952E-15	8.389246E-17
6.980000E+03	8.496125E-15	8.357401E-17
6.990000E+03	8.471700E-15	8.331415E-17
7.000000E+03	8.452038E-15	8.310973E-17
7.010000E+03	8.436635E-15	8.295846E-17
7.020000E+03	8.424643E-15	8.285402E-17
7.030000E+03	8.415363E-15	8.279067E-17
7.040000E+03	8.408249E-15	8.276317E-17
7.050000E+03	8.402428E-15	8.276196E-17
7.060000E+03	8.397365E-15	8.277961E-17
7.070000E+03	8.392213E-15	8.280452E-17
7.080000E+03	8.386321E-15	8.282589E-17
7.090000E+03	8.379247E-15	8.283415E-17
7.100000E+03	8.370446E-15	8.281797E-17
7.110000E+03	8.359274E-15	8.276473E-17
7.120000E+03	8.345678E-15	8.266765E-17
7.130000E+03	8.328864E-15	8.251295E-17
7.140000E+03	8.309155E-15	8.229868E-17
7.150000E+03	8.286140E-15	8.201674E-17
7.160000E+03	8.260030E-15	8.166646E-17
7.170000E+03	8.231138E-15	8.124967E-17
7.180000E+03	8.199364E-15	8.076565E-17
7.190000E+03	8.165191E-15	8.022095E-17
7.200000E+03	8.129165E-15	7.962405E-17
7.210000E+03	8.091355E-15	7.898004E-17
7.220000E+03	8.052526E-15	7.830181E-17
7.230000E+03	8.013096E-15	7.759961E-17
7.240000E+03	7.973288E-15	7.688226E-17
7.250000E+03	7.933455E-15	7.615990E-17
7.260000E+03	7.893900E-15	7.544175E-17
7.270000E+03	7.855208E-15	7.473882E-17
7.280000E+03	7.817052E-15	7.405196E-17
7.290000E+03	7.780066E-15	7.338922E-17
7.300000E+03	7.743804E-15	7.274615E-17
7.310000E+03	7.708789E-15	7.212491E-17
7.320000E+03	7.674479E-15	7.151508E-17
7.330000E+03	7.641149E-15	7.091155E-17
7.340000E+03	7.608540E-15	7.030243E-17
7.350000E+03	7.576548E-15	6.967622E-17
7.360000E+03	7.545072E-15	6.902140E-17
7.370000E+03	7.513680E-15	6.832452E-17
7.380000E+03	7.482638E-15	6.758073E-17
7.390000E+03	7.451391E-15	6.678090E-17
7.400000E+03	7.420263E-15	6.592771E-17
7.410000E+03	7.388935E-15	6.502210E-17
7.420000E+03	7.357292E-15	6.407064E-17
7.430000E+03	7.325422E-15	6.308475E-17
7.440000E+03	7.293785E-15	6.208089E-17
7.450000E+03	7.262356E-15	6.107186E-17
7.460000E+03	7.231810E-15	6.007565E-17
7.470000E+03	7.201980E-15	5.910138E-17
7.480000E+03	7.173388E-15	5.816136E-17
7.490000E+03	7.146384E-15	5.726340E-17
7.500000E+03	7.121137E-15	5.641064E-17
7.510000E+03	7.097805E-15	5.560281E-17
7.520000E+03	7.076529E-15	5.483611E-17
7.530000E+03	7.057602E-15	5.410433E-17
7.540000E+03	7.040951E-15	5.339445E-17
7.550000E+03	7.026821E-15	5.269162E-17
7.560000E+03	7.015255E-15	5.197475E-17
7.570000E+03	7.006089E-15	5.121646E-17
7.580000E+03	6.999291E-15	5.038601E-17
7.590000E+03	6.994956E-15	4.945016E-17
7.600000E+03	6.992942E-15	4.837246E-17
7.610000E+03	6.992680E-15	4.711476E-17
7.620000E+03	6.994210E-15	4.564844E-17
7.630000E+03	6.996930E-15	4.395105E-17
7.640000E+03	7.000277E-15	4.201817E-17
7.650000E+03	7.003354E-15	3.987076E-17
7.660000E+03	7.005638E-15	3.757210E-17
7.670000E+03	7.005898E-15	3.523792E-17
7.680000E+03	7.002758E-15	3.305686E-17
7.690000E+03	6.995305E-15	3.129943E-17
7.700000E+03	6.981927E-15	3.028113E-17
7.710000E+03	6.961830E-15	3.026638E-17
7.720000E+03	6.935030E-15	3.127199E-17
7.730000E+03	6.902602E-15	3.305193E-17
7.740000E+03	6.865919E-15	3.529450E-17
7.750000E+03	6.826557E-15	3.773299E-17
7.760000E+03	6.785441E-15	4.017552E-17
