#wls	flux	fluxerr
1.600000E+03	7.278136E-15	8.249485E-16
1.640000E+03	7.402867E-15	7.601030E-16
1.680000E+03	7.525248E-15	6.932207E-16
1.720000E+03	7.646180E-15	6.248088E-16
1.760000E+03	7.767855E-15	5.554938E-16
1.800000E+03	7.888953E-15	4.856775E-16
1.840000E+03	8.011735E-15	4.161043E-16
1.880000E+03	8.135887E-15	3.474711E-16
1.920000E+03	8.261720E-15	2.807524E-16
1.960000E+03	8.388126E-15	2.173434E-16
2.000000E+03	8.512238E-15	1.597053E-16
2.040000E+03	8.624665E-15	1.129541E-16
2.080000E+03	8.710651E-15	8.710908E-17
2.120000E+03	8.760710E-15	8.579154E-17
2.160000E+03	8.791251E-15	9.085885E-17
2.200000E+03	8.821954E-15	9.058624E-17
2.240000E+03	8.861141E-15	8.911250E-17
2.280000E+03	8.909494E-15	9.890809E-17
2.320000E+03	8.973903E-15	1.205487E-16
2.360000E+03	9.068513E-15	1.439727E-16
2.400000E+03	9.200838E-15	1.617320E-16
2.440000E+03	9.373046E-15	1.694878E-16
2.480000E+03	9.584136E-15	1.646666E-16
2.520000E+03	9.827924E-15	1.462242E-16
2.560000E+03	1.008603E-14	1.163905E-16
2.600000E+03	1.032876E-14	8.935949E-17
2.640000E+03	1.051342E-14	1.021662E-16
2.680000E+03	1.063990E-14	1.545788E-16
2.720000E+03	1.074175E-14	2.182941E-16
2.760000E+03	1.083603E-14	2.818840E-16
2.800000E+03	1.093245E-14	3.411431E-16
2.840000E+03	1.103027E-14	3.937279E-16
2.880000E+03	1.112585E-14	4.379541E-16
2.920000E+03	1.121547E-14	4.725284E-16
2.960000E+03	1.129617E-14	4.965023E-16
3.000000E+03	1.136613E-14	5.092855E-16
3.010000E+03	1.138170E-14	5.106926E-16
3.020000E+03	1.139658E-14	5.113862E-16
3.030000E+03	1.141144E-14	5.113983E-16
3.040000E+03	1.142553E-14	5.106976E-16
3.050000E+03	1.143882E-14	5.092871E-16
3.060000E+03	1.145130E-14	5.071713E-16
3.070000E+03	1.146365E-14	5.043865E-16
3.080000E+03	1.147584E-14	5.009389E-16
3.090000E+03	1.148716E-14	4.968065E-16
3.100000E+03	1.149831E-14	4.920287E-16
3.110000E+03	1.150928E-14	4.866159E-16
3.120000E+03	1.152007E-14	4.805798E-16
3.130000E+03	1.153070E-14	4.739336E-16
3.140000E+03	1.154183E-14	4.667182E-16
3.150000E+03	1.155285E-14	4.589221E-16
3.160000E+03	1.156379E-14	4.505628E-16
3.170000E+03	1.157534E-14	4.416832E-16
3.180000E+03	1.158756E-14	4.323013E-16
3.190000E+03	1.160112E-14	4.224588E-16
3.200000E+03	1.161487E-14	4.121309E-16
3.210000E+03	1.163014E-14	4.013834E-16
3.220000E+03	1.164641E-14	3.902172E-16
3.230000E+03	1.166441E-14	3.786760E-16
3.240000E+03	1.168427E-14	3.667830E-16
3.250000E+03	1.170613E-14	3.545626E-16
3.260000E+03	1.173072E-14	3.420573E-16
3.270000E+03	1.175765E-14	3.292755E-16
3.280000E+03	1.178766E-14	3.162602E-16
3.290000E+03	1.182093E-14	3.030377E-16
3.300000E+03	1.185820E-14	2.896489E-16
3.310000E+03	1.189907E-14	2.761066E-16
3.320000E+03	1.194425E-14	2.624514E-16
3.330000E+03	1.199384E-14	2.487101E-16
3.340000E+03	1.204843E-14	2.349206E-16
3.350000E+03	1.210748E-14	2.211000E-16
3.360000E+03	1.217192E-14	2.072974E-16
3.370000E+03	1.224098E-14	1.935367E-16
3.380000E+03	1.231481E-14	1.798680E-16
3.390000E+03	1.239282E-14	1.663459E-16
3.400000E+03	1.247473E-14	1.530528E-16
3.410000E+03	1.255949E-14	1.400967E-16
3.420000E+03	1.264571E-14	1.276348E-16
3.430000E+03	1.273210E-14	1.158979E-16
3.440000E+03	1.281690E-14	1.052068E-16
3.450000E+03	1.289683E-14	9.597943E-17
3.460000E+03	1.296939E-14	8.873241E-17
3.470000E+03	1.302989E-14	8.396124E-17
3.480000E+03	1.307371E-14	8.193801E-17
3.490000E+03	1.309403E-14	8.245646E-17
3.500000E+03	1.308498E-14	8.491695E-17
3.510000E+03	1.304858E-14	8.858840E-17
3.520000E+03	1.298778E-14	9.279342E-17
3.530000E+03	1.290730E-14	9.702296E-17
3.540000E+03	1.281127E-14	1.009357E-16
3.550000E+03	1.270507E-14	1.043439E-16
3.560000E+03	1.259177E-14	1.071464E-16
3.570000E+03	1.247534E-14	1.093258E-16
3.580000E+03	1.235969E-14	1.109158E-16
3.590000E+03	1.224677E-14	1.119617E-16
3.600000E+03	1.213959E-14	1.125402E-16
3.610000E+03	1.203961E-14	1.127285E-16
3.620000E+03	1.194898E-14	1.126133E-16
3.630000E+03	1.186842E-14	1.122739E-16
3.640000E+03	1.179868E-14	1.117913E-16
3.650000E+03	1.174059E-14	1.112396E-16
3.660000E+03	1.169467E-14	1.106870E-16
3.670000E+03	1.166051E-14	1.101858E-16
3.680000E+03	1.163821E-14	1.097738E-16
3.690000E+03	1.162726E-14	1.094749E-16
3.700000E+03	1.162719E-14	1.093063E-16
3.710000E+03	1.163711E-14	1.092671E-16
3.720000E+03	1.165624E-14	1.093517E-16
3.730000E+03	1.168366E-14	1.095477E-16
3.740000E+03	1.171805E-14	1.098238E-16
3.750000E+03	1.175865E-14	1.101487E-16
3.760000E+03	1.180471E-14	1.104902E-16
3.770000E+03	1.185580E-14	1.108169E-16
3.780000E+03	1.191053E-14	1.110931E-16
3.790000E+03	1.196858E-14	1.113017E-16
3.800000E+03	1.202922E-14	1.114308E-16
3.810000E+03	1.209224E-14	1.114862E-16
3.820000E+03	1.215672E-14	1.114765E-16
3.830000E+03	1.222260E-14	1.114170E-16
3.840000E+03	1.228935E-14	1.113225E-16
3.850000E+03	1.235645E-14	1.112032E-16
3.860000E+03	1.242386E-14	1.110517E-16
3.870000E+03	1.249109E-14	1.108500E-16
3.880000E+03	1.255762E-14	1.105822E-16
3.890000E+03	1.262345E-14	1.102329E-16
3.900000E+03	1.268810E-14	1.097876E-16
3.910000E+03	1.275109E-14	1.092375E-16
3.920000E+03	1.281242E-14	1.085763E-16
3.930000E+03	1.287163E-14	1.077998E-16
3.940000E+03	1.292823E-14	1.069127E-16
3.950000E+03	1.298216E-14	1.059277E-16
3.960000E+03	1.303290E-14	1.048638E-16
3.970000E+03	1.308013E-14	1.037430E-16
3.980000E+03	1.312335E-14	1.025692E-16
3.990000E+03	1.316227E-14	1.013512E-16
4.000000E+03	1.319670E-14	1.001023E-16
4.010000E+03	1.322657E-14	9.882588E-17
4.020000E+03	1.325150E-14	9.753139E-17
4.030000E+03	1.327200E-14	9.624469E-17
4.040000E+03	1.328792E-14	9.497952E-17
4.050000E+03	1.329958E-14	9.376437E-17
4.060000E+03	1.330732E-14	9.263301E-17
4.070000E+03	1.331154E-14	9.159812E-17
4.080000E+03	1.331241E-14	9.067204E-17
4.090000E+03	1.331016E-14	8.986395E-17
4.100000E+03	1.330490E-14	8.914809E-17
4.110000E+03	1.329621E-14	8.848767E-17
4.120000E+03	1.328444E-14	8.784352E-17
4.130000E+03	1.326954E-14	8.714104E-17
4.140000E+03	1.325152E-14	8.630643E-17
4.150000E+03	1.323082E-14	8.528254E-17
4.160000E+03	1.320810E-14	8.401505E-17
4.170000E+03	1.318463E-14	8.247840E-17
4.180000E+03	1.316167E-14	8.067671E-17
4.190000E+03	1.314039E-14	7.862656E-17
4.200000E+03	1.312251E-14	7.637017E-17
4.210000E+03	1.310933E-14	7.394434E-17
4.220000E+03	1.310226E-14	7.134474E-17
4.230000E+03	1.310191E-14	6.856085E-17
4.240000E+03	1.310904E-14	6.559511E-17
4.250000E+03	1.312289E-14	6.243807E-17
4.260000E+03	1.314277E-14	5.913367E-17
4.270000E+03	1.316657E-14	5.580515E-17
4.280000E+03	1.319176E-14	5.266227E-17
4.290000E+03	1.321518E-14	5.005890E-17
4.300000E+03	1.323290E-14	4.847319E-17
4.310000E+03	1.324125E-14	4.833821E-17
4.320000E+03	1.323730E-14	4.974576E-17
4.330000E+03	1.322092E-14	5.237324E-17
4.340000E+03	1.319144E-14	5.576977E-17
4.350000E+03	1.314895E-14	5.956142E-17
4.360000E+03	1.309400E-14	6.347851E-17
4.370000E+03	1.302763E-14	6.728061E-17
4.380000E+03	1.295094E-14	7.072603E-17
4.390000E+03	1.286532E-14	7.362397E-17
4.400000E+03	1.277267E-14	7.584998E-17
4.410000E+03	1.267460E-14	7.734579E-17
4.420000E+03	1.257321E-14	7.811773E-17
4.430000E+03	1.247054E-14	7.822120E-17
4.440000E+03	1.236868E-14	7.775797E-17
4.450000E+03	1.226971E-14	7.685794E-17
4.460000E+03	1.217555E-14	7.565614E-17
4.470000E+03	1.208792E-14	7.429708E-17
4.480000E+03	1.200789E-14	7.290832E-17
4.490000E+03	1.193587E-14	7.156453E-17
4.500000E+03	1.187165E-14	7.032000E-17
4.510000E+03	1.181500E-14	6.921558E-17
4.520000E+03	1.176509E-14	6.824971E-17
4.530000E+03	1.172084E-14	6.741739E-17
4.540000E+03	1.168151E-14	6.671968E-17
4.550000E+03	1.164616E-14	6.613450E-17
4.560000E+03	1.161387E-14	6.565239E-17
4.570000E+03	1.158388E-14	6.527658E-17
4.580000E+03	1.155571E-14	6.499130E-17
4.590000E+03	1.152879E-14	6.479184E-17
4.600000E+03	1.150312E-14	6.468427E-17
4.610000E+03	1.147834E-14	6.464438E-17
4.620000E+03	1.145477E-14	6.465815E-17
4.630000E+03	1.143248E-14	6.472042E-17
4.640000E+03	1.141178E-14	6.480778E-17
4.650000E+03	1.139308E-14	6.491113E-17
4.660000E+03	1.137697E-14	6.504000E-17
4.670000E+03	1.136390E-14	6.519289E-17
4.680000E+03	1.135439E-14	6.538776E-17
4.690000E+03	1.134883E-14	6.565967E-17
4.700000E+03	1.134808E-14	6.603300E-17
4.710000E+03	1.135251E-14	6.654517E-17
4.720000E+03	1.136287E-14	6.724931E-17
4.730000E+03	1.137957E-14	6.817791E-17
4.740000E+03	1.140325E-14	6.937585E-17
4.750000E+03	1.143452E-14	7.089952E-17
4.760000E+03	1.147352E-14	7.278183E-17
4.770000E+03	1.152044E-14	7.506108E-17
4.780000E+03	1.157522E-14	7.777562E-17
4.790000E+03	1.163714E-14	8.092661E-17
4.800000E+03	1.170547E-14	8.450026E-17
4.810000E+03	1.177903E-14	8.845585E-17
4.820000E+03	1.185661E-14	9.269464E-17
4.830000E+03	1.193632E-14	9.708375E-17
4.840000E+03	1.201672E-14	1.014841E-16
4.850000E+03	1.209568E-14	1.057344E-16
4.860000E+03	1.217108E-14	1.096736E-16
4.870000E+03	1.224098E-14	1.131564E-16
4.880000E+03	1.230336E-14	1.160527E-16
4.890000E+03	1.235659E-14	1.182581E-16
4.900000E+03	1.239917E-14	1.196946E-16
4.910000E+03	1.242989E-14	1.203129E-16
4.920000E+03	1.244769E-14	1.200930E-16
4.930000E+03	1.245211E-14	1.190478E-16
4.940000E+03	1.244294E-14	1.172177E-16
4.950000E+03	1.242032E-14	1.146695E-16
4.960000E+03	1.238493E-14	1.114876E-16
4.970000E+03	1.233794E-14	1.077631E-16
4.980000E+03	1.228128E-14	1.036044E-16
4.990000E+03	1.221659E-14	9.913118E-17
5.000000E+03	1.214541E-14	9.447377E-17
5.010000E+03	1.206956E-14	8.977932E-17
5.020000E+03	1.199033E-14	8.519526E-17
5.030000E+03	1.190874E-14	8.085568E-17
5.040000E+03	1.182603E-14	7.689044E-17
5.050000E+03	1.174280E-14	7.339294E-17
5.060000E+03	1.165960E-14	7.038514E-17
5.070000E+03	1.157647E-14	6.785549E-17
5.080000E+03	1.149384E-14	6.577091E-17
5.090000E+03	1.141223E-14	6.404968E-17
5.100000E+03	1.133202E-14	6.261156E-17
5.110000E+03	1.125382E-14	6.139621E-17
5.120000E+03	1.117854E-14	6.033998E-17
5.130000E+03	1.110682E-14	5.940715E-17
5.140000E+03	1.103967E-14	5.858971E-17
5.150000E+03	1.097765E-14	5.786642E-17
5.160000E+03	1.092125E-14	5.723516E-17
5.170000E+03	1.087072E-14	5.670357E-17
5.180000E+03	1.082590E-14	5.624823E-17
5.190000E+03	1.078637E-14	5.585202E-17
5.200000E+03	1.075167E-14	5.550702E-17
5.210000E+03	1.072089E-14	5.517867E-17
5.220000E+03	1.069336E-14	5.484626E-17
5.230000E+03	1.066838E-14	5.450746E-17
5.240000E+03	1.064540E-14	5.415115E-17
5.250000E+03	1.062386E-14	5.378369E-17
5.260000E+03	1.060352E-14	5.342417E-17
5.270000E+03	1.058414E-14	5.306725E-17
5.280000E+03	1.056542E-14	5.270991E-17
5.290000E+03	1.054721E-14	5.234536E-17
5.300000E+03	1.052938E-14	5.192675E-17
5.310000E+03	1.051144E-14	5.140214E-17
5.320000E+03	1.049321E-14	5.072826E-17
5.330000E+03	1.047397E-14	4.984268E-17
5.340000E+03	1.045320E-14	4.870056E-17
5.350000E+03	1.043014E-14	4.727742E-17
5.360000E+03	1.040387E-14	4.554672E-17
5.370000E+03	1.037351E-14	4.352292E-17
5.380000E+03	1.033813E-14	4.128176E-17
5.390000E+03	1.029695E-14	3.895615E-17
5.400000E+03	1.024900E-14	3.678533E-17
5.410000E+03	1.019389E-14	3.512868E-17
5.420000E+03	1.013152E-14	3.436857E-17
5.430000E+03	1.006320E-14	3.468812E-17
5.440000E+03	9.991374E-15	3.590069E-17
5.450000E+03	9.918373E-15	3.763970E-17
5.460000E+03	9.846258E-15	3.957815E-17
5.470000E+03	9.776834E-15	4.150028E-17
5.480000E+03	9.711482E-15	4.327604E-17
5.490000E+03	9.651175E-15	4.485698E-17
5.500000E+03	9.596741E-15	4.624440E-17
5.510000E+03	9.547903E-15	4.743617E-17
5.520000E+03	9.504179E-15	4.844277E-17
5.530000E+03	9.465031E-15	4.928398E-17
5.540000E+03	9.429322E-15	4.996226E-17
5.550000E+03	9.395758E-15	5.048234E-17
5.560000E+03	9.363330E-15	5.085378E-17
5.570000E+03	9.330909E-15	5.107087E-17
5.580000E+03	9.297270E-15	5.113561E-17
5.590000E+03	9.261887E-15	5.106865E-17
5.600000E+03	9.224182E-15	5.089117E-17
5.610000E+03	9.184142E-15	5.064112E-17
5.620000E+03	9.142015E-15	5.035963E-17
5.630000E+03	9.098590E-15	5.006547E-17
5.640000E+03	9.054961E-15	4.977831E-17
5.650000E+03	9.012390E-15	4.951945E-17
5.660000E+03	8.972071E-15	4.928848E-17
5.670000E+03	8.935101E-15	4.908906E-17
5.680000E+03	8.902626E-15	4.893165E-17
5.690000E+03	8.875500E-15	4.881027E-17
5.700000E+03	8.854147E-15	4.872534E-17
5.710000E+03	8.839140E-15	4.868608E-17
5.720000E+03	8.830827E-15	4.868456E-17
5.730000E+03	8.829270E-15	4.872173E-17
5.740000E+03	8.834697E-15	4.881426E-17
5.750000E+03	8.847252E-15	4.897270E-17
5.760000E+03	8.866976E-15	4.922260E-17
5.770000E+03	8.894071E-15	4.960021E-17
5.780000E+03	8.928619E-15	5.012156E-17
5.790000E+03	8.970650E-15	5.080610E-17
5.800000E+03	9.020060E-15	5.166827E-17
5.810000E+03	9.076529E-15	5.268206E-17
5.820000E+03	9.139571E-15	5.381370E-17
5.830000E+03	9.208507E-15	5.503140E-17
5.840000E+03	9.282470E-15	5.628394E-17
5.850000E+03	9.360196E-15	5.752248E-17
5.860000E+03	9.440313E-15	5.870831E-17
5.870000E+03	9.521246E-15	5.979514E-17
5.880000E+03	9.601031E-15	6.074357E-17
5.890000E+03	9.677764E-15	6.152666E-17
5.900000E+03	9.749182E-15	6.211313E-17
5.910000E+03	9.813079E-15	6.248160E-17
5.920000E+03	9.867485E-15	6.261646E-17
5.930000E+03	9.910494E-15	6.248830E-17
5.940000E+03	9.940575E-15	6.208036E-17
5.950000E+03	9.956648E-15	6.140436E-17
5.960000E+03	9.957886E-15	6.049401E-17
5.970000E+03	9.944010E-15	5.941067E-17
5.980000E+03	9.915431E-15	5.822293E-17
5.990000E+03	9.873049E-15	5.697497E-17
6.000000E+03	9.818601E-15	5.571030E-17
6.010000E+03	9.754049E-15	5.446772E-17
6.020000E+03	9.681707E-15	5.325961E-17
6.030000E+03	9.603929E-15	5.209870E-17
6.040000E+03	9.523199E-15	5.100039E-17
6.050000E+03	9.442110E-15	4.996059E-17
6.060000E+03	9.362859E-15	4.898112E-17
6.070000E+03	9.287883E-15	4.807519E-17
6.080000E+03	9.218999E-15	4.723983E-17
6.090000E+03	9.158015E-15	4.648282E-17
6.100000E+03	9.106571E-15	4.581457E-17
6.110000E+03	9.065788E-15	4.521562E-17
6.120000E+03	9.036743E-15	4.467125E-17
6.130000E+03	9.020107E-15	4.417248E-17
6.140000E+03	9.016444E-15	4.368884E-17
6.150000E+03	9.026329E-15	4.319723E-17
6.160000E+03	9.049923E-15	4.267614E-17
6.170000E+03	9.087208E-15	4.207380E-17
6.180000E+03	9.137781E-15	4.134065E-17
6.190000E+03	9.200803E-15	4.043719E-17
6.200000E+03	9.274878E-15	3.931062E-17
6.210000E+03	9.357767E-15	3.792874E-17
6.220000E+03	9.446525E-15	3.629415E-17
6.230000E+03	9.536545E-15	3.443298E-17
6.240000E+03	9.622607E-15	3.246077E-17
6.250000E+03	9.697763E-15	3.061770E-17
6.260000E+03	9.753848E-15	2.925769E-17
6.270000E+03	9.782770E-15	2.881442E-17
6.280000E+03	9.779910E-15	2.954537E-17
6.290000E+03	9.749134E-15	3.120964E-17
6.300000E+03	9.698060E-15	3.335483E-17
6.310000E+03	9.635798E-15	3.561383E-17
6.320000E+03	9.569868E-15	3.775662E-17
6.330000E+03	9.507180E-15	3.969209E-17
6.340000E+03	9.453468E-15	4.141311E-17
6.350000E+03	9.412732E-15	4.292791E-17
6.360000E+03	9.388154E-15	4.426921E-17
6.370000E+03	9.381884E-15	4.547732E-17
6.380000E+03	9.395558E-15	4.656562E-17
6.390000E+03	9.430049E-15	4.754839E-17
6.400000E+03	9.485862E-15	4.845359E-17
6.410000E+03	9.563196E-15	4.930823E-17
6.420000E+03	9.661674E-15	5.016274E-17
6.430000E+03	9.780636E-15	5.109408E-17
6.440000E+03	9.919004E-15	5.218509E-17
6.450000E+03	1.007485E-14	5.355235E-17
6.460000E+03	1.024635E-14	5.534792E-17
6.470000E+03	1.043064E-14	5.771437E-17
6.480000E+03	1.062471E-14	6.080512E-17
6.490000E+03	1.082522E-14	6.475105E-17
6.500000E+03	1.102876E-14	6.958961E-17
6.510000E+03	1.123176E-14	7.528871E-17
6.520000E+03	1.143066E-14	8.175118E-17
6.530000E+03	1.162225E-14	8.878669E-17
6.540000E+03	1.180332E-14	9.615350E-17
6.550000E+03	1.197086E-14	1.036025E-16
6.560000E+03	1.212177E-14	1.108852E-16
6.570000E+03	1.225334E-14	1.177717E-16
6.580000E+03	1.236257E-14	1.240536E-16
6.590000E+03	1.244702E-14	1.295528E-16
6.600000E+03	1.250462E-14	1.341217E-16
6.610000E+03	1.253359E-14	1.376407E-16
6.620000E+03	1.253328E-14	1.400266E-16
6.630000E+03	1.250359E-14	1.412288E-16
6.640000E+03	1.244525E-14	1.412343E-16
6.650000E+03	1.235943E-14	1.400617E-16
6.660000E+03	1.224800E-14	1.377657E-16
6.670000E+03	1.211355E-14	1.344375E-16
6.680000E+03	1.195839E-14	1.301908E-16
6.690000E+03	1.178552E-14	1.251724E-16
6.700000E+03	1.159805E-14	1.195534E-16
6.710000E+03	1.139878E-14	1.135220E-16
6.720000E+03	1.119064E-14	1.072852E-16
6.730000E+03	1.097640E-14	1.010572E-16
6.740000E+03	1.075874E-14	9.504709E-17
6.750000E+03	1.053996E-14	8.945333E-17
6.760000E+03	1.032203E-14	8.443647E-17
6.770000E+03	1.010677E-14	8.009026E-17
6.780000E+03	9.896110E-15	7.646423E-17
6.790000E+03	9.691166E-15	7.355607E-17
6.800000E+03	9.493102E-15	7.130051E-17
6.810000E+03	9.303154E-15	6.960543E-17
6.820000E+03	9.121876E-15	6.836291E-17
6.830000E+03	8.950075E-15	6.745009E-17
6.840000E+03	8.788166E-15	6.674968E-17
6.850000E+03	8.636795E-15	6.616435E-17
6.860000E+03	8.495912E-15	6.560226E-17
6.870000E+03	8.365727E-15	6.499515E-17
6.880000E+03	8.246257E-15	6.430130E-17
6.890000E+03	8.137336E-15	6.350184E-17
6.900000E+03	8.038985E-15	6.260118E-17
6.910000E+03	7.951018E-15	6.161532E-17
6.920000E+03	7.872972E-15	6.056181E-17
6.930000E+03	7.804543E-15	5.946867E-17
6.940000E+03	7.745267E-15	5.837040E-17
6.950000E+03	7.694495E-15	5.729936E-17
6.960000E+03	7.651770E-15	5.629510E-17
6.970000E+03	7.616501E-15	5.539452E-17
6.980000E+03	7.587943E-15	5.461699E-17
6.990000E+03	7.565437E-15	5.397988E-17
7.000000E+03	7.548400E-15	5.349920E-17
7.010000E+03	7.536076E-15	5.317542E-17
7.020000E+03	7.527439E-15	5.300711E-17
7.030000E+03	7.521919E-15	5.299577E-17
7.040000E+03	7.518717E-15	5.312688E-17
7.050000E+03	7.516796E-15	5.338436E-17
7.060000E+03	7.515593E-15	5.375694E-17
7.070000E+03	7.514212E-15	5.421963E-17
7.080000E+03	7.511886E-15	5.474893E-17
7.090000E+03	7.507979E-15	5.532326E-17
7.100000E+03	7.501541E-15	5.590815E-17
7.110000E+03	7.492159E-15	5.647404E-17
7.120000E+03	7.479094E-15	5.699126E-17
7.130000E+03	7.462348E-15	5.742789E-17
7.140000E+03	7.441633E-15	5.775443E-17
7.150000E+03	7.417198E-15	5.795218E-17
7.160000E+03	7.389521E-15	5.800158E-17
7.170000E+03	7.358877E-15	5.788944E-17
7.180000E+03	7.325988E-15	5.761821E-17
7.190000E+03	7.291524E-15	5.719681E-17
7.200000E+03	7.256198E-15	5.664380E-17
7.210000E+03	7.220699E-15	5.598324E-17
7.220000E+03	7.185516E-15	5.523600E-17
7.230000E+03	7.151438E-15	5.442787E-17
7.240000E+03	7.118696E-15	5.358158E-17
7.250000E+03	7.087750E-15	5.271661E-17
7.260000E+03	7.058859E-15	5.185310E-17
7.270000E+03	7.032200E-15	5.101256E-17
7.280000E+03	7.007821E-15	5.021032E-17
7.290000E+03	6.985689E-15	4.946505E-17
7.300000E+03	6.965566E-15	4.879709E-17
7.310000E+03	6.947422E-15	4.822158E-17
7.320000E+03	6.930788E-15	4.775019E-17
7.330000E+03	6.915138E-15	4.738483E-17
7.340000E+03	6.900210E-15	4.710245E-17
7.350000E+03	6.885358E-15	4.686861E-17
7.360000E+03	6.870104E-15	4.664795E-17
7.370000E+03	6.854052E-15	4.639556E-17
7.380000E+03	6.836880E-15	4.607418E-17
7.390000E+03	6.818471E-15	4.566357E-17
7.400000E+03	6.798584E-15	4.515420E-17
7.410000E+03	6.777412E-15	4.456016E-17
7.420000E+03	6.754724E-15	4.391423E-17
7.430000E+03	6.730810E-15	4.326593E-17
7.440000E+03	6.705758E-15	4.267840E-17
7.450000E+03	6.679687E-15	4.221441E-17
7.460000E+03	6.652535E-15	4.191168E-17
7.470000E+03	6.624496E-15	4.179829E-17
7.480000E+03	6.595891E-15	4.188556E-17
7.490000E+03	6.566710E-15	4.214409E-17
7.500000E+03	6.537411E-15	4.253502E-17
7.510000E+03	6.507942E-15	4.301907E-17
7.520000E+03	6.478424E-15	4.355487E-17
7.530000E+03	6.448939E-15	4.410498E-17
7.540000E+03	6.419694E-15	4.463202E-17
7.550000E+03	6.390723E-15	4.508259E-17
7.560000E+03	6.362191E-15	4.539903E-17
7.570000E+03	6.334239E-15	4.552484E-17
7.580000E+03	6.306971E-15	4.540267E-17
7.590000E+03	6.280486E-15	4.498001E-17
7.600000E+03	6.254796E-15	4.421485E-17
7.610000E+03	6.230176E-15	4.308127E-17
7.620000E+03	6.206824E-15	4.156914E-17
7.630000E+03	6.184972E-15	3.968709E-17
7.640000E+03	6.164873E-15	3.746513E-17
7.650000E+03	6.146674E-15	3.495826E-17
7.660000E+03	6.130565E-15	3.225330E-17
7.670000E+03	6.116802E-15	2.947915E-17
7.680000E+03	6.105084E-15	2.682247E-17
7.690000E+03	6.095265E-15	2.454379E-17
7.700000E+03	6.087212E-15	2.295928E-17
7.710000E+03	6.080619E-15	2.235205E-17
7.720000E+03	6.075240E-15	2.275968E-17
7.730000E+03	6.071206E-15	2.393242E-17
7.740000E+03	6.068780E-15	2.555704E-17
7.750000E+03	6.068076E-15	2.738293E-17
7.760000E+03	6.069061E-15	2.923940E-17
