#wls	flux	fluxerr
1.600000E+03	7.353463E-15	8.320122E-16
1.640000E+03	7.474675E-15	7.656944E-16
1.680000E+03	7.593166E-15	6.973686E-16
1.720000E+03	7.710816E-15	6.276369E-16
1.760000E+03	7.824900E-15	5.567606E-16
1.800000E+03	7.938618E-15	4.855522E-16
1.840000E+03	8.050522E-15	4.145568E-16
1.880000E+03	8.162662E-15	3.446626E-16
1.920000E+03	8.275560E-15	2.768570E-16
1.960000E+03	8.388669E-15	2.125200E-16
2.000000E+03	8.498878E-15	1.540244E-16
2.040000E+03	8.599174E-15	1.064974E-16
2.080000E+03	8.675171E-15	8.061912E-17
2.120000E+03	8.715493E-15	8.052938E-17
2.160000E+03	8.739147E-15	8.612512E-17
2.200000E+03	8.767081E-15	8.513291E-17
2.240000E+03	8.806271E-15	8.233988E-17
2.280000E+03	8.853508E-15	9.188389E-17
2.320000E+03	8.915766E-15	1.144179E-16
2.360000E+03	9.006807E-15	1.387554E-16
2.400000E+03	9.133906E-15	1.571539E-16
2.440000E+03	9.299288E-15	1.652833E-16
2.480000E+03	9.500073E-15	1.605426E-16
2.520000E+03	9.731875E-15	1.418304E-16
2.560000E+03	9.983202E-15	1.111192E-16
2.600000E+03	1.022879E-14	8.219580E-17
2.640000E+03	1.042957E-14	9.505540E-17
2.680000E+03	1.058690E-14	1.492113E-16
2.720000E+03	1.072664E-14	2.143440E-16
2.760000E+03	1.086396E-14	2.794183E-16
2.800000E+03	1.100060E-14	3.402674E-16
2.840000E+03	1.113543E-14	3.945138E-16
2.880000E+03	1.126203E-14	4.402730E-16
2.920000E+03	1.137530E-14	4.760619E-16
2.960000E+03	1.147335E-14	5.008584E-16
3.000000E+03	1.155233E-14	5.139080E-16
3.010000E+03	1.156962E-14	5.153238E-16
3.020000E+03	1.158532E-14	5.159721E-16
3.030000E+03	1.160005E-14	5.158827E-16
3.040000E+03	1.161376E-14	5.150559E-16
3.050000E+03	1.162638E-14	5.134938E-16
3.060000E+03	1.163722E-14	5.111712E-16
3.070000E+03	1.164754E-14	5.081516E-16
3.080000E+03	1.165728E-14	5.044406E-16
3.090000E+03	1.166511E-14	4.999910E-16
3.100000E+03	1.167228E-14	4.948684E-16
3.110000E+03	1.167876E-14	4.890833E-16
3.120000E+03	1.168450E-14	4.826480E-16
3.130000E+03	1.168948E-14	4.755764E-16
3.140000E+03	1.169369E-14	4.678843E-16
3.150000E+03	1.169713E-14	4.595889E-16
3.160000E+03	1.170038E-14	4.507319E-16
3.170000E+03	1.170345E-14	4.413318E-16
3.180000E+03	1.170578E-14	4.313877E-16
3.190000E+03	1.170856E-14	4.209644E-16
3.200000E+03	1.171123E-14	4.100633E-16
3.210000E+03	1.171388E-14	3.987095E-16
3.220000E+03	1.171712E-14	3.869477E-16
3.230000E+03	1.172157E-14	3.748210E-16
3.240000E+03	1.172626E-14	3.623216E-16
3.250000E+03	1.173238E-14	3.495122E-16
3.260000E+03	1.173953E-14	3.364062E-16
3.270000E+03	1.174892E-14	3.230641E-16
3.280000E+03	1.176020E-14	3.095016E-16
3.290000E+03	1.177355E-14	2.957518E-16
3.300000E+03	1.178969E-14	2.818608E-16
3.310000E+03	1.180881E-14	2.678620E-16
3.320000E+03	1.183161E-14	2.538000E-16
3.330000E+03	1.185778E-14	2.396977E-16
3.340000E+03	1.188842E-14	2.256081E-16
3.350000E+03	1.192315E-14	2.115545E-16
3.360000E+03	1.196245E-14	1.975794E-16
3.370000E+03	1.200582E-14	1.837120E-16
3.380000E+03	1.205443E-14	1.700159E-16
3.390000E+03	1.210708E-14	1.565302E-16
3.400000E+03	1.216373E-14	1.433334E-16
3.410000E+03	1.222417E-14	1.305324E-16
3.420000E+03	1.228748E-14	1.182735E-16
3.430000E+03	1.235246E-14	1.067703E-16
3.440000E+03	1.241796E-14	9.632989E-17
3.450000E+03	1.248191E-14	8.736186E-17
3.460000E+03	1.254206E-14	8.036760E-17
3.470000E+03	1.259414E-14	7.583289E-17
3.480000E+03	1.263452E-14	7.401831E-17
3.490000E+03	1.265570E-14	7.467383E-17
3.500000E+03	1.265251E-14	7.717354E-17
3.510000E+03	1.262568E-14	8.077424E-17
3.520000E+03	1.257762E-14	8.481741E-17
3.530000E+03	1.251234E-14	8.882100E-17
3.540000E+03	1.243346E-14	9.247354E-17
3.550000E+03	1.234510E-14	9.560611E-17
3.560000E+03	1.225053E-14	9.813936E-17
3.570000E+03	1.215378E-14	1.000713E-16
3.580000E+03	1.205785E-14	1.014379E-16
3.590000E+03	1.196505E-14	1.022898E-16
3.600000E+03	1.187789E-14	1.026998E-16
3.600372E+03	1.494066E-14	1.258837E-15
3.604429E+03	1.460566E-14	1.250596E-15
3.608487E+03	1.423189E-14	1.241785E-15
3.612545E+03	1.389938E-14	1.234048E-15
3.616602E+03	1.347387E-14	1.224739E-15
3.620660E+03	1.307543E-14	1.216252E-15
3.624717E+03	1.269514E-14	1.208379E-15
3.628775E+03	1.243735E-14	1.099994E-15
3.632832E+03	1.213329E-14	1.111421E-15
3.636890E+03	1.183604E-14	1.095668E-15
3.640947E+03	1.160501E-14	8.952479E-16
3.645005E+03	1.139112E-14	8.799998E-16
3.649062E+03	1.119554E-14	8.402936E-16
3.653120E+03	1.108892E-14	6.789717E-16
3.657177E+03	1.101714E-14	6.930776E-16
3.661235E+03	1.092236E-14	6.833604E-16
3.665293E+03	1.088969E-14	5.954957E-16
3.669350E+03	1.090130E-14	7.135871E-16
3.673407E+03	1.098070E-14	8.825152E-16
3.677465E+03	1.102083E-14	9.467200E-16
3.681523E+03	1.098435E-14	9.052475E-16
3.685580E+03	1.099835E-14	8.928335E-16
3.689638E+03	1.102719E-14	9.898259E-16
3.693695E+03	1.105564E-14	1.034917E-15
3.697753E+03	1.104957E-14	1.096098E-15
3.701810E+03	1.100383E-14	1.202246E-15
3.705868E+03	1.100794E-14	1.234699E-15
3.709925E+03	1.099653E-14	1.238929E-15
3.713983E+03	1.108819E-14	1.268091E-15
3.718040E+03	1.113939E-14	1.174102E-15
3.722098E+03	1.113065E-14	1.093923E-15
3.726155E+03	1.123724E-14	1.074340E-15
3.730213E+03	1.130790E-14	1.040994E-15
3.734271E+03	1.127313E-14	1.065829E-15
3.738328E+03	1.124881E-14	8.873027E-16
3.742385E+03	1.127938E-14	8.806114E-16
3.746443E+03	1.130333E-14	8.835507E-16
3.750501E+03	1.132262E-14	1.048604E-15
3.754558E+03	1.138891E-14	1.098861E-15
3.758616E+03	1.143812E-14	1.131896E-15
3.762673E+03	1.146226E-14	1.096758E-15
3.766731E+03	1.152280E-14	1.103131E-15
3.770788E+03	1.160464E-14	1.095316E-15
3.774846E+03	1.169743E-14	1.051690E-15
3.778903E+03	1.177934E-14	1.085762E-15
3.782961E+03	1.187596E-14	1.075276E-15
3.787018E+03	1.200278E-14	1.051888E-15
3.791076E+03	1.216999E-14	1.053101E-15
3.795133E+03	1.221991E-14	1.044928E-15
3.799191E+03	1.223350E-14	7.606706E-16
3.803249E+03	1.222525E-14	5.879893E-16
3.807306E+03	1.225004E-14	6.919728E-16
3.811363E+03	1.221346E-14	7.287356E-16
3.815421E+03	1.225848E-14	7.269996E-16
3.819479E+03	1.228139E-14	7.291353E-16
3.823536E+03	1.232299E-14	7.081892E-16
3.827593E+03	1.225469E-14	6.647120E-16
3.831651E+03	1.225235E-14	6.492828E-16
3.835709E+03	1.230731E-14	6.428786E-16
3.839766E+03	1.231654E-14	7.133354E-16
3.843824E+03	1.240294E-14	7.803201E-16
3.847881E+03	1.254907E-14	8.145656E-16
3.851939E+03	1.263553E-14	7.900944E-16
3.855996E+03	1.268904E-14	6.617242E-16
3.860054E+03	1.281144E-14	6.351194E-16
3.864111E+03	1.291083E-14	6.856218E-16
3.868169E+03	1.296940E-14	6.984704E-16
3.872226E+03	1.297632E-14	7.237935E-16
3.876284E+03	1.296257E-14	7.073175E-16
3.880342E+03	1.303910E-14	7.155650E-16
3.884399E+03	1.313108E-14	7.149298E-16
3.888456E+03	1.320496E-14	6.926673E-16
3.892514E+03	1.328525E-14	6.907338E-16
3.896572E+03	1.335131E-14	6.304021E-16
3.900629E+03	1.342120E-14	6.172175E-16
3.904686E+03	1.348976E-14	7.028957E-16
3.908744E+03	1.355828E-14	7.388528E-16
3.912802E+03	1.363321E-14	7.171690E-16
3.916859E+03	1.369390E-14	7.865299E-16
3.920917E+03	1.376616E-14	7.502633E-16
3.924974E+03	1.379713E-14	7.966114E-16
3.929032E+03	1.379841E-14	8.061631E-16
3.933089E+03	1.386410E-14	8.122569E-16
3.937147E+03	1.389237E-14	8.248546E-16
3.941204E+03	1.388581E-14	7.635214E-16
3.945262E+03	1.386247E-14	7.786944E-16
3.949319E+03	1.383782E-14	7.738962E-16
3.953377E+03	1.382988E-14	7.385618E-16
3.957435E+03	1.384252E-14	7.292746E-16
3.961492E+03	1.386671E-14	7.274123E-16
3.965550E+03	1.389730E-14	6.147185E-16
3.969607E+03	1.393300E-14	6.304236E-16
3.973664E+03	1.395450E-14	5.959477E-16
3.977722E+03	1.397467E-14	5.775346E-16
3.981780E+03	1.401281E-14	5.643474E-16
3.985837E+03	1.404963E-14	5.124824E-16
3.989895E+03	1.406323E-14	4.963337E-16
3.993952E+03	1.403434E-14	4.507967E-16
3.998010E+03	1.401314E-14	4.535603E-16
4.002067E+03	1.402406E-14	4.362651E-16
4.006125E+03	1.404395E-14	4.379661E-16
4.010182E+03	1.403421E-14	4.493866E-16
4.014240E+03	1.397301E-14	4.568797E-16
4.018297E+03	1.390537E-14	4.401303E-16
4.022355E+03	1.384413E-14	5.100207E-16
4.026412E+03	1.383043E-14	5.392866E-16
4.030470E+03	1.381155E-14	5.402235E-16
4.034528E+03	1.378107E-14	5.611518E-16
4.038585E+03	1.378525E-14	5.672563E-16
4.042643E+03	1.373801E-14	5.653322E-16
4.046700E+03	1.364838E-14	5.670805E-16
4.050758E+03	1.358056E-14	5.737359E-16
4.054815E+03	1.349091E-14	5.595811E-16
4.058873E+03	1.334734E-14	5.342145E-16
4.062930E+03	1.322047E-14	5.712035E-16
4.066988E+03	1.314620E-14	5.808528E-16
4.071045E+03	1.304242E-14	5.118870E-16
4.075103E+03	1.297583E-14	4.774486E-16
4.079160E+03	1.296437E-14	4.916324E-16
4.083218E+03	1.295030E-14	4.753010E-16
4.087275E+03	1.294901E-14	4.656770E-16
4.091333E+03	1.292590E-14	4.580680E-16
4.095390E+03	1.290532E-14	4.528539E-16
4.099448E+03	1.291673E-14	4.883413E-16
4.103505E+03	1.295499E-14	4.822299E-16
4.107563E+03	1.300599E-14	4.835024E-16
4.111621E+03	1.306461E-14	4.156929E-16
4.115678E+03	1.313852E-14	4.026417E-16
4.119736E+03	1.322643E-14	4.153904E-16
4.123793E+03	1.331041E-14	4.095713E-16
4.127851E+03	1.335339E-14	4.983639E-16
4.131908E+03	1.338735E-14	5.392249E-16
4.135966E+03	1.341870E-14	5.360323E-16
4.140023E+03	1.345893E-14	5.252089E-16
4.144081E+03	1.348887E-14	4.945081E-16
4.148138E+03	1.350086E-14	4.653579E-16
4.152196E+03	1.351408E-14	5.254185E-16
4.156253E+03	1.350682E-14	5.286523E-16
4.160311E+03	1.349440E-14	5.238483E-16
4.164369E+03	1.345770E-14	5.182519E-16
4.168426E+03	1.342352E-14	5.168773E-16
4.172483E+03	1.339569E-14	5.367276E-16
4.176541E+03	1.334104E-14	4.706386E-16
4.180599E+03	1.328128E-14	3.950783E-16
4.184656E+03	1.319729E-14	3.911603E-16
4.188713E+03	1.309673E-14	3.773075E-16
4.192771E+03	1.297835E-14	3.590021E-16
4.196829E+03	1.288164E-14	3.742899E-16
4.200886E+03	1.279384E-14	3.424442E-16
4.204944E+03	1.269917E-14	3.394885E-16
4.209002E+03	1.258772E-14	3.303575E-16
4.213059E+03	1.250045E-14	3.638619E-16
4.217116E+03	1.245551E-14	4.257421E-16
4.221174E+03	1.243026E-14	4.002501E-16
4.225231E+03	1.238998E-14	4.265074E-16
4.229289E+03	1.236593E-14	4.604469E-16
4.233346E+03	1.235505E-14	4.602002E-16
4.237404E+03	1.234971E-14	4.582040E-16
4.241461E+03	1.234940E-14	4.651704E-16
4.245519E+03	1.236807E-14	4.561538E-16
4.249577E+03	1.236232E-14	4.561389E-16
4.253634E+03	1.234233E-14	4.731413E-16
4.257691E+03	1.234891E-14	4.831947E-16
4.261749E+03	1.234023E-14	4.659988E-16
4.265807E+03	1.233593E-14	4.200851E-16
4.269864E+03	1.236399E-14	4.173244E-16
4.273922E+03	1.241880E-14	3.891501E-16
4.277979E+03	1.246377E-14	3.614876E-16
4.282037E+03	1.248235E-14	3.663363E-16
4.286094E+03	1.248430E-14	3.697653E-16
4.290152E+03	1.247571E-14	3.494767E-16
4.294209E+03	1.247377E-14	3.604050E-16
4.298267E+03	1.246696E-14	3.534618E-16
4.302324E+03	1.246957E-14	3.325304E-16
4.306382E+03	1.251337E-14	3.215851E-16
4.310439E+03	1.260864E-14	3.149315E-16
4.314497E+03	1.273226E-14	2.960251E-16
4.318555E+03	1.283152E-14	3.161607E-16
4.322612E+03	1.295835E-14	3.376396E-16
4.326669E+03	1.312654E-14	3.218206E-16
4.330727E+03	1.331088E-14	3.061261E-16
4.334785E+03	1.350380E-14	3.182787E-16
4.338842E+03	1.369021E-14	3.510124E-16
4.342900E+03	1.391032E-14	2.872860E-16
4.346957E+03	1.416911E-14	2.440946E-16
4.351015E+03	1.444017E-14	2.855550E-16
4.355072E+03	1.468457E-14	4.094244E-16
4.359130E+03	1.490486E-14	5.148934E-16
4.363188E+03	1.511862E-14	6.066345E-16
4.367245E+03	1.528701E-14	6.955157E-16
4.371302E+03	1.541762E-14	7.082606E-16
4.375360E+03	1.553177E-14	6.994547E-16
4.379417E+03	1.561699E-14	6.800843E-16
4.383475E+03	1.563952E-14	6.569210E-16
4.387533E+03	1.559198E-14	5.891661E-16
4.391590E+03	1.552318E-14	5.296389E-16
4.395648E+03	1.540694E-14	5.210417E-16
4.399705E+03	1.526205E-14	5.609662E-16
4.403763E+03	1.508606E-14	5.934767E-16
4.407820E+03	1.489149E-14	6.430845E-16
4.411877E+03	1.467837E-14	6.362438E-16
4.415935E+03	1.441559E-14	5.524224E-16
4.419993E+03	1.414430E-14	4.740445E-16
4.424050E+03	1.387823E-14	4.565583E-16
4.428108E+03	1.362234E-14	4.711128E-16
4.432166E+03	1.337040E-14	4.794546E-16
4.436223E+03	1.311619E-14	4.305268E-16
4.440280E+03	1.288953E-14	3.837044E-16
4.444338E+03	1.269410E-14	4.187942E-16
4.448395E+03	1.250257E-14	4.605514E-16
4.452453E+03	1.233575E-14	4.712802E-16
4.456510E+03	1.220960E-14	4.379864E-16
4.460568E+03	1.213582E-14	4.118874E-16
4.464626E+03	1.210679E-14	3.395450E-16
4.468683E+03	1.212415E-14	2.738680E-16
4.472741E+03	1.216323E-14	2.767312E-16
4.476798E+03	1.220694E-14	2.861587E-16
4.480855E+03	1.225538E-14	2.871577E-16
4.484913E+03	1.228929E-14	2.973304E-16
4.488971E+03	1.230536E-14	3.001487E-16
4.493028E+03	1.233100E-14	3.019679E-16
4.497086E+03	1.236237E-14	2.858618E-16
4.501143E+03	1.239984E-14	2.876053E-16
4.505201E+03	1.244955E-14	2.723622E-16
4.509258E+03	1.245488E-14	2.417049E-16
4.513316E+03	1.243557E-14	2.487674E-16
4.517373E+03	1.242608E-14	2.610939E-16
4.521431E+03	1.241044E-14	2.752226E-16
4.525488E+03	1.239356E-14	2.779925E-16
4.529546E+03	1.238035E-14	2.893470E-16
4.533604E+03	1.236590E-14	2.977900E-16
4.537661E+03	1.236124E-14	3.218779E-16
4.541719E+03	1.237984E-14	3.338864E-16
4.545776E+03	1.238370E-14	3.358591E-16
4.549833E+03	1.236918E-14	3.299660E-16
4.553891E+03	1.237788E-14	3.321838E-16
4.557949E+03	1.237800E-14	3.323129E-16
4.562006E+03	1.237320E-14	3.304585E-16
4.566064E+03	1.235374E-14	3.229819E-16
4.570121E+03	1.232573E-14	3.065457E-16
4.574179E+03	1.231603E-14	2.958600E-16
4.578236E+03	1.228194E-14	2.950492E-16
4.582294E+03	1.223813E-14	3.007045E-16
4.586352E+03	1.222112E-14	2.778235E-16
4.590409E+03	1.219560E-14	2.565010E-16
4.594466E+03	1.217860E-14	2.503979E-16
4.598524E+03	1.216159E-14	2.525474E-16
4.602582E+03	1.213864E-14	2.534588E-16
4.606639E+03	1.212504E-14	2.546906E-16
4.610697E+03	1.210720E-14	2.729609E-16
4.614754E+03	1.209493E-14	2.905597E-16
4.618811E+03	1.207224E-14	2.794464E-16
4.622869E+03	1.206700E-14	2.796316E-16
4.626927E+03	1.206779E-14	2.817181E-16
4.630984E+03	1.206421E-14	2.992550E-16
4.635042E+03	1.206195E-14	3.149560E-16
4.639099E+03	1.205255E-14	3.236772E-16
4.643157E+03	1.203796E-14	3.245801E-16
4.647214E+03	1.201963E-14	3.265755E-16
4.651272E+03	1.200613E-14	3.325620E-16
4.655330E+03	1.198504E-14	3.340586E-16
4.659387E+03	1.198348E-14	3.257020E-16
4.663444E+03	1.200103E-14	3.136395E-16
4.667502E+03	1.201121E-14	3.145998E-16
4.671560E+03	1.201463E-14	3.175705E-16
4.675617E+03	1.202297E-14	3.122393E-16
4.679674E+03	1.202876E-14	2.932829E-16
4.683732E+03	1.203813E-14	2.795472E-16
4.687790E+03	1.204868E-14	2.729663E-16
4.691847E+03	1.204723E-14	2.767728E-16
4.695905E+03	1.206133E-14	2.860928E-16
4.699962E+03	1.207540E-14	2.813986E-16
4.704020E+03	1.206793E-14	2.787341E-16
4.708077E+03	1.206643E-14	2.780348E-16
4.712135E+03	1.206732E-14	2.665765E-16
4.716192E+03	1.206103E-14	2.671205E-16
4.720250E+03	1.205475E-14	2.802552E-16
4.724307E+03	1.202939E-14	2.974414E-16
4.728365E+03	1.200883E-14	2.999859E-16
4.732422E+03	1.200971E-14	3.070422E-16
4.736480E+03	1.199988E-14	3.078406E-16
4.740538E+03	1.196866E-14	3.153686E-16
4.744595E+03	1.193271E-14	3.024867E-16
4.748652E+03	1.190156E-14	2.985342E-16
4.752710E+03	1.185109E-14	2.945790E-16
4.756768E+03	1.180840E-14	2.942878E-16
4.760825E+03	1.177311E-14	2.954109E-16
4.764883E+03	1.174555E-14	3.018008E-16
4.768940E+03	1.173402E-14	3.034592E-16
4.772998E+03	1.171777E-14	2.822612E-16
4.777055E+03	1.172317E-14	2.804958E-16
4.781113E+03	1.173814E-14	2.946777E-16
4.785170E+03	1.175971E-14	2.997833E-16
4.789228E+03	1.180026E-14	2.784639E-16
4.793285E+03	1.184088E-14	2.712477E-16
4.797343E+03	1.190314E-14	2.767037E-16
4.801400E+03	1.197710E-14	2.856153E-16
4.805458E+03	1.203332E-14	3.054418E-16
4.809516E+03	1.209418E-14	4.574244E-16
4.813573E+03	1.216085E-14	5.344735E-16
4.817630E+03	1.219453E-14	5.861726E-16
4.821688E+03	1.214479E-14	6.021889E-16
4.825746E+03	1.205755E-14	5.811675E-16
4.829803E+03	1.199858E-14	5.437705E-16
4.833860E+03	1.202058E-14	5.338879E-16
4.837918E+03	1.214098E-14	5.633552E-16
4.841976E+03	1.234556E-14	6.665018E-16
4.846033E+03	1.263532E-14	7.900827E-16
4.850091E+03	1.301597E-14	9.180965E-16
4.854148E+03	1.349552E-14	1.051482E-15
4.858206E+03	1.402357E-14	1.110235E-15
4.862263E+03	1.458018E-14	1.078529E-15
4.866321E+03	1.516413E-14	9.656832E-16
4.870378E+03	1.576256E-14	8.406450E-16
4.874436E+03	1.636728E-14	7.604743E-16
4.878493E+03	1.693869E-14	8.769372E-16
4.882551E+03	1.746869E-14	1.110497E-15
4.886608E+03	1.796436E-14	1.543303E-15
4.890666E+03	1.838737E-14	2.147540E-15
4.894724E+03	1.872625E-14	2.537134E-15
4.898781E+03	1.899509E-14	2.569640E-15
4.902838E+03	1.918008E-14	2.444688E-15
4.906896E+03	1.929644E-14	2.311187E-15
4.910954E+03	1.934546E-14	2.263860E-15
4.915011E+03	1.929946E-14	2.286413E-15
4.919069E+03	1.913428E-14	2.344487E-15
4.923126E+03	1.886287E-14	2.468838E-15
4.927184E+03	1.853513E-14	2.589830E-15
4.931241E+03	1.812574E-14	2.636520E-15
4.935299E+03	1.764753E-14	2.564971E-15
4.939356E+03	1.710755E-14	2.154880E-15
4.943414E+03	1.653476E-14	1.444428E-15
4.947471E+03	1.594420E-14	8.601551E-16
4.951529E+03	1.534742E-14	7.278110E-16
4.955586E+03	1.475134E-14	8.290702E-16
4.959644E+03	1.416977E-14	9.229249E-16
4.963702E+03	1.363030E-14	1.029036E-15
4.967759E+03	1.313860E-14	1.016703E-15
4.971816E+03	1.270955E-14	9.287450E-16
4.975874E+03	1.236255E-14	8.009934E-16
4.979932E+03	1.211125E-14	7.121064E-16
4.983989E+03	1.194287E-14	6.078485E-16
4.988047E+03	1.186645E-14	5.368636E-16
4.992104E+03	1.188413E-14	4.919814E-16
4.996162E+03	1.196941E-14	4.147116E-16
5.000219E+03	1.208669E-14	4.795824E-16
5.004277E+03	1.222677E-14	5.101683E-16
5.008334E+03	1.234042E-14	5.121309E-16
5.012392E+03	1.236139E-14	4.713315E-16
5.016449E+03	1.230010E-14	4.600147E-16
5.020507E+03	1.222749E-14	4.530173E-16
5.024564E+03	1.218352E-14	4.492850E-16
5.028622E+03	1.214990E-14	4.451354E-16
5.032680E+03	1.212091E-14	4.457654E-16
5.036737E+03	1.210794E-14	4.014248E-16
5.040794E+03	1.209274E-14	2.958860E-16
5.044852E+03	1.207760E-14	2.574421E-16
5.048910E+03	1.206933E-14	2.450571E-16
5.052967E+03	1.204974E-14	2.433252E-16
5.057024E+03	1.203475E-14	2.395768E-16
5.061082E+03	1.202209E-14	2.434094E-16
5.065140E+03	1.201062E-14	2.597473E-16
5.069197E+03	1.200828E-14	2.613893E-16
5.073255E+03	1.199237E-14	2.705886E-16
5.077312E+03	1.197879E-14	2.755468E-16
5.081370E+03	1.196186E-14	2.672782E-16
5.085427E+03	1.191666E-14	2.605852E-16
5.089485E+03	1.188174E-14	2.569582E-16
5.093542E+03	1.184123E-14	2.636397E-16
5.097600E+03	1.181099E-14	2.775680E-16
5.101657E+03	1.180118E-14	2.763525E-16
5.105715E+03	1.178012E-14	2.835609E-16
5.109773E+03	1.172636E-14	2.935498E-16
5.113830E+03	1.163880E-14	2.848134E-16
5.117888E+03	1.154798E-14	2.778093E-16
5.121945E+03	1.147760E-14	2.589114E-16
5.126002E+03	1.141297E-14	2.302485E-16
5.130060E+03	1.134393E-14	2.267606E-16
5.134118E+03	1.127837E-14	2.238779E-16
5.138175E+03	1.121630E-14	2.233703E-16
5.142233E+03	1.116131E-14	2.207123E-16
5.146290E+03	1.110597E-14	2.100760E-16
5.150348E+03	1.106771E-14	2.091941E-16
5.154405E+03	1.102965E-14	2.096976E-16
5.158463E+03	1.099571E-14	1.951460E-16
5.162520E+03	1.097523E-14	1.899121E-16
5.166578E+03	1.095718E-14	1.880625E-16
5.170635E+03	1.095121E-14	1.949247E-16
5.174693E+03	1.095360E-14	1.939718E-16
5.178751E+03	1.096425E-14	1.947036E-16
5.182808E+03	1.097191E-14	1.934303E-16
5.186866E+03	1.097726E-14	1.985038E-16
5.190923E+03	1.098525E-14	1.986399E-16
5.194980E+03	1.099150E-14	1.968718E-16
5.199038E+03	1.098726E-14	2.105349E-16
5.203096E+03	1.098712E-14	2.069937E-16
5.207153E+03	1.099118E-14	2.077449E-16
5.211211E+03	1.098657E-14	2.065508E-16
5.215268E+03	1.098773E-14	2.054687E-16
5.219326E+03	1.098738E-14	1.935532E-16
5.223383E+03	1.097468E-14	1.960434E-16
5.227441E+03	1.097390E-14	1.996784E-16
5.231498E+03	1.096883E-14	1.984992E-16
5.235556E+03	1.093823E-14	1.914935E-16
5.239613E+03	1.091229E-14	1.886815E-16
5.243671E+03	1.090263E-14	1.897423E-16
5.247729E+03	1.088868E-14	1.750741E-16
5.251786E+03	1.086889E-14	1.675889E-16
5.255844E+03	1.084684E-14	1.667964E-16
5.259901E+03	1.083178E-14	1.663055E-16
5.263958E+03	1.081779E-14	1.653624E-16
5.268016E+03	1.080199E-14	1.645970E-16
5.272074E+03	1.078046E-14	1.603914E-16
5.276131E+03	1.075723E-14	1.517586E-16
5.280189E+03	1.073386E-14	1.543996E-16
5.284246E+03	1.071146E-14	1.568707E-16
