#wls	flux	fluxerr
1.600000E+03	6.239187E-15	7.249192E-16
1.640000E+03	6.353448E-15	6.723518E-16
1.680000E+03	6.469824E-15	6.184088E-16
1.720000E+03	6.589604E-15	5.634484E-16
1.760000E+03	6.712749E-15	5.077447E-16
1.800000E+03	6.840183E-15	4.517293E-16
1.840000E+03	6.969796E-15	3.957570E-16
1.880000E+03	7.102513E-15	3.406011E-16
1.920000E+03	7.234183E-15	2.871136E-16
1.960000E+03	7.363037E-15	2.368780E-16
2.000000E+03	7.482946E-15	1.922787E-16
2.040000E+03	7.586596E-15	1.570133E-16
2.080000E+03	7.668867E-15	1.353552E-16
2.120000E+03	7.727511E-15	1.279434E-16
2.160000E+03	7.768273E-15	1.288542E-16
2.200000E+03	7.801268E-15	1.324887E-16
2.240000E+03	7.833741E-15	1.379804E-16
2.280000E+03	7.879545E-15	1.471780E-16
2.320000E+03	7.942114E-15	1.595485E-16
2.360000E+03	8.029483E-15	1.719281E-16
2.400000E+03	8.143452E-15	1.807813E-16
2.440000E+03	8.282198E-15	1.833899E-16
2.480000E+03	8.442785E-15	1.783603E-16
2.520000E+03	8.609014E-15	1.660421E-16
2.560000E+03	8.764444E-15	1.504344E-16
2.600000E+03	8.885131E-15	1.413207E-16
2.640000E+03	8.948325E-15	1.512074E-16
2.680000E+03	8.956315E-15	1.810852E-16
2.720000E+03	8.924506E-15	2.212319E-16
2.760000E+03	8.872613E-15	2.634283E-16
2.800000E+03	8.815697E-15	3.031355E-16
2.840000E+03	8.765319E-15	3.381007E-16
2.880000E+03	8.730167E-15	3.672558E-16
2.920000E+03	8.712799E-15	3.899603E-16
2.960000E+03	8.718947E-15	4.060703E-16
3.000000E+03	8.753712E-15	4.156317E-16
3.010000E+03	8.767226E-15	4.170041E-16
3.020000E+03	8.782243E-15	4.179470E-16
3.030000E+03	8.800948E-15	4.185639E-16
3.040000E+03	8.821274E-15	4.187556E-16
3.050000E+03	8.844345E-15	4.185750E-16
3.060000E+03	8.870227E-15	4.180242E-16
3.070000E+03	8.897946E-15	4.170564E-16
3.080000E+03	8.929673E-15	4.157727E-16
3.090000E+03	8.963399E-15	4.140775E-16
3.100000E+03	9.001295E-15	4.120701E-16
3.110000E+03	9.041372E-15	4.096571E-16
3.120000E+03	9.085801E-15	4.069353E-16
3.130000E+03	9.133642E-15	4.038591E-16
3.140000E+03	9.184999E-15	4.004305E-16
3.150000E+03	9.239977E-15	3.966511E-16
3.160000E+03	9.299715E-15	3.925662E-16
3.170000E+03	9.364319E-15	3.881744E-16
3.180000E+03	9.432862E-15	3.834322E-16
3.190000E+03	9.505448E-15	3.783401E-16
3.200000E+03	9.584238E-15	3.729784E-16
3.210000E+03	9.667255E-15	3.672628E-16
3.220000E+03	9.755610E-15	3.612305E-16
3.230000E+03	9.849362E-15	3.548775E-16
3.240000E+03	9.949588E-15	3.482353E-16
3.250000E+03	1.005526E-14	3.412604E-16
3.260000E+03	1.016636E-14	3.339470E-16
3.270000E+03	1.028280E-14	3.262897E-16
3.280000E+03	1.040656E-14	3.183473E-16
3.290000E+03	1.053535E-14	3.100460E-16
3.300000E+03	1.066995E-14	3.014118E-16
3.310000E+03	1.080999E-14	2.924394E-16
3.320000E+03	1.095606E-14	2.831535E-16
3.330000E+03	1.110649E-14	2.735257E-16
3.340000E+03	1.126049E-14	2.635631E-16
3.350000E+03	1.141821E-14	2.533049E-16
3.360000E+03	1.157851E-14	2.427737E-16
3.370000E+03	1.174112E-14	2.320277E-16
3.380000E+03	1.190227E-14	2.210784E-16
3.390000E+03	1.206228E-14	2.100473E-16
3.400000E+03	1.221902E-14	1.990406E-16
3.410000E+03	1.236899E-14	1.881851E-16
3.420000E+03	1.251170E-14	1.777014E-16
3.430000E+03	1.264313E-14	1.678056E-16
3.440000E+03	1.276015E-14	1.587769E-16
3.450000E+03	1.286164E-14	1.509532E-16
3.460000E+03	1.294208E-14	1.446225E-16
3.470000E+03	1.299924E-14	1.400669E-16
3.480000E+03	1.302987E-14	1.374410E-16
3.490000E+03	1.303189E-14	1.367296E-16
3.500000E+03	1.300338E-14	1.377196E-16
3.510000E+03	1.294450E-14	1.400517E-16
3.520000E+03	1.285682E-14	1.433015E-16
3.530000E+03	1.274278E-14	1.470523E-16
3.540000E+03	1.260637E-14	1.509530E-16
3.550000E+03	1.244999E-14	1.547060E-16
3.560000E+03	1.227892E-14	1.581256E-16
3.570000E+03	1.209483E-14	1.610525E-16
3.580000E+03	1.190274E-14	1.634318E-16
3.590000E+03	1.170490E-14	1.652215E-16
3.600000E+03	1.150489E-14	1.664371E-16
3.610000E+03	1.130444E-14	1.670968E-16
3.620000E+03	1.110649E-14	1.672577E-16
3.630000E+03	1.091289E-14	1.669759E-16
3.640000E+03	1.072519E-14	1.663125E-16
3.650000E+03	1.054528E-14	1.653400E-16
3.660000E+03	1.037292E-14	1.640992E-16
3.670000E+03	1.021013E-14	1.626672E-16
3.680000E+03	1.005688E-14	1.610869E-16
3.690000E+03	9.914131E-15	1.594148E-16
3.700000E+03	9.781567E-15	1.576830E-16
3.710000E+03	9.659317E-15	1.559273E-16
3.720000E+03	9.547905E-15	1.541861E-16
3.730000E+03	9.447215E-15	1.524833E-16
3.740000E+03	9.357058E-15	1.508382E-16
3.750000E+03	9.276727E-15	1.492583E-16
3.760000E+03	9.205969E-15	1.477555E-16
3.770000E+03	9.144924E-15	1.463452E-16
3.780000E+03	9.093232E-15	1.450324E-16
3.790000E+03	9.050518E-15	1.438201E-16
3.800000E+03	9.015587E-15	1.426961E-16
3.810000E+03	8.989279E-15	1.416793E-16
3.820000E+03	8.970012E-15	1.407485E-16
3.830000E+03	8.958189E-15	1.399127E-16
3.840000E+03	8.953408E-15	1.391668E-16
3.850000E+03	8.954553E-15	1.384936E-16
3.860000E+03	8.961631E-15	1.378925E-16
3.870000E+03	8.974628E-15	1.373618E-16
3.880000E+03	8.992490E-15	1.368831E-16
3.890000E+03	9.014890E-15	1.364495E-16
3.900000E+03	9.042175E-15	1.360638E-16
3.910000E+03	9.073037E-15	1.357046E-16
3.920000E+03	9.107845E-15	1.353760E-16
3.930000E+03	9.145998E-15	1.350685E-16
3.940000E+03	9.187246E-15	1.347787E-16
3.950000E+03	9.231052E-15	1.344995E-16
3.960000E+03	9.277524E-15	1.342341E-16
3.970000E+03	9.326179E-15	1.339777E-16
3.980000E+03	9.377163E-15	1.337345E-16
3.990000E+03	9.429766E-15	1.334967E-16
4.000000E+03	9.483905E-15	1.332650E-16
4.010000E+03	9.539803E-15	1.330436E-16
4.020000E+03	9.597141E-15	1.328277E-16
4.030000E+03	9.655913E-15	1.326158E-16
4.040000E+03	9.716137E-15	1.324040E-16
4.050000E+03	9.777586E-15	1.321832E-16
4.060000E+03	9.840596E-15	1.319486E-16
4.070000E+03	9.904723E-15	1.316817E-16
4.080000E+03	9.970084E-15	1.313682E-16
4.090000E+03	1.003707E-14	1.309932E-16
4.100000E+03	1.010581E-14	1.305347E-16
4.110000E+03	1.017596E-14	1.299608E-16
4.120000E+03	1.024770E-14	1.292429E-16
4.130000E+03	1.032144E-14	1.283523E-16
4.140000E+03	1.039709E-14	1.272517E-16
4.150000E+03	1.047458E-14	1.259024E-16
4.160000E+03	1.055427E-14	1.242703E-16
4.170000E+03	1.063620E-14	1.223186E-16
4.180000E+03	1.071990E-14	1.200065E-16
4.190000E+03	1.080547E-14	1.173048E-16
4.200000E+03	1.089263E-14	1.141877E-16
4.210000E+03	1.098046E-14	1.106346E-16
4.220000E+03	1.106875E-14	1.066500E-16
4.230000E+03	1.115635E-14	1.022544E-16
4.240000E+03	1.124183E-14	9.750238E-17
4.250000E+03	1.132394E-14	9.250068E-17
4.260000E+03	1.140049E-14	8.741535E-17
4.270000E+03	1.146993E-14	8.250306E-17
4.280000E+03	1.152971E-14	7.810848E-17
4.290000E+03	1.157764E-14	7.466330E-17
4.300000E+03	1.161193E-14	7.262328E-17
4.310000E+03	1.163077E-14	7.233576E-17
4.320000E+03	1.163343E-14	7.386193E-17
4.330000E+03	1.162027E-14	7.693270E-17
4.340000E+03	1.159205E-14	8.111314E-17
4.350000E+03	1.155012E-14	8.595121E-17
4.360000E+03	1.149605E-14	9.105799E-17
4.370000E+03	1.143170E-14	9.613428E-17
4.380000E+03	1.135818E-14	1.009571E-16
4.390000E+03	1.127771E-14	1.053845E-16
4.400000E+03	1.119153E-14	1.093231E-16
4.410000E+03	1.110101E-14	1.127258E-16
4.420000E+03	1.100797E-14	1.155847E-16
4.430000E+03	1.091343E-14	1.179098E-16
4.440000E+03	1.081882E-14	1.197348E-16
4.450000E+03	1.072527E-14	1.211043E-16
4.460000E+03	1.063362E-14	1.220687E-16
4.470000E+03	1.054457E-14	1.226825E-16
4.480000E+03	1.045917E-14	1.230064E-16
4.490000E+03	1.037768E-14	1.230923E-16
4.500000E+03	1.030056E-14	1.229921E-16
4.510000E+03	1.022829E-14	1.227552E-16
4.520000E+03	1.016079E-14	1.224197E-16
4.530000E+03	1.009848E-14	1.220255E-16
4.540000E+03	1.004098E-14	1.215978E-16
4.550000E+03	9.988706E-15	1.211670E-16
4.560000E+03	9.941181E-15	1.207482E-16
4.570000E+03	9.898473E-15	1.203592E-16
4.580000E+03	9.860361E-15	1.200111E-16
4.590000E+03	9.826903E-15	1.197153E-16
4.600000E+03	9.798027E-15	1.194794E-16
4.610000E+03	9.773416E-15	1.193067E-16
4.620000E+03	9.753183E-15	1.192045E-16
4.630000E+03	9.737199E-15	1.191766E-16
4.640000E+03	9.725621E-15	1.192304E-16
4.650000E+03	9.718242E-15	1.193693E-16
4.660000E+03	9.715385E-15	1.196039E-16
4.670000E+03	9.716873E-15	1.199395E-16
4.680000E+03	9.722788E-15	1.203858E-16
4.690000E+03	9.733327E-15	1.209546E-16
4.700000E+03	9.748421E-15	1.216554E-16
4.710000E+03	9.768099E-15	1.224989E-16
4.720000E+03	9.792349E-15	1.234953E-16
4.730000E+03	9.821110E-15	1.246532E-16
4.740000E+03	9.854140E-15	1.259774E-16
4.750000E+03	9.891492E-15	1.274738E-16
4.760000E+03	9.932899E-15	1.291407E-16
4.770000E+03	9.977890E-15	1.309698E-16
4.780000E+03	1.002615E-14	1.329496E-16
4.790000E+03	1.007715E-14	1.350604E-16
4.800000E+03	1.013030E-14	1.372756E-16
4.810000E+03	1.018489E-14	1.395620E-16
4.820000E+03	1.024019E-14	1.418798E-16
4.830000E+03	1.029549E-14	1.441858E-16
4.840000E+03	1.034972E-14	1.464279E-16
4.850000E+03	1.040198E-14	1.485548E-16
4.860000E+03	1.045165E-14	1.505187E-16
4.870000E+03	1.049764E-14	1.522664E-16
4.880000E+03	1.053913E-14	1.537520E-16
4.890000E+03	1.057562E-14	1.549389E-16
4.900000E+03	1.060632E-14	1.557928E-16
4.910000E+03	1.063069E-14	1.562898E-16
4.920000E+03	1.064841E-14	1.564178E-16
4.930000E+03	1.065903E-14	1.561715E-16
4.940000E+03	1.066252E-14	1.555598E-16
4.950000E+03	1.065896E-14	1.546014E-16
4.960000E+03	1.064832E-14	1.533208E-16
4.970000E+03	1.063094E-14	1.517540E-16
4.980000E+03	1.060704E-14	1.499400E-16
4.990000E+03	1.057728E-14	1.479273E-16
5.000000E+03	1.054217E-14	1.457636E-16
5.010000E+03	1.050215E-14	1.434955E-16
5.020000E+03	1.045796E-14	1.411713E-16
5.030000E+03	1.041035E-14	1.388361E-16
5.040000E+03	1.035975E-14	1.365254E-16
5.050000E+03	1.030714E-14	1.342765E-16
5.060000E+03	1.025293E-14	1.321128E-16
5.070000E+03	1.019787E-14	1.300551E-16
5.080000E+03	1.014255E-14	1.281162E-16
5.090000E+03	1.008753E-14	1.263028E-16
5.100000E+03	1.003345E-14	1.246177E-16
5.110000E+03	9.980686E-15	1.230564E-16
5.120000E+03	9.929775E-15	1.216132E-16
5.130000E+03	9.881095E-15	1.202785E-16
5.140000E+03	9.834856E-15	1.190387E-16
5.150000E+03	9.791516E-15	1.178822E-16
5.160000E+03	9.751150E-15	1.167921E-16
5.170000E+03	9.713864E-15	1.157509E-16
5.180000E+03	9.679695E-15	1.147397E-16
5.190000E+03	9.648709E-15	1.137393E-16
5.200000E+03	9.620601E-15	1.127250E-16
5.210000E+03	9.595513E-15	1.116766E-16
5.220000E+03	9.573026E-15	1.105659E-16
5.230000E+03	9.552877E-15	1.093652E-16
5.240000E+03	9.534862E-15	1.080465E-16
5.250000E+03	9.518643E-15	1.065786E-16
5.260000E+03	9.503755E-15	1.049281E-16
5.270000E+03	9.489909E-15	1.030631E-16
5.280000E+03	9.476600E-15	1.009494E-16
5.290000E+03	9.463603E-15	9.855767E-17
5.300000E+03	9.450288E-15	9.585749E-17
5.310000E+03	9.436215E-15	9.282636E-17
5.320000E+03	9.421136E-15	8.945281E-17
5.330000E+03	9.404412E-15	8.573515E-17
5.340000E+03	9.385711E-15	8.169415E-17
5.350000E+03	9.364522E-15	7.737622E-17
5.360000E+03	9.340561E-15	7.286685E-17
5.370000E+03	9.313582E-15	6.830120E-17
5.380000E+03	9.283022E-15	6.387499E-17
5.390000E+03	9.248963E-15	5.986160E-17
5.400000E+03	9.211110E-15	5.659938E-17
5.410000E+03	9.169662E-15	5.445625E-17
5.420000E+03	9.124497E-15	5.372762E-17
5.430000E+03	9.076259E-15	5.449283E-17
5.440000E+03	9.025431E-15	5.654352E-17
5.450000E+03	8.972554E-15	5.952346E-17
5.460000E+03	8.918355E-15	6.306336E-17
5.470000E+03	8.863445E-15	6.685141E-17
5.480000E+03	8.808298E-15	7.065404E-17
5.490000E+03	8.753498E-15	7.431189E-17
5.500000E+03	8.699462E-15	7.772302E-17
5.510000E+03	8.646524E-15	8.082853E-17
5.520000E+03	8.595024E-15	8.360112E-17
5.530000E+03	8.544974E-15	8.603234E-17
5.540000E+03	8.496666E-15	8.813157E-17
5.550000E+03	8.450178E-15	8.991610E-17
5.560000E+03	8.405397E-15	9.140742E-17
5.570000E+03	8.362534E-15	9.263424E-17
5.580000E+03	8.321560E-15	9.362441E-17
5.590000E+03	8.282552E-15	9.440736E-17
5.600000E+03	8.245622E-15	9.501238E-17
5.610000E+03	8.211007E-15	9.546891E-17
5.620000E+03	8.178823E-15	9.580336E-17
5.630000E+03	8.149394E-15	9.604252E-17
5.640000E+03	8.122923E-15	9.620954E-17
5.650000E+03	8.099802E-15	9.632762E-17
5.660000E+03	8.080284E-15	9.641612E-17
5.670000E+03	8.064711E-15	9.649335E-17
5.680000E+03	8.053496E-15	9.657663E-17
5.690000E+03	8.046953E-15	9.668043E-17
5.700000E+03	8.045209E-15	9.681550E-17
5.710000E+03	8.048662E-15	9.699465E-17
5.720000E+03	8.057420E-15	9.722619E-17
5.730000E+03	8.071686E-15	9.751869E-17
5.740000E+03	8.091354E-15	9.787623E-17
5.750000E+03	8.116558E-15	9.830503E-17
5.760000E+03	8.147108E-15	9.880657E-17
5.770000E+03	8.182804E-15	9.938135E-17
5.780000E+03	8.223268E-15	1.000267E-16
5.790000E+03	8.268268E-15	1.007404E-16
5.800000E+03	8.317146E-15	1.015138E-16
5.810000E+03	8.369386E-15	1.023388E-16
5.820000E+03	8.424212E-15	1.032023E-16
5.830000E+03	8.480917E-15	1.040909E-16
5.840000E+03	8.538549E-15	1.049870E-16
5.850000E+03	8.596249E-15	1.058731E-16
5.860000E+03	8.652860E-15	1.067275E-16
5.870000E+03	8.707529E-15	1.075318E-16
5.880000E+03	8.759068E-15	1.082637E-16
5.890000E+03	8.806569E-15	1.089052E-16
5.900000E+03	8.849108E-15	1.094387E-16
5.910000E+03	8.885772E-15	1.098481E-16
5.920000E+03	8.915954E-15	1.101228E-16
5.930000E+03	8.938959E-15	1.102526E-16
5.940000E+03	8.954632E-15	1.102356E-16
5.950000E+03	8.962691E-15	1.100698E-16
5.960000E+03	8.963351E-15	1.097603E-16
5.970000E+03	8.956896E-15	1.093139E-16
5.980000E+03	8.943934E-15	1.087415E-16
5.990000E+03	8.925302E-15	1.080563E-16
6.000000E+03	8.902043E-15	1.072729E-16
6.010000E+03	8.875292E-15	1.064057E-16
6.020000E+03	8.846414E-15	1.054696E-16
6.030000E+03	8.816875E-15	1.044786E-16
6.040000E+03	8.788209E-15	1.034445E-16
6.050000E+03	8.761883E-15	1.023753E-16
6.060000E+03	8.739430E-15	1.012764E-16
6.070000E+03	8.722321E-15	1.001491E-16
6.080000E+03	8.711847E-15	9.898879E-17
6.090000E+03	8.709249E-15	9.778623E-17
6.100000E+03	8.715513E-15	9.652534E-17
6.110000E+03	8.731593E-15	9.518541E-17
6.120000E+03	8.757952E-15	9.373634E-17
6.130000E+03	8.795119E-15	9.214504E-17
6.140000E+03	8.842979E-15	9.036864E-17
6.150000E+03	8.901327E-15	8.836184E-17
6.160000E+03	8.969499E-15	8.607525E-17
6.170000E+03	9.046420E-15	8.345934E-17
6.180000E+03	9.130761E-15	8.047091E-17
6.190000E+03	9.220579E-15	7.707681E-17
6.200000E+03	9.313323E-15	7.326469E-17
6.210000E+03	9.406136E-15	6.906014E-17
6.220000E+03	9.495952E-15	6.454735E-17
6.230000E+03	9.579437E-15	5.989566E-17
6.240000E+03	9.653361E-15	5.539468E-17
6.250000E+03	9.714838E-15	5.148193E-17
6.260000E+03	9.761311E-15	4.872573E-17
6.270000E+03	9.791334E-15	4.770030E-17
6.280000E+03	9.804346E-15	4.870421E-17
6.290000E+03	9.801462E-15	5.152474E-17
6.300000E+03	9.785004E-15	5.562975E-17
6.310000E+03	9.758027E-15	6.045755E-17
6.320000E+03	9.724192E-15	6.556485E-17
6.330000E+03	9.687187E-15	7.065239E-17
6.340000E+03	9.651062E-15	7.554531E-17
6.350000E+03	9.619158E-15	8.015392E-17
6.360000E+03	9.594944E-15	8.445287E-17
6.370000E+03	9.580947E-15	8.845226E-17
6.380000E+03	9.579489E-15	9.218916E-17
6.390000E+03	9.592472E-15	9.571601E-17
6.400000E+03	9.620988E-15	9.908966E-17
6.410000E+03	9.665831E-15	1.023715E-16
6.420000E+03	9.727221E-15	1.056212E-16
6.430000E+03	9.805030E-15	1.088972E-16
6.440000E+03	9.898612E-15	1.122521E-16
6.450000E+03	1.000703E-14	1.157340E-16
6.460000E+03	1.012877E-14	1.193813E-16
6.470000E+03	1.026219E-14	1.232252E-16
6.480000E+03	1.040524E-14	1.272849E-16
6.490000E+03	1.055549E-14	1.315647E-16
6.500000E+03	1.071060E-14	1.360581E-16
6.510000E+03	1.086773E-14	1.407381E-16
6.520000E+03	1.102425E-14	1.455652E-16
6.530000E+03	1.117711E-14	1.504788E-16
6.540000E+03	1.132350E-14	1.554065E-16
6.550000E+03	1.146052E-14	1.602614E-16
6.560000E+03	1.158543E-14	1.649477E-16
6.570000E+03	1.169577E-14	1.693661E-16
6.580000E+03	1.178922E-14	1.734154E-16
6.590000E+03	1.186364E-14	1.769969E-16
6.600000E+03	1.191750E-14	1.800246E-16
6.610000E+03	1.194968E-14	1.824261E-16
6.620000E+03	1.195908E-14	1.841395E-16
6.630000E+03	1.194558E-14	1.851307E-16
6.640000E+03	1.190922E-14	1.853825E-16
6.650000E+03	1.185047E-14	1.848993E-16
6.660000E+03	1.177022E-14	1.837067E-16
6.670000E+03	1.166969E-14	1.818500E-16
6.680000E+03	1.155041E-14	1.793920E-16
6.690000E+03	1.141429E-14	1.764112E-16
6.700000E+03	1.126332E-14	1.729950E-16
6.710000E+03	1.109946E-14	1.692349E-16
6.720000E+03	1.092516E-14	1.652308E-16
6.730000E+03	1.074248E-14	1.610747E-16
6.740000E+03	1.055359E-14	1.568550E-16
6.750000E+03	1.036071E-14	1.526532E-16
6.760000E+03	1.016582E-14	1.485376E-16
6.770000E+03	9.970669E-15	1.445619E-16
6.780000E+03	9.777079E-15	1.407695E-16
6.790000E+03	9.586591E-15	1.371887E-16
6.800000E+03	9.400577E-15	1.338350E-16
6.810000E+03	9.220342E-15	1.307145E-16
6.820000E+03	9.046801E-15	1.278214E-16
6.830000E+03	8.880818E-15	1.251447E-16
6.840000E+03	8.723096E-15	1.226692E-16
6.850000E+03	8.574292E-15	1.203791E-16
6.860000E+03	8.434817E-15	1.182565E-16
6.870000E+03	8.304857E-15	1.162835E-16
6.880000E+03	8.184678E-15	1.144472E-16
6.890000E+03	8.074338E-15	1.127358E-16
6.900000E+03	7.973701E-15	1.111393E-16
6.910000E+03	7.882733E-15	1.096536E-16
6.920000E+03	7.801222E-15	1.082756E-16
6.930000E+03	7.728789E-15	1.070032E-16
6.940000E+03	7.665173E-15	1.058386E-16
6.950000E+03	7.609962E-15	1.047837E-16
6.960000E+03	7.562686E-15	1.038408E-16
6.970000E+03	7.522829E-15	1.030122E-16
6.980000E+03	7.489744E-15	1.022984E-16
6.990000E+03	7.462837E-15	1.016999E-16
7.000000E+03	7.441670E-15	1.012186E-16
7.010000E+03	7.425418E-15	1.008498E-16
7.020000E+03	7.413424E-15	1.005895E-16
7.030000E+03	7.405026E-15	1.004320E-16
7.040000E+03	7.399657E-15	1.003710E-16
7.050000E+03	7.396579E-15	1.003960E-16
7.060000E+03	7.395169E-15	1.004964E-16
7.070000E+03	7.394840E-15	1.006600E-16
7.080000E+03	7.395044E-15	1.008733E-16
7.090000E+03	7.395290E-15	1.011224E-16
7.100000E+03	7.395056E-15	1.013910E-16
7.110000E+03	7.393983E-15	1.016644E-16
7.120000E+03	7.391876E-15	1.019290E-16
7.130000E+03	7.388349E-15	1.021683E-16
7.140000E+03	7.383458E-15	1.023718E-16
7.150000E+03	7.376969E-15	1.025256E-16
7.160000E+03	7.368905E-15	1.026203E-16
7.170000E+03	7.359354E-15	1.026485E-16
7.180000E+03	7.348546E-15	1.026068E-16
7.190000E+03	7.336482E-15	1.024904E-16
7.200000E+03	7.323374E-15	1.022996E-16
7.210000E+03	7.309451E-15	1.020373E-16
7.220000E+03	7.294946E-15	1.017082E-16
7.230000E+03	7.279993E-15	1.013179E-16
7.240000E+03	7.264796E-15	1.008744E-16
7.250000E+03	7.249530E-15	1.003867E-16
7.260000E+03	7.234335E-15	9.986399E-17
7.270000E+03	7.219126E-15	9.931289E-17
7.280000E+03	7.203955E-15	9.874183E-17
7.290000E+03	7.188917E-15	9.815942E-17
7.300000E+03	7.173791E-15	9.756917E-17
7.310000E+03	7.158493E-15	9.697546E-17
7.320000E+03	7.142902E-15	9.638100E-17
7.330000E+03	7.126864E-15	9.578690E-17
7.340000E+03	7.110023E-15	9.519056E-17
7.350000E+03	7.092188E-15	9.459076E-17
7.360000E+03	7.073159E-15	9.398574E-17
7.370000E+03	7.052738E-15	9.337358E-17
7.380000E+03	7.030648E-15	9.275149E-17
7.390000E+03	7.006631E-15	9.211725E-17
7.400000E+03	6.980540E-15	9.147046E-17
7.410000E+03	6.952254E-15	9.081123E-17
7.420000E+03	6.921686E-15	9.013985E-17
7.430000E+03	6.888695E-15	8.945505E-17
7.440000E+03	6.853174E-15	8.875448E-17
7.450000E+03	6.815312E-15	8.803726E-17
7.460000E+03	6.775071E-15	8.729651E-17
7.470000E+03	6.732615E-15	8.652439E-17
7.480000E+03	6.688053E-15	8.570839E-17
7.490000E+03	6.641520E-15	8.483237E-17
7.500000E+03	6.593261E-15	8.387792E-17
7.510000E+03	6.543459E-15	8.282272E-17
7.520000E+03	6.492318E-15	8.164240E-17
7.530000E+03	6.440144E-15	8.031258E-17
7.540000E+03	6.387180E-15	7.880790E-17
7.550000E+03	6.333768E-15	7.710527E-17
7.560000E+03	6.280103E-15	7.518204E-17
7.570000E+03	6.226643E-15	7.302226E-17
7.580000E+03	6.173620E-15	7.061198E-17
7.590000E+03	6.121445E-15	6.794543E-17
7.600000E+03	6.070465E-15	6.502352E-17
7.610000E+03	6.021129E-15	6.185738E-17
7.620000E+03	5.973744E-15	5.846798E-17
7.630000E+03	5.928721E-15	5.489177E-17
7.640000E+03	5.886645E-15	5.118540E-17
7.650000E+03	5.847891E-15	4.742836E-17
7.660000E+03	5.813006E-15	4.373506E-17
7.670000E+03	5.782325E-15	4.026217E-17
7.680000E+03	5.756566E-15	3.722192E-17
7.690000E+03	5.736049E-15	3.487292E-17
7.700000E+03	5.721262E-15	3.348832E-17
7.710000E+03	5.712479E-15	3.326773E-17
7.720000E+03	5.709565E-15	3.421701E-17
7.730000E+03	5.712269E-15	3.614111E-17
7.740000E+03	5.719887E-15	3.876169E-17
7.750000E+03	5.731964E-15	4.181435E-17
7.760000E+03	5.747730E-15	4.508578E-17
