#wls	flux	fluxerr
1.600000E+03	6.594722E-15	7.569492E-16
1.640000E+03	6.708785E-15	6.996512E-16
1.680000E+03	6.826057E-15	6.410646E-16
1.720000E+03	6.944319E-15	5.812287E-16
1.760000E+03	7.066111E-15	5.206894E-16
1.800000E+03	7.190166E-15	4.597327E-16
1.840000E+03	7.318614E-15	3.989978E-16
1.880000E+03	7.450428E-15	3.390802E-16
1.920000E+03	7.584656E-15	2.809138E-16
1.960000E+03	7.717102E-15	2.259072E-16
2.000000E+03	7.842138E-15	1.765864E-16
2.040000E+03	7.949821E-15	1.373435E-16
2.080000E+03	8.033159E-15	1.142614E-16
2.120000E+03	8.086777E-15	1.084466E-16
2.160000E+03	8.120479E-15	1.106015E-16
2.200000E+03	8.145081E-15	1.131212E-16
2.240000E+03	8.172241E-15	1.167175E-16
2.280000E+03	8.211358E-15	1.260898E-16
2.320000E+03	8.268190E-15	1.412407E-16
2.360000E+03	8.351299E-15	1.572393E-16
2.400000E+03	8.466773E-15	1.691685E-16
2.440000E+03	8.616238E-15	1.735690E-16
2.480000E+03	8.794214E-15	1.684097E-16
2.520000E+03	8.987531E-15	1.535042E-16
2.560000E+03	9.175540E-15	1.324992E-16
2.600000E+03	9.324835E-15	1.175025E-16
2.640000E+03	9.404753E-15	1.279573E-16
2.680000E+03	9.415705E-15	1.645812E-16
2.720000E+03	9.382866E-15	2.120143E-16
2.760000E+03	9.333258E-15	2.603057E-16
2.800000E+03	9.282258E-15	3.049404E-16
2.840000E+03	9.240317E-15	3.438830E-16
2.880000E+03	9.210012E-15	3.759968E-16
2.920000E+03	9.191601E-15	4.006001E-16
2.960000E+03	9.187356E-15	4.174124E-16
3.000000E+03	9.197464E-15	4.262767E-16
3.010000E+03	9.202707E-15	4.272686E-16
3.020000E+03	9.209557E-15	4.277966E-16
3.030000E+03	9.217128E-15	4.278211E-16
3.040000E+03	9.225470E-15	4.273464E-16
3.050000E+03	9.236449E-15	4.264612E-16
3.060000E+03	9.247391E-15	4.250445E-16
3.070000E+03	9.261066E-15	4.232269E-16
3.080000E+03	9.275733E-15	4.209316E-16
3.090000E+03	9.292355E-15	4.182057E-16
3.100000E+03	9.311001E-15	4.150558E-16
3.110000E+03	9.330868E-15	4.114497E-16
3.120000E+03	9.353802E-15	4.074728E-16
3.130000E+03	9.378137E-15	4.030555E-16
3.140000E+03	9.405716E-15	3.982813E-16
3.150000E+03	9.434903E-15	3.930840E-16
3.160000E+03	9.467538E-15	3.875445E-16
3.170000E+03	9.502869E-15	3.816345E-16
3.180000E+03	9.541871E-15	3.753962E-16
3.190000E+03	9.583809E-15	3.688030E-16
3.200000E+03	9.629660E-15	3.618955E-16
3.210000E+03	9.678698E-15	3.546487E-16
3.220000E+03	9.731898E-15	3.471014E-16
3.230000E+03	9.789380E-15	3.392594E-16
3.240000E+03	9.851256E-15	3.311283E-16
3.250000E+03	9.918472E-15	3.227410E-16
3.260000E+03	9.989431E-15	3.140469E-16
3.270000E+03	1.006588E-14	3.051051E-16
3.280000E+03	1.014785E-14	2.959175E-16
3.290000E+03	1.023535E-14	2.864864E-16
3.300000E+03	1.032746E-14	2.767916E-16
3.310000E+03	1.042575E-14	2.668825E-16
3.320000E+03	1.052918E-14	2.567398E-16
3.330000E+03	1.063830E-14	2.463899E-16
3.340000E+03	1.075266E-14	2.358398E-16
3.350000E+03	1.087173E-14	2.251017E-16
3.360000E+03	1.099474E-14	2.141953E-16
3.370000E+03	1.112161E-14	2.031668E-16
3.380000E+03	1.125115E-14	1.920584E-16
3.390000E+03	1.138191E-14	1.809335E-16
3.400000E+03	1.151298E-14	1.698951E-16
3.410000E+03	1.164224E-14	1.590673E-16
3.420000E+03	1.176720E-14	1.486196E-16
3.430000E+03	1.188583E-14	1.387858E-16
3.440000E+03	1.199482E-14	1.298456E-16
3.450000E+03	1.209049E-14	1.221288E-16
3.460000E+03	1.216965E-14	1.159929E-16
3.470000E+03	1.222888E-14	1.117489E-16
3.480000E+03	1.226293E-14	1.095519E-16
3.490000E+03	1.226915E-14	1.093471E-16
3.500000E+03	1.224423E-14	1.108327E-16
3.510000E+03	1.219031E-14	1.135794E-16
3.520000E+03	1.210900E-14	1.170983E-16
3.530000E+03	1.200367E-14	1.209541E-16
3.540000E+03	1.187962E-14	1.248152E-16
3.550000E+03	1.174008E-14	1.284253E-16
3.560000E+03	1.158962E-14	1.316317E-16
3.570000E+03	1.143125E-14	1.343382E-16
3.580000E+03	1.126899E-14	1.365186E-16
3.590000E+03	1.110583E-14	1.381785E-16
3.600000E+03	1.094376E-14	1.393424E-16
3.610000E+03	1.078561E-14	1.400671E-16
3.620000E+03	1.063321E-14	1.404112E-16
3.630000E+03	1.048697E-14	1.404222E-16
3.640000E+03	1.034919E-14	1.401770E-16
3.650000E+03	1.022077E-14	1.397342E-16
3.660000E+03	1.010133E-14	1.391339E-16
3.670000E+03	9.992337E-15	1.384374E-16
3.680000E+03	9.893088E-15	1.376724E-16
3.690000E+03	9.804180E-15	1.368793E-16
3.700000E+03	9.725152E-15	1.360790E-16
3.710000E+03	9.656329E-15	1.352984E-16
3.720000E+03	9.597085E-15	1.345465E-16
3.730000E+03	9.547174E-15	1.338337E-16
3.740000E+03	9.506301E-15	1.331663E-16
3.750000E+03	9.474140E-15	1.325474E-16
3.760000E+03	9.449970E-15	1.319731E-16
3.770000E+03	9.433457E-15	1.314435E-16
3.780000E+03	9.424257E-15	1.309582E-16
3.790000E+03	9.421677E-15	1.305119E-16
3.800000E+03	9.425737E-15	1.301091E-16
3.810000E+03	9.435761E-15	1.297449E-16
3.820000E+03	9.451434E-15	1.294189E-16
3.830000E+03	9.472447E-15	1.291303E-16
3.840000E+03	9.497856E-15	1.288685E-16
3.850000E+03	9.528021E-15	1.286394E-16
3.860000E+03	9.562029E-15	1.284301E-16
3.870000E+03	9.599920E-15	1.282393E-16
3.880000E+03	9.640817E-15	1.280527E-16
3.890000E+03	9.685068E-15	1.278717E-16
3.900000E+03	9.731525E-15	1.276781E-16
3.910000E+03	9.780535E-15	1.274744E-16
3.920000E+03	9.831280E-15	1.272490E-16
3.930000E+03	9.883537E-15	1.269997E-16
3.940000E+03	9.937092E-15	1.267262E-16
3.950000E+03	9.991740E-15	1.264300E-16
3.960000E+03	1.004702E-14	1.261105E-16
3.970000E+03	1.010277E-14	1.257718E-16
3.980000E+03	1.015859E-14	1.254156E-16
3.990000E+03	1.021436E-14	1.250473E-16
4.000000E+03	1.027004E-14	1.246721E-16
4.010000E+03	1.032531E-14	1.242918E-16
4.020000E+03	1.038020E-14	1.239109E-16
4.030000E+03	1.043450E-14	1.235295E-16
4.040000E+03	1.048856E-14	1.231521E-16
4.050000E+03	1.054199E-14	1.227722E-16
4.060000E+03	1.059521E-14	1.223892E-16
4.070000E+03	1.064814E-14	1.219927E-16
4.080000E+03	1.070101E-14	1.215714E-16
4.090000E+03	1.075379E-14	1.211062E-16
4.100000E+03	1.080673E-14	1.205765E-16
4.110000E+03	1.086011E-14	1.199566E-16
4.120000E+03	1.091399E-14	1.192149E-16
4.130000E+03	1.096894E-14	1.183214E-16
4.140000E+03	1.102509E-14	1.172393E-16
4.150000E+03	1.108261E-14	1.159312E-16
4.160000E+03	1.114235E-14	1.143665E-16
4.170000E+03	1.120403E-14	1.125044E-16
4.180000E+03	1.126846E-14	1.103168E-16
4.190000E+03	1.133546E-14	1.077693E-16
4.200000E+03	1.140559E-14	1.048391E-16
4.210000E+03	1.147854E-14	1.015024E-16
4.220000E+03	1.155371E-14	9.774468E-17
4.230000E+03	1.163081E-14	9.357270E-17
4.240000E+03	1.170823E-14	8.901212E-17
4.250000E+03	1.178477E-14	8.413749E-17
4.260000E+03	1.185781E-14	7.908104E-17
4.270000E+03	1.192507E-14	7.407320E-17
4.280000E+03	1.198339E-14	6.946092E-17
4.290000E+03	1.202905E-14	6.571768E-17
4.300000E+03	1.205870E-14	6.339342E-17
4.310000E+03	1.206931E-14	6.294521E-17
4.320000E+03	1.205978E-14	6.446383E-17
4.330000E+03	1.203089E-14	6.760230E-17
4.340000E+03	1.198439E-14	7.182940E-17
4.350000E+03	1.192240E-14	7.663226E-17
4.360000E+03	1.184755E-14	8.160607E-17
4.370000E+03	1.176183E-14	8.645428E-17
4.380000E+03	1.166752E-14	9.097166E-17
4.390000E+03	1.156638E-14	9.502218E-17
4.400000E+03	1.146065E-14	9.853197E-17
4.410000E+03	1.135207E-14	1.014694E-16
4.420000E+03	1.124210E-14	1.038357E-16
4.430000E+03	1.113245E-14	1.056618E-16
4.440000E+03	1.102433E-14	1.069936E-16
4.450000E+03	1.091916E-14	1.078927E-16
4.460000E+03	1.081767E-14	1.084218E-16
4.470000E+03	1.072106E-14	1.086516E-16
4.480000E+03	1.063002E-14	1.086473E-16
4.490000E+03	1.054471E-14	1.084650E-16
4.500000E+03	1.046559E-14	1.081587E-16
4.510000E+03	1.039263E-14	1.077713E-16
4.520000E+03	1.032597E-14	1.073408E-16
4.530000E+03	1.026519E-14	1.068932E-16
4.540000E+03	1.021023E-14	1.064524E-16
4.550000E+03	1.016069E-14	1.060342E-16
4.560000E+03	1.011631E-14	1.056511E-16
4.570000E+03	1.007668E-14	1.053109E-16
4.580000E+03	1.004144E-14	1.050188E-16
4.590000E+03	1.001053E-14	1.047805E-16
4.600000E+03	9.983697E-15	1.045978E-16
4.610000E+03	9.960863E-15	1.044729E-16
4.620000E+03	9.941889E-15	1.044067E-16
4.630000E+03	9.926830E-15	1.044017E-16
4.640000E+03	9.915798E-15	1.044614E-16
4.650000E+03	9.908950E-15	1.045908E-16
4.660000E+03	9.906357E-15	1.047954E-16
4.670000E+03	9.908370E-15	1.050854E-16
4.680000E+03	9.915107E-15	1.054707E-16
4.690000E+03	9.926814E-15	1.059647E-16
4.700000E+03	9.943728E-15	1.065824E-16
4.710000E+03	9.966060E-15	1.073404E-16
4.720000E+03	9.993860E-15	1.082544E-16
4.730000E+03	1.002737E-14	1.093429E-16
4.740000E+03	1.006649E-14	1.106204E-16
4.750000E+03	1.011120E-14	1.120999E-16
4.760000E+03	1.016119E-14	1.137893E-16
4.770000E+03	1.021620E-14	1.156916E-16
4.780000E+03	1.027581E-14	1.178026E-16
4.790000E+03	1.033923E-14	1.201056E-16
4.800000E+03	1.040577E-14	1.225765E-16
4.810000E+03	1.047475E-14	1.251813E-16
4.820000E+03	1.054533E-14	1.278749E-16
4.830000E+03	1.061636E-14	1.305996E-16
4.840000E+03	1.068684E-14	1.332925E-16
4.850000E+03	1.075560E-14	1.358840E-16
4.860000E+03	1.082157E-14	1.383042E-16
4.870000E+03	1.088369E-14	1.404844E-16
4.880000E+03	1.094072E-14	1.423581E-16
4.890000E+03	1.099161E-14	1.438683E-16
4.900000E+03	1.103557E-14	1.449705E-16
4.910000E+03	1.107171E-14	1.456300E-16
4.920000E+03	1.109956E-14	1.458298E-16
4.930000E+03	1.111873E-14	1.455662E-16
4.940000E+03	1.112913E-14	1.448523E-16
4.950000E+03	1.113055E-14	1.437101E-16
4.960000E+03	1.112332E-14	1.421796E-16
4.970000E+03	1.110785E-14	1.403099E-16
4.980000E+03	1.108479E-14	1.381605E-16
4.990000E+03	1.105471E-14	1.357934E-16
5.000000E+03	1.101835E-14	1.332753E-16
5.010000E+03	1.097664E-14	1.306741E-16
5.020000E+03	1.093028E-14	1.280516E-16
5.030000E+03	1.088018E-14	1.254663E-16
5.040000E+03	1.082714E-14	1.229662E-16
5.050000E+03	1.077189E-14	1.205890E-16
5.060000E+03	1.071501E-14	1.183598E-16
5.070000E+03	1.065739E-14	1.162965E-16
5.080000E+03	1.059943E-14	1.144020E-16
5.090000E+03	1.054195E-14	1.126763E-16
5.100000E+03	1.048550E-14	1.111107E-16
5.110000E+03	1.043040E-14	1.096905E-16
5.120000E+03	1.037746E-14	1.084051E-16
5.130000E+03	1.032680E-14	1.072356E-16
5.140000E+03	1.027913E-14	1.061703E-16
5.150000E+03	1.023453E-14	1.051913E-16
5.160000E+03	1.019342E-14	1.042851E-16
5.170000E+03	1.015570E-14	1.034332E-16
5.180000E+03	1.012150E-14	1.026191E-16
5.190000E+03	1.009085E-14	1.018250E-16
5.200000E+03	1.006347E-14	1.010297E-16
5.210000E+03	1.003913E-14	1.002112E-16
5.220000E+03	1.001753E-14	9.934642E-17
5.230000E+03	9.998355E-15	9.841093E-17
5.240000E+03	9.981350E-15	9.737988E-17
5.250000E+03	9.966145E-15	9.622591E-17
5.260000E+03	9.952260E-15	9.491904E-17
5.270000E+03	9.939311E-15	9.342850E-17
5.280000E+03	9.927006E-15	9.172280E-17
5.290000E+03	9.914836E-15	8.976735E-17
5.300000E+03	9.902480E-15	8.752941E-17
5.310000E+03	9.889491E-15	8.497723E-17
5.320000E+03	9.875296E-15	8.208317E-17
5.330000E+03	9.859502E-15	7.883072E-17
5.340000E+03	9.841493E-15	7.521727E-17
5.350000E+03	9.820844E-15	7.126604E-17
5.360000E+03	9.796930E-15	6.703487E-17
5.370000E+03	9.769350E-15	6.263536E-17
5.380000E+03	9.737555E-15	5.825040E-17
5.390000E+03	9.701276E-15	5.415804E-17
5.400000E+03	9.660174E-15	5.073798E-17
5.410000E+03	9.614290E-15	4.843936E-17
5.420000E+03	9.563732E-15	4.765689E-17
5.430000E+03	9.509228E-15	4.850942E-17
5.440000E+03	9.451754E-15	5.073230E-17
5.450000E+03	9.392439E-15	5.388246E-17
5.460000E+03	9.332440E-15	5.752898E-17
5.470000E+03	9.272615E-15	6.133545E-17
5.480000E+03	9.213863E-15	6.507242E-17
5.490000E+03	9.156813E-15	6.859623E-17
5.500000E+03	9.101815E-15	7.182468E-17
5.510000E+03	9.049308E-15	7.471959E-17
5.520000E+03	8.999371E-15	7.726854E-17
5.530000E+03	8.951939E-15	7.947596E-17
5.540000E+03	8.906830E-15	8.135651E-17
5.550000E+03	8.863790E-15	8.293084E-17
5.560000E+03	8.822531E-15	8.422304E-17
5.570000E+03	8.782779E-15	8.525925E-17
5.580000E+03	8.744217E-15	8.606593E-17
5.590000E+03	8.706787E-15	8.667196E-17
5.600000E+03	8.670449E-15	8.710566E-17
5.610000E+03	8.635198E-15	8.739430E-17
5.620000E+03	8.601407E-15	8.756707E-17
5.630000E+03	8.569309E-15	8.764928E-17
5.640000E+03	8.539233E-15	8.766454E-17
5.650000E+03	8.511833E-15	8.763700E-17
5.660000E+03	8.487553E-15	8.758593E-17
5.670000E+03	8.466934E-15	8.752918E-17
5.680000E+03	8.450499E-15	8.748243E-17
5.690000E+03	8.438821E-15	8.746030E-17
5.700000E+03	8.432248E-15	8.747405E-17
5.710000E+03	8.431231E-15	8.753542E-17
5.720000E+03	8.435981E-15	8.765350E-17
5.730000E+03	8.446718E-15	8.783761E-17
5.740000E+03	8.463671E-15	8.809738E-17
5.750000E+03	8.486907E-15	8.844089E-17
5.760000E+03	8.516332E-15	8.887429E-17
5.770000E+03	8.551933E-15	8.940376E-17
5.780000E+03	8.593440E-15	9.003121E-17
5.790000E+03	8.640649E-15	9.075701E-17
5.800000E+03	8.693079E-15	9.157568E-17
5.810000E+03	8.750299E-15	9.247902E-17
5.820000E+03	8.811665E-15	9.345331E-17
5.830000E+03	8.876315E-15	9.447953E-17
5.840000E+03	8.943343E-15	9.553575E-17
5.850000E+03	9.011803E-15	9.659804E-17
5.860000E+03	9.080466E-15	9.763860E-17
5.870000E+03	9.148186E-15	9.863071E-17
5.880000E+03	9.213488E-15	9.954497E-17
5.890000E+03	9.275230E-15	1.003572E-16
5.900000E+03	9.332022E-15	1.010428E-16
5.910000E+03	9.382540E-15	1.015804E-16
5.920000E+03	9.425858E-15	1.019562E-16
5.930000E+03	9.460764E-15	1.021563E-16
5.940000E+03	9.486826E-15	1.021788E-16
5.950000E+03	9.503321E-15	1.020218E-16
5.960000E+03	9.510291E-15	1.016943E-16
5.970000E+03	9.507822E-15	1.012072E-16
5.980000E+03	9.496324E-15	1.005758E-16
5.990000E+03	9.476713E-15	9.981974E-17
6.000000E+03	9.450009E-15	9.895820E-17
6.010000E+03	9.417579E-15	9.801128E-17
6.020000E+03	9.380903E-15	9.699709E-17
6.030000E+03	9.341793E-15	9.593386E-17
6.040000E+03	9.301876E-15	9.483447E-17
6.050000E+03	9.263093E-15	9.371172E-17
6.060000E+03	9.227178E-15	9.257307E-17
6.070000E+03	9.195800E-15	9.142206E-17
6.080000E+03	9.170607E-15	9.025865E-17
6.090000E+03	9.153101E-15	8.907761E-17
6.100000E+03	9.144423E-15	8.786614E-17
6.110000E+03	9.145686E-15	8.660677E-17
6.120000E+03	9.157769E-15	8.527509E-17
6.130000E+03	9.181105E-15	8.383772E-17
6.140000E+03	9.216108E-15	8.225653E-17
6.150000E+03	9.262683E-15	8.048475E-17
6.160000E+03	9.320363E-15	7.846983E-17
6.170000E+03	9.388357E-15	7.615620E-17
6.180000E+03	9.465505E-15	7.348889E-17
6.190000E+03	9.550041E-15	7.041782E-17
6.200000E+03	9.639554E-15	6.690740E-17
6.210000E+03	9.731256E-15	6.295317E-17
6.220000E+03	9.821627E-15	5.860154E-17
6.230000E+03	9.906890E-15	5.398609E-17
6.240000E+03	9.982898E-15	4.937356E-17
6.250000E+03	1.004563E-14	4.522036E-17
6.260000E+03	1.009142E-14	4.219136E-17
6.270000E+03	1.011760E-14	4.102748E-17
6.280000E+03	1.012344E-14	4.213633E-17
6.290000E+03	1.011014E-14	4.520791E-17
6.300000E+03	1.008099E-14	4.953386E-17
6.310000E+03	1.004020E-14	5.444184E-17
6.320000E+03	9.992482E-15	5.945844E-17
6.330000E+03	9.942797E-15	6.430303E-17
6.340000E+03	9.895536E-15	6.883163E-17
6.350000E+03	9.854712E-15	7.299068E-17
6.360000E+03	9.823959E-15	7.678329E-17
6.370000E+03	9.806176E-15	8.024428E-17
6.380000E+03	9.803325E-15	8.342363E-17
6.390000E+03	9.817184E-15	8.638358E-17
6.400000E+03	9.848871E-15	8.918945E-17
6.410000E+03	9.898885E-15	9.190680E-17
6.420000E+03	9.967241E-15	9.460082E-17
6.430000E+03	1.005350E-14	9.733557E-17
6.440000E+03	1.015692E-14	1.001743E-16
6.450000E+03	1.027624E-14	1.031761E-16
6.460000E+03	1.040981E-14	1.063952E-16
6.470000E+03	1.055553E-14	1.098766E-16
6.480000E+03	1.071096E-14	1.136537E-16
6.490000E+03	1.087375E-14	1.177484E-16
6.500000E+03	1.104106E-14	1.221605E-16
6.510000E+03	1.121003E-14	1.268689E-16
6.520000E+03	1.137754E-14	1.318266E-16
6.530000E+03	1.154068E-14	1.369658E-16
6.540000E+03	1.169602E-14	1.421903E-16
6.550000E+03	1.184073E-14	1.473924E-16
6.560000E+03	1.197186E-14	1.524487E-16
6.570000E+03	1.208651E-14	1.572277E-16
6.580000E+03	1.218246E-14	1.616040E-16
6.590000E+03	1.225741E-14	1.654539E-16
6.600000E+03	1.230962E-14	1.686685E-16
6.610000E+03	1.233779E-14	1.711573E-16
6.620000E+03	1.234109E-14	1.728521E-16
6.630000E+03	1.231937E-14	1.737121E-16
6.640000E+03	1.227284E-14	1.737215E-16
6.650000E+03	1.220208E-14	1.728900E-16
6.660000E+03	1.210837E-14	1.712580E-16
6.670000E+03	1.199327E-14	1.688883E-16
6.680000E+03	1.185868E-14	1.658654E-16
6.690000E+03	1.170686E-14	1.622929E-16
6.700000E+03	1.154001E-14	1.582832E-16
6.710000E+03	1.136067E-14	1.539598E-16
6.720000E+03	1.117117E-14	1.494439E-16
6.730000E+03	1.097422E-14	1.448576E-16
6.740000E+03	1.077188E-14	1.403063E-16
6.750000E+03	1.056665E-14	1.358879E-16
6.760000E+03	1.036048E-14	1.316769E-16
6.770000E+03	1.015526E-14	1.277293E-16
6.780000E+03	9.952844E-15	1.240819E-16
6.790000E+03	9.754735E-15	1.207498E-16
6.800000E+03	9.562143E-15	1.177295E-16
6.810000E+03	9.376444E-15	1.150076E-16
6.820000E+03	9.198362E-15	1.125547E-16
6.830000E+03	9.028801E-15	1.103396E-16
6.840000E+03	8.868501E-15	1.083285E-16
6.850000E+03	8.717827E-15	1.064855E-16
6.860000E+03	8.577126E-15	1.047794E-16
6.870000E+03	8.446618E-15	1.031837E-16
6.880000E+03	8.326513E-15	1.016793E-16
6.890000E+03	8.216707E-15	1.002508E-16
6.900000E+03	8.117212E-15	9.889121E-17
6.910000E+03	8.027741E-15	9.759654E-17
6.920000E+03	7.948138E-15	9.636978E-17
6.930000E+03	7.877968E-15	9.521486E-17
6.940000E+03	7.816934E-15	9.414046E-17
6.950000E+03	7.764578E-15	9.315526E-17
6.960000E+03	7.720289E-15	9.226690E-17
6.970000E+03	7.683510E-15	9.148352E-17
6.980000E+03	7.653842E-15	9.081412E-17
6.990000E+03	7.630352E-15	9.025975E-17
7.000000E+03	7.612672E-15	8.982610E-17
7.010000E+03	7.599812E-15	8.950918E-17
7.020000E+03	7.591264E-15	8.930818E-17
7.030000E+03	7.586308E-15	8.921730E-17
7.040000E+03	7.584122E-15	8.922711E-17
7.050000E+03	7.583995E-15	8.932702E-17
7.060000E+03	7.585230E-15	8.950445E-17
7.070000E+03	7.587163E-15	8.974507E-17
7.080000E+03	7.589275E-15	9.003432E-17
7.090000E+03	7.590801E-15	9.035306E-17
7.100000E+03	7.591351E-15	9.068510E-17
7.110000E+03	7.590518E-15	9.101291E-17
7.120000E+03	7.587891E-15	9.131820E-17
7.130000E+03	7.583369E-15	9.158608E-17
7.140000E+03	7.576752E-15	9.180085E-17
7.150000E+03	7.568054E-15	9.195022E-17
7.160000E+03	7.557383E-15	9.202467E-17
7.170000E+03	7.544839E-15	9.201660E-17
7.180000E+03	7.530893E-15	9.192550E-17
7.190000E+03	7.515568E-15	9.174812E-17
7.200000E+03	7.499320E-15	9.148941E-17
7.210000E+03	7.482620E-15	9.115717E-17
7.220000E+03	7.465529E-15	9.075666E-17
7.230000E+03	7.448587E-15	9.030102E-17
7.240000E+03	7.431995E-15	8.980093E-17
7.250000E+03	7.415901E-15	8.926759E-17
7.260000E+03	7.400597E-15	8.871463E-17
7.270000E+03	7.386004E-15	8.815149E-17
7.280000E+03	7.372178E-15	8.758890E-17
7.290000E+03	7.359200E-15	8.703709E-17
7.300000E+03	7.346787E-15	8.650056E-17
7.310000E+03	7.334792E-15	8.598357E-17
7.320000E+03	7.322913E-15	8.548625E-17
7.330000E+03	7.311005E-15	8.500806E-17
7.340000E+03	7.298592E-15	8.454225E-17
7.350000E+03	7.285282E-15	8.408119E-17
7.360000E+03	7.270881E-15	8.361841E-17
7.370000E+03	7.255005E-15	8.314525E-17
7.380000E+03	7.237297E-15	8.265441E-17
7.390000E+03	7.217531E-15	8.214206E-17
7.400000E+03	7.195324E-15	8.160521E-17
7.410000E+03	7.170631E-15	8.104742E-17
7.420000E+03	7.143357E-15	8.047380E-17
7.430000E+03	7.113156E-15	7.988783E-17
7.440000E+03	7.080217E-15	7.929863E-17
7.450000E+03	7.044574E-15	7.871150E-17
7.460000E+03	7.006295E-15	7.812843E-17
7.470000E+03	6.965482E-15	7.754674E-17
7.480000E+03	6.922360E-15	7.695931E-17
7.490000E+03	6.877078E-15	7.635211E-17
7.500000E+03	6.829903E-15	7.570672E-17
7.510000E+03	6.781111E-15	7.499994E-17
7.520000E+03	6.730994E-15	7.420487E-17
7.530000E+03	6.679573E-15	7.328890E-17
7.540000E+03	6.627447E-15	7.222433E-17
7.550000E+03	6.574574E-15	7.097623E-17
7.560000E+03	6.521485E-15	6.951711E-17
7.570000E+03	6.468451E-15	6.781922E-17
7.580000E+03	6.415670E-15	6.585820E-17
7.590000E+03	6.363637E-15	6.361849E-17
7.600000E+03	6.312596E-15	6.108939E-17
7.610000E+03	6.263086E-15	5.827243E-17
7.620000E+03	6.215405E-15	5.517840E-17
7.630000E+03	6.169966E-15	5.183405E-17
7.640000E+03	6.127302E-15	4.828634E-17
7.650000E+03	6.087888E-15	4.460769E-17
7.660000E+03	6.052227E-15	4.090690E-17
7.670000E+03	6.020856E-15	3.734329E-17
7.680000E+03	5.994346E-15	3.414247E-17
7.690000E+03	5.973369E-15	3.160264E-17
7.700000E+03	5.958496E-15	3.006005E-17
7.710000E+03	5.950078E-15	2.977746E-17
7.720000E+03	5.948076E-15	3.076735E-17
7.730000E+03	5.952026E-15	3.277681E-17
7.740000E+03	5.961150E-15	3.546450E-17
7.750000E+03	5.974837E-15	3.852819E-17
7.760000E+03	5.992341E-15	4.174401E-17
