#wls	flux	fluxerr
1.600000E+03	6.451421E-15	7.441607E-16
1.640000E+03	6.566547E-15	6.889015E-16
1.680000E+03	6.683210E-15	6.321837E-16
1.720000E+03	6.802757E-15	5.743932E-16
1.760000E+03	6.925256E-15	5.158329E-16
1.800000E+03	7.051813E-15	4.569582E-16
1.840000E+03	7.181866E-15	3.982149E-16
1.880000E+03	7.315375E-15	3.402831E-16
1.920000E+03	7.449771E-15	2.840567E-16
1.960000E+03	7.581954E-15	2.310375E-16
2.000000E+03	7.705161E-15	1.836968E-16
2.040000E+03	7.813217E-15	1.462059E-16
2.080000E+03	7.895764E-15	1.236970E-16
2.120000E+03	7.953027E-15	1.170766E-16
2.160000E+03	7.989315E-15	1.186342E-16
2.200000E+03	8.017916E-15	1.217473E-16
2.240000E+03	8.047876E-15	1.263383E-16
2.280000E+03	8.088461E-15	1.356514E-16
2.320000E+03	8.147858E-15	1.495096E-16
2.360000E+03	8.233167E-15	1.638522E-16
2.400000E+03	8.349235E-15	1.744093E-16
2.440000E+03	8.494206E-15	1.779807E-16
2.480000E+03	8.665738E-15	1.728329E-16
2.520000E+03	8.848872E-15	1.590171E-16
2.560000E+03	9.022364E-15	1.403771E-16
2.600000E+03	9.158460E-15	1.281122E-16
2.640000E+03	9.227881E-15	1.382800E-16
2.680000E+03	9.233269E-15	1.717816E-16
2.720000E+03	9.196862E-15	2.159890E-16
2.760000E+03	9.140497E-15	2.615737E-16
2.800000E+03	9.081217E-15	3.039753E-16
2.840000E+03	9.029764E-15	3.410402E-16
2.880000E+03	8.990162E-15	3.716141E-16
2.920000E+03	8.966038E-15	3.951407E-16
2.960000E+03	8.959722E-15	4.113578E-16
3.000000E+03	8.975252E-15	4.202935E-16
3.010000E+03	8.982959E-15	4.214039E-16
3.020000E+03	8.991783E-15	4.220463E-16
3.030000E+03	9.002761E-15	4.222698E-16
3.040000E+03	9.014960E-15	4.220320E-16
3.050000E+03	9.030387E-15	4.214277E-16
3.060000E+03	9.046182E-15	4.203249E-16
3.070000E+03	9.065319E-15	4.188634E-16
3.080000E+03	9.085935E-15	4.169581E-16
3.090000E+03	9.109068E-15	4.146585E-16
3.100000E+03	9.134796E-15	4.119692E-16
3.110000E+03	9.163203E-15	4.088954E-16
3.120000E+03	9.194379E-15	4.054418E-16
3.130000E+03	9.228421E-15	4.016139E-16
3.140000E+03	9.264491E-15	3.973763E-16
3.150000E+03	9.305514E-15	3.928555E-16
3.160000E+03	9.348783E-15	3.879357E-16
3.170000E+03	9.396285E-15	3.827006E-16
3.180000E+03	9.447203E-15	3.771156E-16
3.190000E+03	9.501653E-15	3.711857E-16
3.200000E+03	9.561616E-15	3.649869E-16
3.210000E+03	9.625341E-15	3.584491E-16
3.220000E+03	9.693869E-15	3.516103E-16
3.230000E+03	9.766370E-15	3.444389E-16
3.240000E+03	9.844788E-15	3.370024E-16
3.250000E+03	9.928263E-15	3.292675E-16
3.260000E+03	1.001777E-14	3.212643E-16
3.270000E+03	1.011239E-14	3.129609E-16
3.280000E+03	1.021209E-14	3.043572E-16
3.290000E+03	1.031867E-14	2.955070E-16
3.300000E+03	1.043010E-14	2.863533E-16
3.310000E+03	1.054803E-14	2.769475E-16
3.320000E+03	1.067028E-14	2.672397E-16
3.330000E+03	1.079922E-14	2.573043E-16
3.340000E+03	1.093241E-14	2.471001E-16
3.350000E+03	1.107004E-14	2.366619E-16
3.360000E+03	1.121121E-14	2.260099E-16
3.370000E+03	1.135571E-14	2.151948E-16
3.380000E+03	1.150217E-14	2.042627E-16
3.390000E+03	1.164797E-14	1.932664E-16
3.400000E+03	1.179304E-14	1.823359E-16
3.410000E+03	1.193414E-14	1.715884E-16
3.420000E+03	1.206864E-14	1.612026E-16
3.430000E+03	1.219546E-14	1.514315E-16
3.440000E+03	1.231129E-14	1.425510E-16
3.450000E+03	1.241160E-14	1.348685E-16
3.460000E+03	1.249259E-14	1.287152E-16
3.470000E+03	1.255321E-14	1.244037E-16
3.480000E+03	1.258672E-14	1.220612E-16
3.490000E+03	1.259214E-14	1.216662E-16
3.500000E+03	1.256633E-14	1.229560E-16
3.510000E+03	1.250967E-14	1.255302E-16
3.520000E+03	1.242508E-14	1.289450E-16
3.530000E+03	1.231554E-14	1.327752E-16
3.540000E+03	1.218453E-14	1.366675E-16
3.550000E+03	1.203663E-14	1.403652E-16
3.560000E+03	1.187479E-14	1.436769E-16
3.570000E+03	1.170342E-14	1.465019E-16
3.580000E+03	1.152590E-14	1.487871E-16
3.590000E+03	1.134600E-14	1.505314E-16
3.600000E+03	1.116503E-14	1.517365E-16
3.610000E+03	1.098609E-14	1.524524E-16
3.620000E+03	1.081181E-14	1.527411E-16
3.630000E+03	1.064321E-14	1.526531E-16
3.640000E+03	1.048167E-14	1.522499E-16
3.650000E+03	1.032881E-14	1.516000E-16
3.660000E+03	1.018488E-14	1.507512E-16
3.670000E+03	1.005046E-14	1.497553E-16
3.680000E+03	9.925961E-15	1.486579E-16
3.690000E+03	9.812123E-15	1.475059E-16
3.700000E+03	9.708516E-15	1.463246E-16
3.710000E+03	9.615128E-15	1.451413E-16
3.720000E+03	9.531850E-15	1.439776E-16
3.730000E+03	9.458941E-15	1.428570E-16
3.740000E+03	9.394838E-15	1.417720E-16
3.750000E+03	9.340581E-15	1.407516E-16
3.760000E+03	9.295005E-15	1.397892E-16
3.770000E+03	9.258200E-15	1.388953E-16
3.780000E+03	9.229424E-15	1.380662E-16
3.790000E+03	9.208721E-15	1.373092E-16
3.800000E+03	9.194980E-15	1.366133E-16
3.810000E+03	9.188608E-15	1.359891E-16
3.820000E+03	9.188168E-15	1.354193E-16
3.830000E+03	9.194407E-15	1.349176E-16
3.840000E+03	9.206280E-15	1.344704E-16
3.850000E+03	9.223132E-15	1.340687E-16
3.860000E+03	9.245329E-15	1.337175E-16
3.870000E+03	9.271894E-15	1.334012E-16
3.880000E+03	9.302537E-15	1.331138E-16
3.890000E+03	9.337290E-15	1.328534E-16
3.900000E+03	9.375550E-15	1.326094E-16
3.910000E+03	9.416436E-15	1.323677E-16
3.920000E+03	9.460616E-15	1.321369E-16
3.930000E+03	9.506935E-15	1.319010E-16
3.940000E+03	9.555475E-15	1.316626E-16
3.950000E+03	9.605734E-15	1.314171E-16
3.960000E+03	9.657818E-15	1.311692E-16
3.970000E+03	9.710991E-15	1.309129E-16
3.980000E+03	9.765404E-15	1.306544E-16
3.990000E+03	9.820674E-15	1.303928E-16
4.000000E+03	9.876728E-15	1.301309E-16
4.010000E+03	9.933257E-15	1.298676E-16
4.020000E+03	9.990526E-15	1.296080E-16
4.030000E+03	1.004803E-14	1.293456E-16
4.040000E+03	1.010610E-14	1.290825E-16
4.050000E+03	1.016457E-14	1.288116E-16
4.060000E+03	1.022357E-14	1.285266E-16
4.070000E+03	1.028323E-14	1.282176E-16
4.080000E+03	1.034349E-14	1.278682E-16
4.090000E+03	1.040479E-14	1.274640E-16
4.100000E+03	1.046661E-14	1.269747E-16
4.110000E+03	1.052992E-14	1.263841E-16
4.120000E+03	1.059426E-14	1.256547E-16
4.130000E+03	1.066040E-14	1.247608E-16
4.140000E+03	1.072814E-14	1.236626E-16
4.150000E+03	1.079800E-14	1.223275E-16
4.160000E+03	1.087003E-14	1.207164E-16
4.170000E+03	1.094423E-14	1.187904E-16
4.180000E+03	1.102121E-14	1.165194E-16
4.190000E+03	1.110080E-14	1.138677E-16
4.200000E+03	1.118264E-14	1.108047E-16
4.210000E+03	1.126663E-14	1.073115E-16
4.220000E+03	1.135196E-14	1.033775E-16
4.230000E+03	1.143771E-14	9.901448E-17
4.240000E+03	1.152282E-14	9.426670E-17
4.250000E+03	1.160516E-14	8.921938E-17
4.260000E+03	1.168308E-14	8.403162E-17
4.270000E+03	1.175408E-14	7.894913E-17
4.280000E+03	1.181494E-14	7.432557E-17
4.290000E+03	1.186311E-14	7.062879E-17
4.300000E+03	1.189573E-14	6.837242E-17
4.310000E+03	1.191022E-14	6.796651E-17
4.320000E+03	1.190558E-14	6.948900E-17
4.330000E+03	1.188264E-14	7.262927E-17
4.340000E+03	1.184286E-14	7.689500E-17
4.350000E+03	1.178793E-14	8.179077E-17
4.360000E+03	1.172029E-14	8.691155E-17
4.370000E+03	1.164163E-14	9.195047E-17
4.380000E+03	1.155415E-14	9.669433E-17
4.390000E+03	1.145959E-14	1.010007E-16
4.400000E+03	1.136012E-14	1.047905E-16
4.410000E+03	1.125710E-14	1.080229E-16
4.420000E+03	1.115211E-14	1.106943E-16
4.430000E+03	1.104662E-14	1.128261E-16
4.440000E+03	1.094198E-14	1.144578E-16
4.450000E+03	1.083936E-14	1.156408E-16
4.460000E+03	1.073962E-14	1.164315E-16
4.470000E+03	1.064379E-14	1.168927E-16
4.480000E+03	1.055240E-14	1.170829E-16
4.490000E+03	1.046612E-14	1.170609E-16
4.500000E+03	1.038534E-14	1.168790E-16
4.510000E+03	1.030995E-14	1.165797E-16
4.520000E+03	1.024037E-14	1.162061E-16
4.530000E+03	1.017645E-14	1.157897E-16
4.540000E+03	1.011811E-14	1.153576E-16
4.550000E+03	1.006520E-14	1.149315E-16
4.560000E+03	1.001758E-14	1.145285E-16
4.570000E+03	9.974913E-15	1.141601E-16
4.580000E+03	9.937051E-15	1.138362E-16
4.590000E+03	9.903849E-15	1.135643E-16
4.600000E+03	9.875063E-15	1.133487E-16
4.610000E+03	9.850759E-15	1.131955E-16
4.620000E+03	9.830780E-15	1.131076E-16
4.630000E+03	9.815144E-15	1.130891E-16
4.640000E+03	9.803782E-15	1.131436E-16
4.650000E+03	9.796922E-15	1.132784E-16
4.660000E+03	9.794433E-15	1.134978E-16
4.670000E+03	9.796716E-15	1.138135E-16
4.680000E+03	9.803675E-15	1.142327E-16
4.690000E+03	9.815593E-15	1.147686E-16
4.700000E+03	9.832485E-15	1.154321E-16
4.710000E+03	9.854469E-15	1.162368E-16
4.720000E+03	9.881623E-15	1.171956E-16
4.730000E+03	9.914091E-15	1.183224E-16
4.740000E+03	9.951584E-15	1.196247E-16
4.750000E+03	9.994099E-15	1.211115E-16
4.760000E+03	1.004130E-14	1.227844E-16
4.770000E+03	1.009287E-14	1.246412E-16
4.780000E+03	1.014837E-14	1.266728E-16
4.790000E+03	1.020729E-14	1.288625E-16
4.800000E+03	1.026884E-14	1.311839E-16
4.810000E+03	1.033241E-14	1.336047E-16
4.820000E+03	1.039701E-14	1.360817E-16
4.830000E+03	1.046186E-14	1.385674E-16
4.840000E+03	1.052597E-14	1.410071E-16
4.850000E+03	1.058833E-14	1.433426E-16
4.860000E+03	1.064801E-14	1.455160E-16
4.870000E+03	1.070377E-14	1.474659E-16
4.880000E+03	1.075488E-14	1.491417E-16
4.890000E+03	1.080045E-14	1.504961E-16
4.900000E+03	1.083957E-14	1.514887E-16
4.910000E+03	1.087170E-14	1.520931E-16
4.920000E+03	1.089632E-14	1.522927E-16
4.930000E+03	1.091319E-14	1.520854E-16
4.940000E+03	1.092200E-14	1.514777E-16
4.950000E+03	1.092274E-14	1.504898E-16
4.960000E+03	1.091567E-14	1.491543E-16
4.970000E+03	1.090108E-14	1.475115E-16
4.980000E+03	1.087928E-14	1.456072E-16
4.990000E+03	1.085105E-14	1.434974E-16
5.000000E+03	1.081689E-14	1.412356E-16
5.010000E+03	1.077747E-14	1.388772E-16
5.020000E+03	1.073362E-14	1.364769E-16
5.030000E+03	1.068607E-14	1.340829E-16
5.040000E+03	1.063541E-14	1.317361E-16
5.050000E+03	1.058248E-14	1.294723E-16
5.060000E+03	1.052795E-14	1.273177E-16
5.070000E+03	1.047259E-14	1.252914E-16
5.080000E+03	1.041690E-14	1.234019E-16
5.090000E+03	1.036148E-14	1.216524E-16
5.100000E+03	1.030698E-14	1.200418E-16
5.110000E+03	1.025380E-14	1.185622E-16
5.120000E+03	1.020262E-14	1.172062E-16
5.130000E+03	1.015363E-14	1.159593E-16
5.140000E+03	1.010727E-14	1.148093E-16
5.150000E+03	1.006382E-14	1.137416E-16
5.160000E+03	1.002357E-14	1.127413E-16
5.170000E+03	9.986521E-15	1.117904E-16
5.180000E+03	9.952710E-15	1.108705E-16
5.190000E+03	9.922084E-15	1.099617E-16
5.200000E+03	9.894728E-15	1.090449E-16
5.210000E+03	9.870140E-15	1.080936E-16
5.220000E+03	9.848287E-15	1.070852E-16
5.230000E+03	9.828881E-15	1.059929E-16
5.240000E+03	9.811597E-15	1.047883E-16
5.250000E+03	9.796086E-15	1.034412E-16
5.260000E+03	9.781875E-15	1.019187E-16
5.270000E+03	9.768677E-15	1.001888E-16
5.280000E+03	9.756085E-15	9.821747E-17
5.290000E+03	9.743580E-15	9.597015E-17
5.300000E+03	9.730925E-15	9.341703E-17
5.310000E+03	9.717569E-15	9.052945E-17
5.320000E+03	9.702948E-15	8.728631E-17
5.330000E+03	9.686785E-15	8.368121E-17
5.340000E+03	9.668406E-15	7.972245E-17
5.350000E+03	9.647434E-15	7.544762E-17
5.360000E+03	9.623516E-15	7.093211E-17
5.370000E+03	9.596034E-15	6.630175E-17
5.380000E+03	9.564727E-15	6.175483E-17
5.390000E+03	9.529410E-15	5.757572E-17
5.400000E+03	9.489726E-15	5.413488E-17
5.410000E+03	9.445756E-15	5.185255E-17
5.420000E+03	9.397690E-15	5.108285E-17
5.430000E+03	9.346116E-15	5.192495E-17
5.440000E+03	9.291651E-15	5.413575E-17
5.450000E+03	9.235353E-15	5.730570E-17
5.460000E+03	9.177967E-15	6.102136E-17
5.470000E+03	9.120368E-15	6.494916E-17
5.480000E+03	9.063146E-15	6.884939E-17
5.490000E+03	9.006868E-15	7.256506E-17
5.500000E+03	8.952058E-15	7.600198E-17
5.510000E+03	8.899017E-15	7.910920E-17
5.520000E+03	8.847923E-15	8.186567E-17
5.530000E+03	8.798758E-15	8.426932E-17
5.540000E+03	8.751596E-15	8.633258E-17
5.550000E+03	8.706276E-15	8.807426E-17
5.560000E+03	8.662955E-15	8.952165E-17
5.570000E+03	8.621271E-15	9.069957E-17
5.580000E+03	8.581319E-15	9.163880E-17
5.590000E+03	8.542900E-15	9.236705E-17
5.600000E+03	8.506307E-15	9.291657E-17
5.610000E+03	8.471403E-15	9.331347E-17
5.620000E+03	8.438549E-15	9.358747E-17
5.630000E+03	8.408015E-15	9.376504E-17
5.640000E+03	8.379972E-15	9.386908E-17
5.650000E+03	8.354971E-15	9.392427E-17
5.660000E+03	8.333428E-15	9.395137E-17
5.670000E+03	8.315691E-15	9.396811E-17
5.680000E+03	8.302183E-15	9.399111E-17
5.690000E+03	8.293382E-15	9.403600E-17
5.700000E+03	8.289646E-15	9.411572E-17
5.710000E+03	8.291201E-15	9.424077E-17
5.720000E+03	8.298292E-15	9.442119E-17
5.730000E+03	8.311179E-15	9.466669E-17
5.740000E+03	8.329966E-15	9.498479E-17
5.750000E+03	8.354597E-15	9.538074E-17
5.760000E+03	8.385098E-15	9.586005E-17
5.770000E+03	8.421322E-15	9.642534E-17
5.780000E+03	8.462945E-15	9.707587E-17
5.790000E+03	8.509626E-15	9.780905E-17
5.800000E+03	8.561000E-15	9.861999E-17
5.810000E+03	8.616424E-15	9.949850E-17
5.820000E+03	8.675311E-15	1.004328E-16
5.830000E+03	8.736880E-15	1.014068E-16
5.840000E+03	8.800155E-15	1.024004E-16
5.850000E+03	8.864151E-15	1.033924E-16
5.860000E+03	8.927801E-15	1.043595E-16
5.870000E+03	8.989981E-15	1.052780E-16
5.880000E+03	9.049623E-15	1.061252E-16
5.890000E+03	9.105491E-15	1.068773E-16
5.900000E+03	9.156388E-15	1.075128E-16
5.910000E+03	9.201469E-15	1.080160E-16
5.920000E+03	9.239661E-15	1.083708E-16
5.930000E+03	9.270331E-15	1.085687E-16
5.940000E+03	9.292965E-15	1.086049E-16
5.950000E+03	9.307108E-15	1.084773E-16
5.960000E+03	9.312934E-15	1.081929E-16
5.970000E+03	9.310715E-15	1.077608E-16
5.980000E+03	9.300819E-15	1.071915E-16
5.990000E+03	9.284066E-15	1.065003E-16
6.000000E+03	9.261706E-15	1.057062E-16
6.010000E+03	9.234748E-15	1.048232E-16
6.020000E+03	9.204740E-15	1.038692E-16
6.030000E+03	9.173266E-15	1.028598E-16
6.040000E+03	9.141904E-15	1.018071E-16
6.050000E+03	9.112349E-15	1.007216E-16
6.060000E+03	9.086284E-15	9.961015E-17
6.070000E+03	9.065153E-15	9.847326E-17
6.080000E+03	9.050567E-15	9.730965E-17
6.090000E+03	9.043733E-15	9.610961E-17
6.100000E+03	9.045948E-15	9.486015E-17
6.110000E+03	9.057955E-15	9.353793E-17
6.120000E+03	9.080519E-15	9.211545E-17
6.130000E+03	9.114135E-15	9.055802E-17
6.140000E+03	9.158723E-15	8.882137E-17
6.150000E+03	9.214033E-15	8.685697E-17
6.160000E+03	9.279517E-15	8.461253E-17
6.170000E+03	9.353928E-15	8.203150E-17
6.180000E+03	9.435734E-15	7.906171E-17
6.190000E+03	9.523005E-15	7.566127E-17
6.200000E+03	9.613318E-15	7.180806E-17
6.210000E+03	9.703783E-15	6.751500E-17
6.220000E+03	9.791496E-15	6.285493E-17
6.230000E+03	9.872815E-15	5.798667E-17
6.240000E+03	9.944318E-15	5.320280E-17
6.250000E+03	1.000280E-14	4.897103E-17
6.260000E+03	1.004540E-14	4.593471E-17
6.270000E+03	1.007035E-14	4.477635E-17
6.280000E+03	1.007729E-14	4.585978E-17
6.290000E+03	1.006727E-14	4.891380E-17
6.300000E+03	1.004271E-14	5.329193E-17
6.310000E+03	1.000721E-14	5.835048E-17
6.320000E+03	9.964753E-15	6.360984E-17
6.330000E+03	9.919600E-15	6.876705E-17
6.340000E+03	9.875727E-15	7.365359E-17
6.350000E+03	9.837106E-15	7.819622E-17
6.360000E+03	9.807055E-15	8.238070E-17
6.370000E+03	9.788469E-15	8.623115E-17
6.380000E+03	9.783481E-15	8.979211E-17
6.390000E+03	9.793968E-15	9.312290E-17
6.400000E+03	9.820963E-15	9.628576E-17
6.410000E+03	9.865292E-15	9.934750E-17
6.420000E+03	9.926991E-15	1.023711E-16
6.430000E+03	1.000585E-14	1.054190E-16
6.440000E+03	1.010112E-14	1.085490E-16
6.450000E+03	1.021190E-14	1.118157E-16
6.460000E+03	1.033646E-14	1.152626E-16
6.470000E+03	1.047316E-14	1.189287E-16
6.480000E+03	1.061986E-14	1.228393E-16
6.490000E+03	1.077413E-14	1.270056E-16
6.500000E+03	1.093331E-14	1.314223E-16
6.510000E+03	1.109479E-14	1.360683E-16
6.520000E+03	1.125536E-14	1.408974E-16
6.530000E+03	1.141212E-14	1.458483E-16
6.540000E+03	1.156201E-14	1.508404E-16
6.550000E+03	1.170204E-14	1.557785E-16
6.560000E+03	1.182934E-14	1.605564E-16
6.570000E+03	1.194137E-14	1.650644E-16
6.580000E+03	1.203547E-14	1.691867E-16
6.590000E+03	1.210965E-14	1.728184E-16
6.600000E+03	1.216237E-14	1.758652E-16
6.610000E+03	1.219218E-14	1.782445E-16
6.620000E+03	1.219826E-14	1.798943E-16
6.630000E+03	1.218040E-14	1.807770E-16
6.640000E+03	1.213873E-14	1.808766E-16
6.650000E+03	1.207368E-14	1.801992E-16
6.660000E+03	1.198654E-14	1.787809E-16
6.670000E+03	1.187841E-14	1.766709E-16
6.680000E+03	1.175127E-14	1.739462E-16
6.690000E+03	1.160695E-14	1.706926E-16
6.700000E+03	1.144772E-14	1.670110E-16
6.710000E+03	1.127572E-14	1.630051E-16
6.720000E+03	1.109353E-14	1.587853E-16
6.730000E+03	1.090321E-14	1.544515E-16
6.740000E+03	1.070728E-14	1.501033E-16
6.750000E+03	1.050778E-14	1.458233E-16
6.760000E+03	1.030688E-14	1.416835E-16
6.770000E+03	1.010633E-14	1.377366E-16
6.780000E+03	9.907979E-15	1.340222E-16
6.790000E+03	9.713242E-15	1.305608E-16
6.800000E+03	9.523707E-15	1.273633E-16
6.810000E+03	9.340426E-15	1.244237E-16
6.820000E+03	9.164394E-15	1.217286E-16
6.830000E+03	8.996437E-15	1.192582E-16
6.840000E+03	8.837328E-15	1.169907E-16
6.850000E+03	8.687474E-15	1.149006E-16
6.860000E+03	8.547254E-15	1.129648E-16
6.870000E+03	8.417127E-15	1.111656E-16
6.880000E+03	8.296916E-15	1.094822E-16
6.890000E+03	8.186955E-15	1.079060E-16
6.900000E+03	8.086970E-15	1.064258E-16
6.910000E+03	7.996906E-15	1.050384E-16
6.920000E+03	7.916522E-15	1.037426E-16
6.930000E+03	7.845507E-15	1.025397E-16
6.940000E+03	7.783482E-15	1.014333E-16
6.950000E+03	7.729915E-15	1.004265E-16
6.960000E+03	7.684507E-15	9.952668E-17
6.970000E+03	7.646528E-15	9.873586E-17
6.980000E+03	7.615495E-15	9.805886E-17
6.990000E+03	7.590794E-15	9.749780E-17
7.000000E+03	7.571778E-15	9.705308E-17
7.010000E+03	7.557686E-15	9.672183E-17
7.020000E+03	7.547929E-15	9.650155E-17
7.030000E+03	7.541815E-15	9.638635E-17
7.040000E+03	7.538561E-15	9.636704E-17
7.050000E+03	7.537580E-15	9.643493E-17
7.060000E+03	7.538218E-15	9.657835E-17
7.070000E+03	7.539655E-15	9.678168E-17
7.080000E+03	7.541504E-15	9.703296E-17
7.090000E+03	7.543143E-15	9.731568E-17
7.100000E+03	7.544115E-15	9.761403E-17
7.110000E+03	7.544041E-15	9.791218E-17
7.120000E+03	7.542528E-15	9.819342E-17
7.130000E+03	7.539470E-15	9.844444E-17
7.140000E+03	7.534753E-15	9.865214E-17
7.150000E+03	7.528261E-15	9.880397E-17
7.160000E+03	7.519957E-15	9.888970E-17
7.170000E+03	7.510077E-15	9.890425E-17
7.180000E+03	7.498821E-15	9.884408E-17
7.190000E+03	7.486339E-15	9.870724E-17
7.200000E+03	7.472911E-15	9.849580E-17
7.210000E+03	7.458832E-15	9.821435E-17
7.220000E+03	7.444299E-15	9.786835E-17
7.230000E+03	7.429688E-15	9.746750E-17
7.240000E+03	7.415058E-15	9.701890E-17
7.250000E+03	7.400619E-15	9.653285E-17
7.260000E+03	7.386536E-15	9.601977E-17
7.270000E+03	7.372918E-15	9.548965E-17
7.280000E+03	7.359627E-15	9.494910E-17
7.290000E+03	7.346846E-15	9.440828E-17
7.300000E+03	7.334227E-15	9.386948E-17
7.310000E+03	7.321750E-15	9.333784E-17
7.320000E+03	7.309159E-15	9.281391E-17
7.330000E+03	7.296160E-15	9.229616E-17
7.340000E+03	7.282527E-15	9.178245E-17
7.350000E+03	7.267924E-15	9.126806E-17
7.360000E+03	7.252101E-15	9.074877E-17
7.370000E+03	7.234722E-15	9.021916E-17
7.380000E+03	7.215466E-15	8.967452E-17
7.390000E+03	7.194037E-15	8.911138E-17
7.400000E+03	7.170262E-15	8.852897E-17
7.410000E+03	7.144007E-15	8.792801E-17
7.420000E+03	7.114985E-15	8.730799E-17
7.430000E+03	7.083139E-15	8.667111E-17
7.440000E+03	7.048453E-15	8.601891E-17
7.450000E+03	7.010947E-15	8.535121E-17
7.460000E+03	6.970768E-15	8.466619E-17
7.470000E+03	6.928006E-15	8.395722E-17
7.480000E+03	6.882777E-15	8.321354E-17
7.490000E+03	6.835407E-15	8.242221E-17
7.500000E+03	6.786061E-15	8.156393E-17
7.510000E+03	6.734924E-15	8.061589E-17
7.520000E+03	6.682382E-15	7.955465E-17
7.530000E+03	6.628652E-15	7.835290E-17
7.540000E+03	6.573974E-15	7.698282E-17
7.550000E+03	6.518691E-15	7.541827E-17
7.560000E+03	6.463075E-15	7.363407E-17
7.570000E+03	6.407589E-15	7.161025E-17
7.580000E+03	6.352371E-15	6.932756E-17
7.590000E+03	6.298008E-15	6.677758E-17
7.600000E+03	6.244767E-15	6.395564E-17
7.610000E+03	6.193023E-15	6.086747E-17
7.620000E+03	6.143263E-15	5.753131E-17
7.630000E+03	6.095832E-15	5.397856E-17
7.640000E+03	6.051439E-15	5.026299E-17
7.650000E+03	6.010324E-15	4.645997E-17
7.660000E+03	5.973175E-15	4.268410E-17
7.670000E+03	5.940626E-15	3.909742E-17
7.680000E+03	5.913008E-15	3.592076E-17
7.690000E+03	5.891150E-15	3.344006E-17
7.700000E+03	5.875595E-15	3.196508E-17
7.710000E+03	5.866573E-15	3.172872E-17
7.720000E+03	5.864121E-15	3.273947E-17
7.730000E+03	5.867808E-15	3.476892E-17
7.740000E+03	5.876880E-15	3.750140E-17
7.750000E+03	5.890632E-15	4.064693E-17
7.760000E+03	5.908377E-15	4.398304E-17
