#wls	flux	fluxerr
1.600000E+03	6.019680E-15	7.082661E-16
1.640000E+03	6.134653E-15	6.589400E-16
1.680000E+03	6.254467E-15	6.085189E-16
1.720000E+03	6.376715E-15	5.569553E-16
1.760000E+03	6.502305E-15	5.046261E-16
1.800000E+03	6.630588E-15	4.518629E-16
1.840000E+03	6.761639E-15	3.992006E-16
1.880000E+03	6.893514E-15	3.472708E-16
1.920000E+03	7.023249E-15	2.970359E-16
1.960000E+03	7.148119E-15	2.500372E-16
2.000000E+03	7.263184E-15	2.085358E-16
2.040000E+03	7.363400E-15	1.757130E-16
2.080000E+03	7.446591E-15	1.549071E-16
2.120000E+03	7.512364E-15	1.466798E-16
2.160000E+03	7.565374E-15	1.469085E-16
2.200000E+03	7.610956E-15	1.510712E-16
2.240000E+03	7.659381E-15	1.576263E-16
2.280000E+03	7.719818E-15	1.668727E-16
2.320000E+03	7.798496E-15	1.779700E-16
2.360000E+03	7.898524E-15	1.884518E-16
2.400000E+03	8.019499E-15	1.956028E-16
2.440000E+03	8.160811E-15	1.973702E-16
2.480000E+03	8.317766E-15	1.928105E-16
2.520000E+03	8.476671E-15	1.827018E-16
2.560000E+03	8.622334E-15	1.709632E-16
2.600000E+03	8.740857E-15	1.656981E-16
2.640000E+03	8.817061E-15	1.759183E-16
2.680000E+03	8.851277E-15	2.026613E-16
2.720000E+03	8.853183E-15	2.392245E-16
2.760000E+03	8.836917E-15	2.788332E-16
2.800000E+03	8.816257E-15	3.171424E-16
2.840000E+03	8.802501E-15	3.517281E-16
2.880000E+03	8.805439E-15	3.813492E-16
2.920000E+03	8.831360E-15	4.053350E-16
2.960000E+03	8.888834E-15	4.235179E-16
3.000000E+03	8.982100E-15	4.357430E-16
3.010000E+03	9.012325E-15	4.378987E-16
3.020000E+03	9.044382E-15	4.396409E-16
3.030000E+03	9.080716E-15	4.410841E-16
3.040000E+03	9.119032E-15	4.421125E-16
3.050000E+03	9.160591E-15	4.427831E-16
3.060000E+03	9.206652E-15	4.431516E-16
3.070000E+03	9.254940E-15	4.431034E-16
3.080000E+03	9.307895E-15	4.427501E-16
3.090000E+03	9.363255E-15	4.419781E-16
3.100000E+03	9.423457E-15	4.408970E-16
3.110000E+03	9.488594E-15	4.395031E-16
3.120000E+03	9.556411E-15	4.376847E-16
3.130000E+03	9.629348E-15	4.355471E-16
3.140000E+03	9.707496E-15	4.330849E-16
3.150000E+03	9.789771E-15	4.302405E-16
3.160000E+03	9.876256E-15	4.270095E-16
3.170000E+03	9.969386E-15	4.234871E-16
3.180000E+03	1.006687E-14	4.195644E-16
3.190000E+03	1.016996E-14	4.152833E-16
3.200000E+03	1.027749E-14	4.105867E-16
3.210000E+03	1.039187E-14	4.055603E-16
3.220000E+03	1.051191E-14	4.001443E-16
3.230000E+03	1.063758E-14	3.943272E-16
3.240000E+03	1.077000E-14	3.881400E-16
3.250000E+03	1.090786E-14	3.815245E-16
3.260000E+03	1.105098E-14	3.744681E-16
3.270000E+03	1.120035E-14	3.669982E-16
3.280000E+03	1.135443E-14	3.590610E-16
3.290000E+03	1.151527E-14	3.507211E-16
3.300000E+03	1.167994E-14	3.418906E-16
3.310000E+03	1.184903E-14	3.325995E-16
3.320000E+03	1.202306E-14	3.228770E-16
3.330000E+03	1.219866E-14	3.126570E-16
3.340000E+03	1.237851E-14	3.020455E-16
3.350000E+03	1.255764E-14	2.909677E-16
3.360000E+03	1.273841E-14	2.795455E-16
3.370000E+03	1.291671E-14	2.677703E-16
3.380000E+03	1.309196E-14	2.557413E-16
3.390000E+03	1.326217E-14	2.435555E-16
3.400000E+03	1.342638E-14	2.313647E-16
3.410000E+03	1.358093E-14	2.193124E-16
3.420000E+03	1.372327E-14	2.076105E-16
3.430000E+03	1.385199E-14	1.965337E-16
3.440000E+03	1.396434E-14	1.863778E-16
3.450000E+03	1.405759E-14	1.774675E-16
3.460000E+03	1.412904E-14	1.701284E-16
3.470000E+03	1.417735E-14	1.646553E-16
3.480000E+03	1.419884E-14	1.612075E-16
3.490000E+03	1.419230E-14	1.598062E-16
3.500000E+03	1.415501E-14	1.602600E-16
3.510000E+03	1.408925E-14	1.622574E-16
3.520000E+03	1.399374E-14	1.653482E-16
3.530000E+03	1.387254E-14	1.691217E-16
3.540000E+03	1.372794E-14	1.731799E-16
3.550000E+03	1.356159E-14	1.771781E-16
3.560000E+03	1.337754E-14	1.808747E-16
3.570000E+03	1.317785E-14	1.840748E-16
3.580000E+03	1.296755E-14	1.866897E-16
3.590000E+03	1.274952E-14	1.886569E-16
3.600000E+03	1.252475E-14	1.899306E-16
3.610000E+03	1.229850E-14	1.905636E-16
3.620000E+03	1.207137E-14	1.905664E-16
3.630000E+03	1.184630E-14	1.900051E-16
3.640000E+03	1.162512E-14	1.889431E-16
3.650000E+03	1.140943E-14	1.874492E-16
3.660000E+03	1.120128E-14	1.856060E-16
3.670000E+03	1.100104E-14	1.834713E-16
3.680000E+03	1.081030E-14	1.811233E-16
3.690000E+03	1.062971E-14	1.786235E-16
3.700000E+03	1.045916E-14	1.760179E-16
3.710000E+03	1.030022E-14	1.733769E-16
3.720000E+03	1.015189E-14	1.707237E-16
3.730000E+03	1.001540E-14	1.681139E-16
3.740000E+03	9.890105E-15	1.655676E-16
3.750000E+03	9.775877E-15	1.631082E-16
3.760000E+03	9.672989E-15	1.607621E-16
3.770000E+03	9.581111E-15	1.585416E-16
3.780000E+03	9.499395E-15	1.564470E-16
3.790000E+03	9.427926E-15	1.544910E-16
3.800000E+03	9.366261E-15	1.526752E-16
3.810000E+03	9.313944E-15	1.509983E-16
3.820000E+03	9.270508E-15	1.494570E-16
3.830000E+03	9.235478E-15	1.480458E-16
3.840000E+03	9.207977E-15	1.467513E-16
3.850000E+03	9.188344E-15	1.455777E-16
3.860000E+03	9.175698E-15	1.445085E-16
3.870000E+03	9.169579E-15	1.435332E-16
3.880000E+03	9.169538E-15	1.426406E-16
3.890000E+03	9.175141E-15	1.418195E-16
3.900000E+03	9.185974E-15	1.410593E-16
3.910000E+03	9.201643E-15	1.403501E-16
3.920000E+03	9.221780E-15	1.396834E-16
3.930000E+03	9.246379E-15	1.390570E-16
3.940000E+03	9.274450E-15	1.384548E-16
3.950000E+03	9.305727E-15	1.378730E-16
3.960000E+03	9.340611E-15	1.373183E-16
3.970000E+03	9.378233E-15	1.367793E-16
3.980000E+03	9.418723E-15	1.362596E-16
3.990000E+03	9.461610E-15	1.357541E-16
4.000000E+03	9.507064E-15	1.352668E-16
4.010000E+03	9.554674E-15	1.347930E-16
4.020000E+03	9.604357E-15	1.343316E-16
4.030000E+03	9.655758E-15	1.338768E-16
4.040000E+03	9.709404E-15	1.334334E-16
4.050000E+03	9.764404E-15	1.329844E-16
4.060000E+03	9.821570E-15	1.325336E-16
4.070000E+03	9.880044E-15	1.320592E-16
4.080000E+03	9.940084E-15	1.315507E-16
4.090000E+03	1.000167E-14	1.309902E-16
4.100000E+03	1.006479E-14	1.303556E-16
4.110000E+03	1.012890E-14	1.296143E-16
4.120000E+03	1.019427E-14	1.287405E-16
4.130000E+03	1.026088E-14	1.277017E-16
4.140000E+03	1.032873E-14	1.264633E-16
4.150000E+03	1.039732E-14	1.249832E-16
4.160000E+03	1.046687E-14	1.232289E-16
4.170000E+03	1.053709E-14	1.211632E-16
4.180000E+03	1.060790E-14	1.187551E-16
4.190000E+03	1.067893E-14	1.159762E-16
4.200000E+03	1.075017E-14	1.128116E-16
4.210000E+03	1.082108E-14	1.092526E-16
4.220000E+03	1.089098E-14	1.053081E-16
4.230000E+03	1.095929E-14	1.010132E-16
4.240000E+03	1.102530E-14	9.643584E-17
4.250000E+03	1.108792E-14	9.168717E-17
4.260000E+03	1.114595E-14	8.693719E-17
4.270000E+03	1.119854E-14	8.243117E-17
4.280000E+03	1.124412E-14	7.848609E-17
4.290000E+03	1.128177E-14	7.548412E-17
4.300000E+03	1.131005E-14	7.380677E-17
4.310000E+03	1.132832E-14	7.373750E-17
4.320000E+03	1.133567E-14	7.531038E-17
4.330000E+03	1.133223E-14	7.828823E-17
4.340000E+03	1.131782E-14	8.228864E-17
4.350000E+03	1.129311E-14	8.690979E-17
4.360000E+03	1.125841E-14	9.179146E-17
4.370000E+03	1.121475E-14	9.665003E-17
4.380000E+03	1.116292E-14	1.012716E-16
4.390000E+03	1.110379E-14	1.055072E-16
4.400000E+03	1.103849E-14	1.092636E-16
4.410000E+03	1.096822E-14	1.124914E-16
4.420000E+03	1.089402E-14	1.151735E-16
4.430000E+03	1.081691E-14	1.173193E-16
4.440000E+03	1.073824E-14	1.189616E-16
4.450000E+03	1.065894E-14	1.201433E-16
4.460000E+03	1.057989E-14	1.209168E-16
4.470000E+03	1.050199E-14	1.213407E-16
4.480000E+03	1.042621E-14	1.214771E-16
4.490000E+03	1.035291E-14	1.213808E-16
4.500000E+03	1.028281E-14	1.211085E-16
4.510000E+03	1.021633E-14	1.207099E-16
4.520000E+03	1.015364E-14	1.202267E-16
4.530000E+03	1.009513E-14	1.196980E-16
4.540000E+03	1.004064E-14	1.191513E-16
4.550000E+03	9.990536E-15	1.186152E-16
4.560000E+03	9.944700E-15	1.181075E-16
4.570000E+03	9.902989E-15	1.176419E-16
4.580000E+03	9.865649E-15	1.172330E-16
4.590000E+03	9.832371E-15	1.168860E-16
4.600000E+03	9.803253E-15	1.166089E-16
4.610000E+03	9.778266E-15	1.164066E-16
4.620000E+03	9.757263E-15	1.162821E-16
4.630000E+03	9.740243E-15	1.162400E-16
4.640000E+03	9.727472E-15	1.162887E-16
4.650000E+03	9.718591E-15	1.164300E-16
4.660000E+03	9.713761E-15	1.166731E-16
4.670000E+03	9.713139E-15	1.170287E-16
4.680000E+03	9.716507E-15	1.175043E-16
4.690000E+03	9.724008E-15	1.181127E-16
4.700000E+03	9.735519E-15	1.188646E-16
4.710000E+03	9.751011E-15	1.197717E-16
4.720000E+03	9.770418E-15	1.208447E-16
4.730000E+03	9.793505E-15	1.220908E-16
4.740000E+03	9.820226E-15	1.235172E-16
4.750000E+03	9.849992E-15	1.251204E-16
4.760000E+03	9.882746E-15	1.268996E-16
4.770000E+03	9.917999E-15	1.288428E-16
4.780000E+03	9.955192E-15	1.309315E-16
4.790000E+03	9.993930E-15	1.331425E-16
4.800000E+03	1.003363E-14	1.354440E-16
4.810000E+03	1.007378E-14	1.377989E-16
4.820000E+03	1.011380E-14	1.401642E-16
4.830000E+03	1.015296E-14	1.424904E-16
4.840000E+03	1.019052E-14	1.447250E-16
4.850000E+03	1.022595E-14	1.468175E-16
4.860000E+03	1.025863E-14	1.487165E-16
4.870000E+03	1.028770E-14	1.503699E-16
4.880000E+03	1.031263E-14	1.517338E-16
4.890000E+03	1.033289E-14	1.527711E-16
4.900000E+03	1.034808E-14	1.534526E-16
4.910000E+03	1.035774E-14	1.537565E-16
4.920000E+03	1.036151E-14	1.536713E-16
4.930000E+03	1.035915E-14	1.531959E-16
4.940000E+03	1.035076E-14	1.523431E-16
4.950000E+03	1.033631E-14	1.511320E-16
4.960000E+03	1.031579E-14	1.495896E-16
4.970000E+03	1.028948E-14	1.477537E-16
4.980000E+03	1.025770E-14	1.456672E-16
4.990000E+03	1.022091E-14	1.433793E-16
5.000000E+03	1.017956E-14	1.409402E-16
5.010000E+03	1.013414E-14	1.384007E-16
5.020000E+03	1.008519E-14	1.358106E-16
5.030000E+03	1.003327E-14	1.332161E-16
5.040000E+03	9.979066E-15	1.306602E-16
5.050000E+03	9.923169E-15	1.281780E-16
5.060000E+03	9.866160E-15	1.257976E-16
5.070000E+03	9.808505E-15	1.235388E-16
5.080000E+03	9.750976E-15	1.214180E-16
5.090000E+03	9.693997E-15	1.194413E-16
5.100000E+03	9.638074E-15	1.176102E-16
5.110000E+03	9.583777E-15	1.159227E-16
5.120000E+03	9.531321E-15	1.143692E-16
5.130000E+03	9.481388E-15	1.129432E-16
5.140000E+03	9.434085E-15	1.116294E-16
5.150000E+03	9.389762E-15	1.104142E-16
5.160000E+03	9.348497E-15	1.092800E-16
5.170000E+03	9.310495E-15	1.082103E-16
5.180000E+03	9.275690E-15	1.071847E-16
5.190000E+03	9.244236E-15	1.061849E-16
5.200000E+03	9.215825E-15	1.051870E-16
5.210000E+03	9.190383E-15	1.041691E-16
5.220000E+03	9.167581E-15	1.031058E-16
5.230000E+03	9.147336E-15	1.019736E-16
5.240000E+03	9.129135E-15	1.007436E-16
5.250000E+03	9.112724E-15	9.938864E-17
5.260000E+03	9.097634E-15	9.787890E-17
5.270000E+03	9.083661E-15	9.618699E-17
5.280000E+03	9.070207E-15	9.428179E-17
5.290000E+03	9.056858E-15	9.213573E-17
5.300000E+03	9.043289E-15	8.972533E-17
5.310000E+03	9.029080E-15	8.703162E-17
5.320000E+03	9.013725E-15	8.404333E-17
5.330000E+03	8.996918E-15	8.076373E-17
5.340000E+03	8.978181E-15	7.721238E-17
5.350000E+03	8.957253E-15	7.343527E-17
5.360000E+03	8.933721E-15	6.950995E-17
5.370000E+03	8.907311E-15	6.555761E-17
5.380000E+03	8.877808E-15	6.175186E-17
5.390000E+03	8.845153E-15	5.832447E-17
5.400000E+03	8.809190E-15	5.555512E-17
5.410000E+03	8.769857E-15	5.373657E-17
5.420000E+03	8.727476E-15	5.310126E-17
5.430000E+03	8.682227E-15	5.370606E-17
5.440000E+03	8.634418E-15	5.538473E-17
5.450000E+03	8.584675E-15	5.785493E-17
5.460000E+03	8.533300E-15	6.081454E-17
5.470000E+03	8.480863E-15	6.400318E-17
5.480000E+03	8.427746E-15	6.721963E-17
5.490000E+03	8.374558E-15	7.032378E-17
5.500000E+03	8.321523E-15	7.322204E-17
5.510000E+03	8.269155E-15	7.586142E-17
5.520000E+03	8.217749E-15	7.821528E-17
5.530000E+03	8.167551E-15	8.027656E-17
5.540000E+03	8.118684E-15	8.205084E-17
5.550000E+03	8.071481E-15	8.355505E-17
5.560000E+03	8.025927E-15	8.480839E-17
5.570000E+03	7.982159E-15	8.583492E-17
5.580000E+03	7.940313E-15	8.666027E-17
5.590000E+03	7.900610E-15	8.731140E-17
5.600000E+03	7.863135E-15	8.781321E-17
5.610000E+03	7.828073E-15	8.819066E-17
5.620000E+03	7.795638E-15	8.846754E-17
5.630000E+03	7.766069E-15	8.866631E-17
5.640000E+03	7.739634E-15	8.880791E-17
5.650000E+03	7.716619E-15	8.891168E-17
5.660000E+03	7.697321E-15	8.899528E-17
5.670000E+03	7.681969E-15	8.907378E-17
5.680000E+03	7.671006E-15	8.916314E-17
5.690000E+03	7.664559E-15	8.927408E-17
5.700000E+03	7.662948E-15	8.941820E-17
5.710000E+03	7.666377E-15	8.960452E-17
5.720000E+03	7.674921E-15	8.983947E-17
5.730000E+03	7.688668E-15	9.012873E-17
5.740000E+03	7.707706E-15	9.047718E-17
5.750000E+03	7.731891E-15	9.088629E-17
5.760000E+03	7.761067E-15	9.135675E-17
5.770000E+03	7.795058E-15	9.188842E-17
5.780000E+03	7.833361E-15	9.247672E-17
5.790000E+03	7.875525E-15	9.311696E-17
5.800000E+03	7.921154E-15	9.380435E-17
5.810000E+03	7.969371E-15	9.452750E-17
5.820000E+03	8.019671E-15	9.527846E-17
5.830000E+03	8.071006E-15	9.604170E-17
5.840000E+03	8.122572E-15	9.680347E-17
5.850000E+03	8.173433E-15	9.754742E-17
5.860000E+03	8.222550E-15	9.825501E-17
5.870000E+03	8.269030E-15	9.890888E-17
5.880000E+03	8.311926E-15	9.949074E-17
5.890000E+03	8.350179E-15	9.998114E-17
5.900000E+03	8.383054E-15	1.003651E-16
5.910000E+03	8.409845E-15	1.006293E-16
5.920000E+03	8.429992E-15	1.007632E-16
5.930000E+03	8.442945E-15	1.007584E-16
5.940000E+03	8.448672E-15	1.006140E-16
5.950000E+03	8.447109E-15	1.003305E-16
5.960000E+03	8.438414E-15	9.991233E-17
5.970000E+03	8.423134E-15	9.936922E-17
5.980000E+03	8.401950E-15	9.871287E-17
5.990000E+03	8.375668E-15	9.795622E-17
6.000000E+03	8.345273E-15	9.711353E-17
6.010000E+03	8.312148E-15	9.620239E-17
6.020000E+03	8.277549E-15	9.523718E-17
6.030000E+03	8.242899E-15	9.423205E-17
6.040000E+03	8.209588E-15	9.319830E-17
6.050000E+03	8.179252E-15	9.214735E-17
6.060000E+03	8.153179E-15	9.108374E-17
6.070000E+03	8.132835E-15	9.001084E-17
6.080000E+03	8.119583E-15	8.892760E-17
6.090000E+03	8.114428E-15	8.782545E-17
6.100000E+03	8.118522E-15	8.669391E-17
6.110000E+03	8.132676E-15	8.551506E-17
6.120000E+03	8.157473E-15	8.426504E-17
6.130000E+03	8.193325E-15	8.291486E-17
6.140000E+03	8.240272E-15	8.142914E-17
6.150000E+03	8.298031E-15	7.976786E-17
6.160000E+03	8.366199E-15	7.789027E-17
6.170000E+03	8.443656E-15	7.575219E-17
6.180000E+03	8.529104E-15	7.331573E-17
6.190000E+03	8.620555E-15	7.055109E-17
6.200000E+03	8.715660E-15	6.744884E-17
6.210000E+03	8.811568E-15	6.403141E-17
6.220000E+03	8.904897E-15	6.037017E-17
6.230000E+03	8.992449E-15	5.661193E-17
6.240000E+03	9.070604E-15	5.299758E-17
6.250000E+03	9.136061E-15	4.988067E-17
6.260000E+03	9.185870E-15	4.770364E-17
6.270000E+03	9.218083E-15	4.689867E-17
6.280000E+03	9.232057E-15	4.768913E-17
6.290000E+03	9.229072E-15	4.992254E-17
6.300000E+03	9.211962E-15	5.320597E-17
6.310000E+03	9.184471E-15	5.711047E-17
6.320000E+03	9.150559E-15	6.128328E-17
6.330000E+03	9.114450E-15	6.548119E-17
6.340000E+03	9.080114E-15	6.955754E-17
6.350000E+03	9.051090E-15	7.343862E-17
6.360000E+03	9.030741E-15	7.710427E-17
6.370000E+03	9.021552E-15	8.056502E-17
6.380000E+03	9.025830E-15	8.385535E-17
6.390000E+03	9.045073E-15	8.701923E-17
6.400000E+03	9.080346E-15	9.010737E-17
6.410000E+03	9.132217E-15	9.317266E-17
6.420000E+03	9.200879E-15	9.626870E-17
6.430000E+03	9.285991E-15	9.944642E-17
6.440000E+03	9.386799E-15	1.027536E-16
6.450000E+03	9.502159E-15	1.062337E-16
6.460000E+03	9.630665E-15	1.099251E-16
6.470000E+03	9.770586E-15	1.138580E-16
6.480000E+03	9.919794E-15	1.180511E-16
6.490000E+03	1.007612E-14	1.225120E-16
6.500000E+03	1.023687E-14	1.272294E-16
6.510000E+03	1.039940E-14	1.321765E-16
6.520000E+03	1.056065E-14	1.373042E-16
6.530000E+03	1.071785E-14	1.425495E-16
6.540000E+03	1.086798E-14	1.478301E-16
6.550000E+03	1.100838E-14	1.530532E-16
6.560000E+03	1.113650E-14	1.581175E-16
6.570000E+03	1.124976E-14	1.629134E-16
6.580000E+03	1.134619E-14	1.673371E-16
6.590000E+03	1.142387E-14	1.712865E-16
6.600000E+03	1.148125E-14	1.746697E-16
6.610000E+03	1.151726E-14	1.774102E-16
6.620000E+03	1.153123E-14	1.794488E-16
6.630000E+03	1.152279E-14	1.807439E-16
6.640000E+03	1.149200E-14	1.812748E-16
6.650000E+03	1.143927E-14	1.810424E-16
6.660000E+03	1.136567E-14	1.800727E-16
6.670000E+03	1.127208E-14	1.784034E-16
6.680000E+03	1.116018E-14	1.760982E-16
6.690000E+03	1.103150E-14	1.732296E-16
6.700000E+03	1.088802E-14	1.698860E-16
6.710000E+03	1.073172E-14	1.661614E-16
6.720000E+03	1.056466E-14	1.621540E-16
6.730000E+03	1.038904E-14	1.579637E-16
6.740000E+03	1.020670E-14	1.536809E-16
6.750000E+03	1.001992E-14	1.493955E-16
6.760000E+03	9.830499E-15	1.451814E-16
6.770000E+03	9.640383E-15	1.411028E-16
6.780000E+03	9.451150E-15	1.372062E-16
6.790000E+03	9.264448E-15	1.335266E-16
6.800000E+03	9.081654E-15	1.300829E-16
6.810000E+03	8.903879E-15	1.268799E-16
6.820000E+03	8.732278E-15	1.239146E-16
6.830000E+03	8.567836E-15	1.211761E-16
6.840000E+03	8.410990E-15	1.186423E-16
6.850000E+03	8.262622E-15	1.162971E-16
6.860000E+03	8.123081E-15	1.141183E-16
6.870000E+03	7.992593E-15	1.120857E-16
6.880000E+03	7.871549E-15	1.101853E-16
6.890000E+03	7.759857E-15	1.084018E-16
6.900000E+03	7.657603E-15	1.067276E-16
6.910000E+03	7.564690E-15	1.051573E-16
6.920000E+03	7.480935E-15	1.036888E-16
6.930000E+03	7.406079E-15	1.023224E-16
6.940000E+03	7.339706E-15	1.010593E-16
6.950000E+03	7.281513E-15	9.990414E-17
6.960000E+03	7.231049E-15	9.886059E-17
6.970000E+03	7.187730E-15	9.793107E-17
6.980000E+03	7.151102E-15	9.711953E-17
6.990000E+03	7.120585E-15	9.642764E-17
7.000000E+03	7.095404E-15	9.585332E-17
7.010000E+03	7.075186E-15	9.539861E-17
7.020000E+03	7.059035E-15	9.505698E-17
7.030000E+03	7.046475E-15	9.482585E-17
7.040000E+03	7.036696E-15	9.469638E-17
7.050000E+03	7.029237E-15	9.466257E-17
7.060000E+03	7.023327E-15	9.471230E-17
7.070000E+03	7.018478E-15	9.483533E-17
7.080000E+03	7.014162E-15	9.501889E-17
7.090000E+03	7.009819E-15	9.524782E-17
7.100000E+03	7.005034E-15	9.550708E-17
7.110000E+03	6.999545E-15	9.578206E-17
7.120000E+03	6.992906E-15	9.605427E-17
7.130000E+03	6.985086E-15	9.630992E-17
7.140000E+03	6.975705E-15	9.652993E-17
7.150000E+03	6.964963E-15	9.670334E-17
7.160000E+03	6.952616E-15	9.681380E-17
7.170000E+03	6.938903E-15	9.685302E-17
7.180000E+03	6.923772E-15	9.681063E-17
7.190000E+03	6.907463E-15	9.668278E-17
7.200000E+03	6.890076E-15	9.646638E-17
7.210000E+03	6.871892E-15	9.616388E-17
7.220000E+03	6.852944E-15	9.577714E-17
7.230000E+03	6.833598E-15	9.531532E-17
7.240000E+03	6.813782E-15	9.478379E-17
7.250000E+03	6.793906E-15	9.419641E-17
7.260000E+03	6.773846E-15	9.356081E-17
7.270000E+03	6.753779E-15	9.288935E-17
7.280000E+03	6.733678E-15	9.219151E-17
7.290000E+03	6.713723E-15	9.147906E-17
7.300000E+03	6.693642E-15	9.075652E-17
7.310000E+03	6.673458E-15	9.003111E-17
7.320000E+03	6.653077E-15	8.930699E-17
7.330000E+03	6.632380E-15	8.858644E-17
7.340000E+03	6.611226E-15	8.787016E-17
7.350000E+03	6.589378E-15	8.715664E-17
7.360000E+03	6.566678E-15	8.644484E-17
7.370000E+03	6.542969E-15	8.573372E-17
7.380000E+03	6.518100E-15	8.502278E-17
7.390000E+03	6.491940E-15	8.431245E-17
7.400000E+03	6.464455E-15	8.360530E-17
7.410000E+03	6.435396E-15	8.290178E-17
7.420000E+03	6.404781E-15	8.220605E-17
7.430000E+03	6.372579E-15	8.152106E-17
7.440000E+03	6.338708E-15	8.084765E-17
7.450000E+03	6.303355E-15	8.018755E-17
7.460000E+03	6.266418E-15	7.953528E-17
7.470000E+03	6.228059E-15	7.888445E-17
7.480000E+03	6.188310E-15	7.822214E-17
7.490000E+03	6.147457E-15	7.753383E-17
7.500000E+03	6.105421E-15	7.679573E-17
7.510000E+03	6.062605E-15	7.598628E-17
7.520000E+03	6.019046E-15	7.507642E-17
7.530000E+03	5.975026E-15	7.403860E-17
7.540000E+03	5.930768E-15	7.284431E-17
7.550000E+03	5.886434E-15	7.146560E-17
7.560000E+03	5.842349E-15	6.987928E-17
7.570000E+03	5.798852E-15	6.806635E-17
7.580000E+03	5.756067E-15	6.601073E-17
7.590000E+03	5.714352E-15	6.370579E-17
7.600000E+03	5.673997E-15	6.115212E-17
7.610000E+03	5.635368E-15	5.836059E-17
7.620000E+03	5.598690E-15	5.535194E-17
7.630000E+03	5.564260E-15	5.216178E-17
7.640000E+03	5.532448E-15	4.884405E-17
7.650000E+03	5.503471E-15	4.547428E-17
7.660000E+03	5.477685E-15	4.215910E-17
7.670000E+03	5.455359E-15	3.904227E-17
7.680000E+03	5.436744E-15	3.631083E-17
7.690000E+03	5.421987E-15	3.418907E-17
7.700000E+03	5.411399E-15	3.290859E-17
7.710000E+03	5.404997E-15	3.263643E-17
7.720000E+03	5.402707E-15	3.338211E-17
7.730000E+03	5.404289E-15	3.498810E-17
7.740000E+03	5.409419E-15	3.722337E-17
7.750000E+03	5.417730E-15	3.985931E-17
7.760000E+03	5.428905E-15	4.270796E-17
