#wls	flux	fluxerr
1.600000E+03	5.464154E-15	6.667340E-16
1.640000E+03	5.577797E-15	6.251288E-16
1.680000E+03	5.693930E-15	5.822945E-16
1.720000E+03	5.812088E-15	5.384061E-16
1.760000E+03	5.930396E-15	4.936089E-16
1.800000E+03	6.050106E-15	4.484419E-16
1.840000E+03	6.168689E-15	4.032775E-16
1.880000E+03	6.285603E-15	3.588642E-16
1.920000E+03	6.397617E-15	3.160808E-16
1.960000E+03	6.503856E-15	2.763369E-16
2.000000E+03	6.603795E-15	2.414875E-16
2.040000E+03	6.695188E-15	2.136904E-16
2.080000E+03	6.778341E-15	1.950408E-16
2.120000E+03	6.856226E-15	1.861957E-16
2.160000E+03	6.932782E-15	1.852716E-16
2.200000E+03	7.009459E-15	1.894035E-16
2.240000E+03	7.095567E-15	1.966588E-16
2.280000E+03	7.192592E-15	2.057244E-16
2.320000E+03	7.307341E-15	2.153496E-16
2.360000E+03	7.438536E-15	2.237816E-16
2.400000E+03	7.584635E-15	2.294714E-16
2.440000E+03	7.744061E-15	2.314526E-16
2.480000E+03	7.912533E-15	2.296442E-16
2.520000E+03	8.084743E-15	2.253761E-16
2.560000E+03	8.256639E-15	2.219103E-16
2.600000E+03	8.424000E-15	2.242426E-16
2.640000E+03	8.586125E-15	2.372524E-16
2.680000E+03	8.740058E-15	2.618832E-16
2.720000E+03	8.889853E-15	2.953027E-16
2.760000E+03	9.036872E-15	3.334479E-16
2.800000E+03	9.188878E-15	3.729415E-16
2.840000E+03	9.351834E-15	4.112257E-16
2.880000E+03	9.535993E-15	4.466953E-16
2.920000E+03	9.747042E-15	4.780973E-16
2.960000E+03	9.992856E-15	5.046233E-16
3.000000E+03	1.028203E-14	5.257021E-16
3.010000E+03	1.036160E-14	5.300370E-16
3.020000E+03	1.044390E-14	5.339609E-16
3.030000E+03	1.053038E-14	5.375319E-16
3.040000E+03	1.061967E-14	5.406676E-16
3.050000E+03	1.071184E-14	5.433552E-16
3.060000E+03	1.080827E-14	5.456517E-16
3.070000E+03	1.090900E-14	5.475428E-16
3.080000E+03	1.101267E-14	5.489447E-16
3.090000E+03	1.112066E-14	5.499115E-16
3.100000E+03	1.123158E-14	5.503590E-16
3.110000E+03	1.134819E-14	5.504065E-16
3.120000E+03	1.146769E-14	5.499008E-16
3.130000E+03	1.159142E-14	5.488915E-16
3.140000E+03	1.171932E-14	5.473592E-16
3.150000E+03	1.184991E-14	5.452194E-16
3.160000E+03	1.198587E-14	5.425811E-16
3.170000E+03	1.212568E-14	5.393578E-16
3.180000E+03	1.226917E-14	5.355276E-16
3.190000E+03	1.241756E-14	5.311287E-16
3.200000E+03	1.256921E-14	5.260761E-16
3.210000E+03	1.272384E-14	5.203476E-16
3.220000E+03	1.288113E-14	5.139211E-16
3.230000E+03	1.304212E-14	5.068305E-16
3.240000E+03	1.320641E-14	4.990513E-16
3.250000E+03	1.337208E-14	4.905082E-16
3.260000E+03	1.354001E-14	4.812351E-16
3.270000E+03	1.370960E-14	4.712136E-16
3.280000E+03	1.388015E-14	4.604285E-16
3.290000E+03	1.405091E-14	4.488689E-16
3.300000E+03	1.422103E-14	4.365297E-16
3.310000E+03	1.438961E-14	4.234124E-16
3.320000E+03	1.455565E-14	4.095268E-16
3.330000E+03	1.471950E-14	3.949311E-16
3.340000E+03	1.487857E-14	3.796154E-16
3.350000E+03	1.503306E-14	3.636605E-16
3.360000E+03	1.518169E-14	3.471243E-16
3.370000E+03	1.532310E-14	3.300855E-16
3.380000E+03	1.545447E-14	3.126190E-16
3.390000E+03	1.557581E-14	2.948904E-16
3.400000E+03	1.568706E-14	2.770927E-16
3.410000E+03	1.578538E-14	2.594082E-16
3.420000E+03	1.586935E-14	2.420974E-16
3.430000E+03	1.593897E-14	2.254966E-16
3.440000E+03	1.599155E-14	2.099608E-16
3.450000E+03	1.602721E-14	1.959406E-16
3.460000E+03	1.604476E-14	1.839033E-16
3.470000E+03	1.604313E-14	1.743070E-16
3.480000E+03	1.602123E-14	1.675209E-16
3.490000E+03	1.597913E-14	1.637334E-16
3.500000E+03	1.591478E-14	1.628184E-16
3.510000E+03	1.582812E-14	1.643573E-16
3.520000E+03	1.572083E-14	1.677652E-16
3.530000E+03	1.559486E-14	1.724129E-16
3.540000E+03	1.544907E-14	1.776833E-16
3.550000E+03	1.528601E-14	1.830948E-16
3.560000E+03	1.510834E-14	1.882783E-16
3.570000E+03	1.491672E-14	1.929439E-16
3.580000E+03	1.471402E-14	1.969181E-16
3.590000E+03	1.450114E-14	2.000740E-16
3.600000E+03	1.428188E-14	2.023819E-16
3.610000E+03	1.405624E-14	2.038037E-16
3.620000E+03	1.382787E-14	2.043871E-16
3.630000E+03	1.359842E-14	2.041779E-16
3.640000E+03	1.336868E-14	2.032273E-16
3.650000E+03	1.314102E-14	2.016241E-16
3.660000E+03	1.291684E-14	1.994522E-16
3.670000E+03	1.269742E-14	1.968004E-16
3.680000E+03	1.248398E-14	1.937594E-16
3.690000E+03	1.227831E-14	1.904306E-16
3.700000E+03	1.208136E-14	1.869022E-16
3.710000E+03	1.189341E-14	1.832500E-16
3.720000E+03	1.171656E-14	1.795743E-16
3.730000E+03	1.155011E-14	1.759200E-16
3.740000E+03	1.139527E-14	1.723371E-16
3.750000E+03	1.125174E-14	1.688431E-16
3.760000E+03	1.111869E-14	1.654436E-16
3.770000E+03	1.099622E-14	1.621529E-16
3.780000E+03	1.088440E-14	1.589840E-16
3.790000E+03	1.078174E-14	1.559294E-16
3.800000E+03	1.068877E-14	1.530091E-16
3.810000E+03	1.060497E-14	1.502303E-16
3.820000E+03	1.052940E-14	1.475942E-16
3.830000E+03	1.046194E-14	1.451064E-16
3.840000E+03	1.040203E-14	1.427653E-16
3.850000E+03	1.034950E-14	1.405721E-16
3.860000E+03	1.030327E-14	1.385034E-16
3.870000E+03	1.026266E-14	1.365398E-16
3.880000E+03	1.022745E-14	1.346673E-16
3.890000E+03	1.019661E-14	1.328550E-16
3.900000E+03	1.016993E-14	1.310846E-16
3.910000E+03	1.014724E-14	1.293422E-16
3.920000E+03	1.012732E-14	1.276010E-16
3.930000E+03	1.011044E-14	1.258594E-16
3.940000E+03	1.009555E-14	1.241062E-16
3.950000E+03	1.008306E-14	1.223524E-16
3.960000E+03	1.007270E-14	1.206072E-16
3.970000E+03	1.006365E-14	1.188734E-16
3.980000E+03	1.005636E-14	1.171562E-16
3.990000E+03	1.005063E-14	1.154533E-16
4.000000E+03	1.004603E-14	1.137628E-16
4.010000E+03	1.004249E-14	1.120821E-16
4.020000E+03	1.004022E-14	1.104176E-16
4.030000E+03	1.003893E-14	1.087752E-16
4.040000E+03	1.003883E-14	1.071647E-16
4.050000E+03	1.003935E-14	1.055933E-16
4.060000E+03	1.004097E-14	1.040813E-16
4.070000E+03	1.004299E-14	1.026245E-16
4.080000E+03	1.004548E-14	1.012268E-16
4.090000E+03	1.004818E-14	9.988720E-17
4.100000E+03	1.005049E-14	9.858329E-17
4.110000E+03	1.005201E-14	9.729241E-17
4.120000E+03	1.005243E-14	9.598814E-17
4.130000E+03	1.005126E-14	9.462097E-17
4.140000E+03	1.004832E-14	9.314289E-17
4.150000E+03	1.004359E-14	9.151141E-17
4.160000E+03	1.003700E-14	8.967820E-17
4.170000E+03	1.002881E-14	8.760705E-17
4.180000E+03	1.001920E-14	8.527325E-17
4.190000E+03	1.000847E-14	8.265781E-17
4.200000E+03	9.997443E-15	7.976038E-17
4.210000E+03	9.986324E-15	7.658638E-17
4.220000E+03	9.975537E-15	7.313927E-17
4.230000E+03	9.965717E-15	6.944182E-17
4.240000E+03	9.957261E-15	6.553796E-17
4.250000E+03	9.950402E-15	6.148525E-17
4.260000E+03	9.945166E-15	5.739513E-17
4.270000E+03	9.942123E-15	5.346595E-17
4.280000E+03	9.941032E-15	4.998479E-17
4.290000E+03	9.942171E-15	4.735943E-17
4.300000E+03	9.945407E-15	4.606282E-17
4.310000E+03	9.950493E-15	4.646132E-17
4.320000E+03	9.956592E-15	4.857790E-17
4.330000E+03	9.961906E-15	5.205080E-17
4.340000E+03	9.965092E-15	5.637276E-17
4.350000E+03	9.964211E-15	6.107011E-17
4.360000E+03	9.957927E-15	6.577328E-17
4.370000E+03	9.945224E-15	7.020772E-17
4.380000E+03	9.925587E-15	7.418445E-17
4.390000E+03	9.898826E-15	7.758264E-17
4.400000E+03	9.865166E-15	8.033178E-17
4.410000E+03	9.825104E-15	8.240528E-17
4.420000E+03	9.779477E-15	8.381445E-17
4.430000E+03	9.729051E-15	8.459618E-17
4.440000E+03	9.675270E-15	8.481905E-17
4.450000E+03	9.619037E-15	8.456704E-17
4.460000E+03	9.561524E-15	8.393614E-17
4.470000E+03	9.503589E-15	8.303219E-17
4.480000E+03	9.446066E-15	8.195870E-17
4.490000E+03	9.389315E-15	8.078733E-17
4.500000E+03	9.334029E-15	7.958702E-17
4.510000E+03	9.280144E-15	7.841368E-17
4.520000E+03	9.227926E-15	7.729651E-17
4.530000E+03	9.177529E-15	7.626007E-17
4.540000E+03	9.128813E-15	7.532600E-17
4.550000E+03	9.081837E-15	7.449770E-17
4.560000E+03	9.036620E-15	7.378130E-17
4.570000E+03	8.993169E-15	7.318507E-17
4.580000E+03	8.951537E-15	7.269694E-17
4.590000E+03	8.911661E-15	7.230866E-17
4.600000E+03	8.873596E-15	7.201899E-17
4.610000E+03	8.837679E-15	7.181276E-17
4.620000E+03	8.803802E-15	7.167966E-17
4.630000E+03	8.772193E-15	7.162238E-17
4.640000E+03	8.743025E-15	7.163266E-17
4.650000E+03	8.716575E-15	7.171468E-17
4.660000E+03	8.692891E-15	7.188263E-17
4.670000E+03	8.672160E-15	7.214276E-17
4.680000E+03	8.654763E-15	7.251454E-17
4.690000E+03	8.640627E-15	7.302442E-17
4.700000E+03	8.630103E-15	7.369114E-17
4.710000E+03	8.623194E-15	7.453912E-17
4.720000E+03	8.619970E-15	7.559969E-17
4.730000E+03	8.620585E-15	7.688743E-17
4.740000E+03	8.624943E-15	7.841755E-17
4.750000E+03	8.632984E-15	8.020726E-17
4.760000E+03	8.644575E-15	8.225206E-17
4.770000E+03	8.659409E-15	8.454368E-17
4.780000E+03	8.677092E-15	8.706964E-17
4.790000E+03	8.697314E-15	8.979349E-17
4.800000E+03	8.719478E-15	9.267025E-17
4.810000E+03	8.742840E-15	9.564956E-17
4.820000E+03	8.766853E-15	9.866265E-17
4.830000E+03	8.790737E-15	1.016346E-16
4.840000E+03	8.813994E-15	1.044953E-16
4.850000E+03	8.835723E-15	1.071617E-16
4.860000E+03	8.855222E-15	1.095567E-16
4.870000E+03	8.872033E-15	1.116149E-16
4.880000E+03	8.885289E-15	1.132738E-16
4.890000E+03	8.894698E-15	1.144886E-16
4.900000E+03	8.899715E-15	1.152236E-16
4.910000E+03	8.900001E-15	1.154575E-16
4.920000E+03	8.895186E-15	1.151810E-16
4.930000E+03	8.885176E-15	1.144010E-16
4.940000E+03	8.869794E-15	1.131349E-16
4.950000E+03	8.849144E-15	1.114152E-16
4.960000E+03	8.823161E-15	1.092812E-16
4.970000E+03	8.792417E-15	1.067834E-16
4.980000E+03	8.757197E-15	1.039766E-16
4.990000E+03	8.718102E-15	1.009274E-16
5.000000E+03	8.675629E-15	9.770458E-17
5.010000E+03	8.630268E-15	9.438408E-17
5.020000E+03	8.582321E-15	9.104277E-17
5.030000E+03	8.532579E-15	8.775441E-17
5.040000E+03	8.481253E-15	8.458649E-17
5.050000E+03	8.429008E-15	8.160023E-17
5.060000E+03	8.376312E-15	7.881924E-17
5.070000E+03	8.323428E-15	7.625515E-17
5.080000E+03	8.270975E-15	7.391865E-17
5.090000E+03	8.219330E-15	7.179859E-17
5.100000E+03	8.169037E-15	6.988659E-17
5.110000E+03	8.120368E-15	6.817452E-17
5.120000E+03	8.074001E-15	6.664312E-17
5.130000E+03	8.030332E-15	6.527703E-17
5.140000E+03	7.989877E-15	6.406800E-17
5.150000E+03	7.952825E-15	6.299139E-17
5.160000E+03	7.919641E-15	6.203245E-17
5.170000E+03	7.890419E-15	6.118030E-17
5.180000E+03	7.865147E-15	6.040832E-17
5.190000E+03	7.843783E-15	5.969714E-17
5.200000E+03	7.826039E-15	5.903379E-17
5.210000E+03	7.811601E-15	5.839262E-17
5.220000E+03	7.800171E-15	5.775684E-17
5.230000E+03	7.791263E-15	5.711798E-17
5.240000E+03	7.784477E-15	5.645846E-17
5.250000E+03	7.779399E-15	5.576941E-17
5.260000E+03	7.775700E-15	5.504855E-17
5.270000E+03	7.772922E-15	5.427558E-17
5.280000E+03	7.770776E-15	5.343598E-17
5.290000E+03	7.768795E-15	5.251729E-17
5.300000E+03	7.766592E-15	5.148744E-17
5.310000E+03	7.763769E-15	5.031893E-17
5.320000E+03	7.759911E-15	4.899156E-17
5.330000E+03	7.754653E-15	4.747337E-17
5.340000E+03	7.747470E-15	4.574527E-17
5.350000E+03	7.737932E-15	4.380967E-17
5.360000E+03	7.725543E-15	4.167739E-17
5.370000E+03	7.710091E-15	3.940034E-17
5.380000E+03	7.691183E-15	3.708358E-17
5.390000E+03	7.668544E-15	3.488275E-17
5.400000E+03	7.641992E-15	3.302958E-17
5.410000E+03	7.611365E-15	3.181098E-17
5.420000E+03	7.576731E-15	3.147282E-17
5.430000E+03	7.538316E-15	3.208474E-17
5.440000E+03	7.496556E-15	3.346908E-17
5.450000E+03	7.452103E-15	3.533364E-17
5.460000E+03	7.405580E-15	3.741003E-17
5.470000E+03	7.357554E-15	3.950170E-17
5.480000E+03	7.308583E-15	4.147141E-17
5.490000E+03	7.259195E-15	4.324576E-17
5.500000E+03	7.209946E-15	4.479868E-17
5.510000E+03	7.161141E-15	4.611825E-17
5.520000E+03	7.113107E-15	4.721705E-17
5.530000E+03	7.066186E-15	4.812309E-17
5.540000E+03	7.020542E-15	4.885289E-17
5.550000E+03	6.976222E-15	4.942950E-17
5.560000E+03	6.933457E-15	4.988271E-17
5.570000E+03	6.892238E-15	5.022502E-17
5.580000E+03	6.852611E-15	5.047320E-17
5.590000E+03	6.814644E-15	5.064869E-17
5.600000E+03	6.778525E-15	5.076045E-17
5.610000E+03	6.744264E-15	5.082087E-17
5.620000E+03	6.712177E-15	5.084939E-17
5.630000E+03	6.682468E-15	5.085204E-17
5.640000E+03	6.655440E-15	5.084064E-17
5.650000E+03	6.631416E-15	5.083200E-17
5.660000E+03	6.610771E-15	5.083059E-17
5.670000E+03	6.593956E-15	5.084644E-17
5.680000E+03	6.581277E-15	5.089301E-17
5.690000E+03	6.573079E-15	5.097072E-17
5.700000E+03	6.569687E-15	5.108455E-17
5.710000E+03	6.571380E-15	5.124408E-17
5.720000E+03	6.578421E-15	5.144617E-17
5.730000E+03	6.590894E-15	5.169143E-17
5.740000E+03	6.608811E-15	5.198531E-17
5.750000E+03	6.632243E-15	5.232170E-17
5.760000E+03	6.660921E-15	5.269741E-17
5.770000E+03	6.694746E-15	5.311694E-17
5.780000E+03	6.733187E-15	5.357092E-17
5.790000E+03	6.775813E-15	5.405717E-17
5.800000E+03	6.822038E-15	5.457897E-17
5.810000E+03	6.871066E-15	5.512755E-17
5.820000E+03	6.922146E-15	5.570032E-17
5.830000E+03	6.974407E-15	5.629807E-17
5.840000E+03	7.026774E-15	5.690484E-17
5.850000E+03	7.078398E-15	5.750935E-17
5.860000E+03	7.128211E-15	5.810112E-17
5.870000E+03	7.175125E-15	5.865282E-17
5.880000E+03	7.218267E-15	5.914142E-17
5.890000E+03	7.256535E-15	5.954733E-17
5.900000E+03	7.289065E-15	5.984239E-17
5.910000E+03	7.315151E-15	6.000669E-17
5.920000E+03	7.334007E-15	6.002976E-17
5.930000E+03	7.345354E-15	5.990241E-17
5.940000E+03	7.348798E-15	5.962522E-17
5.950000E+03	7.344297E-15	5.921055E-17
5.960000E+03	7.332243E-15	5.866654E-17
5.970000E+03	7.313031E-15	5.800936E-17
5.980000E+03	7.287475E-15	5.726491E-17
5.990000E+03	7.256572E-15	5.644884E-17
6.000000E+03	7.221562E-15	5.558428E-17
6.010000E+03	7.183727E-15	5.469806E-17
6.020000E+03	7.144678E-15	5.380236E-17
6.030000E+03	7.105955E-15	5.291264E-17
6.040000E+03	7.069105E-15	5.204860E-17
6.050000E+03	7.035755E-15	5.121524E-17
6.060000E+03	7.007443E-15	5.042227E-17
6.070000E+03	6.985767E-15	4.968450E-17
6.080000E+03	6.972008E-15	4.899807E-17
6.090000E+03	6.967565E-15	4.836523E-17
6.100000E+03	6.973514E-15	4.779058E-17
6.110000E+03	6.990898E-15	4.726064E-17
6.120000E+03	7.020495E-15	4.676463E-17
6.130000E+03	7.062955E-15	4.629388E-17
6.140000E+03	7.118530E-15	4.581517E-17
6.150000E+03	7.187247E-15	4.529684E-17
6.160000E+03	7.268866E-15	4.470920E-17
6.170000E+03	7.362470E-15	4.399725E-17
6.180000E+03	7.466729E-15	4.311025E-17
6.190000E+03	7.579729E-15	4.200455E-17
6.200000E+03	7.698312E-15	4.061846E-17
6.210000E+03	7.818514E-15	3.891248E-17
6.220000E+03	7.935682E-15	3.688806E-17
6.230000E+03	8.043867E-15	3.458154E-17
6.240000E+03	8.136627E-15	3.212489E-17
6.250000E+03	8.207273E-15	2.978207E-17
6.260000E+03	8.248681E-15	2.793085E-17
6.270000E+03	8.255450E-15	2.701058E-17
6.280000E+03	8.226085E-15	2.726916E-17
6.290000E+03	8.165103E-15	2.848803E-17
6.300000E+03	8.080980E-15	3.023761E-17
6.310000E+03	7.983464E-15	3.215546E-17
6.320000E+03	7.881136E-15	3.400701E-17
6.330000E+03	7.781667E-15	3.570130E-17
6.340000E+03	7.691842E-15	3.724317E-17
6.350000E+03	7.616190E-15	3.865597E-17
6.360000E+03	7.558176E-15	3.999406E-17
6.370000E+03	7.520641E-15	4.132724E-17
6.380000E+03	7.504799E-15	4.269256E-17
6.390000E+03	7.511460E-15	4.413064E-17
6.400000E+03	7.541013E-15	4.568664E-17
6.410000E+03	7.593104E-15	4.737854E-17
6.420000E+03	7.667115E-15	4.923256E-17
6.430000E+03	7.762098E-15	5.129256E-17
6.440000E+03	7.876758E-15	5.360118E-17
6.450000E+03	8.009418E-15	5.621969E-17
6.460000E+03	8.158263E-15	5.922693E-17
6.470000E+03	8.320670E-15	6.268657E-17
6.480000E+03	8.494060E-15	6.666802E-17
6.490000E+03	8.675338E-15	7.122798E-17
6.500000E+03	8.861304E-15	7.637068E-17
6.510000E+03	9.048361E-15	8.206873E-17
6.520000E+03	9.232988E-15	8.826013E-17
6.530000E+03	9.412398E-15	9.481494E-17
6.540000E+03	9.584170E-15	1.015727E-16
6.550000E+03	9.745493E-15	1.083652E-16
6.560000E+03	9.894132E-15	1.150309E-16
6.570000E+03	1.002774E-14	1.214139E-16
6.580000E+03	1.014388E-14	1.273669E-16
6.590000E+03	1.024076E-14	1.327618E-16
6.600000E+03	1.031640E-14	1.374810E-16
6.610000E+03	1.036958E-14	1.414302E-16
6.620000E+03	1.039972E-14	1.445359E-16
6.630000E+03	1.040638E-14	1.467428E-16
6.640000E+03	1.038986E-14	1.480243E-16
6.650000E+03	1.035071E-14	1.483766E-16
6.660000E+03	1.028992E-14	1.478217E-16
6.670000E+03	1.020845E-14	1.463997E-16
6.680000E+03	1.010803E-14	1.441788E-16
6.690000E+03	9.990245E-15	1.412419E-16
6.700000E+03	9.857063E-15	1.376924E-16
6.710000E+03	9.710242E-15	1.336433E-16
6.720000E+03	9.552039E-15	1.292255E-16
6.730000E+03	9.384510E-15	1.245747E-16
6.740000E+03	9.209579E-15	1.198284E-16
6.750000E+03	9.029338E-15	1.151268E-16
6.760000E+03	8.845605E-15	1.105934E-16
6.770000E+03	8.660433E-15	1.063244E-16
6.780000E+03	8.475266E-15	1.023906E-16
6.790000E+03	8.291989E-15	9.884506E-17
6.800000E+03	8.111887E-15	9.568976E-17
6.810000E+03	7.936092E-15	9.290670E-17
6.820000E+03	7.765767E-15	9.046503E-17
6.830000E+03	7.601789E-15	8.830451E-17
6.840000E+03	7.444895E-15	8.636089E-17
6.850000E+03	7.295767E-15	8.457712E-17
6.860000E+03	7.154650E-15	8.289410E-17
6.870000E+03	7.021937E-15	8.126723E-17
6.880000E+03	6.897855E-15	7.966725E-17
6.890000E+03	6.782552E-15	7.807938E-17
6.900000E+03	6.676111E-15	7.650302E-17
6.910000E+03	6.578606E-15	7.494777E-17
6.920000E+03	6.489721E-15	7.342232E-17
6.930000E+03	6.409382E-15	7.194565E-17
6.940000E+03	6.337217E-15	7.053761E-17
6.950000E+03	6.272740E-15	6.921196E-17
6.960000E+03	6.215643E-15	6.798746E-17
6.970000E+03	6.165362E-15	6.688083E-17
6.980000E+03	6.121350E-15	6.589873E-17
6.990000E+03	6.083112E-15	6.504906E-17
7.000000E+03	6.049916E-15	6.433760E-17
7.010000E+03	6.021281E-15	6.376233E-17
7.020000E+03	5.996421E-15	6.331902E-17
7.030000E+03	5.974845E-15	6.300853E-17
7.040000E+03	5.955845E-15	6.282146E-17
7.050000E+03	5.938796E-15	6.275146E-17
7.060000E+03	5.923088E-15	6.279423E-17
7.070000E+03	5.908153E-15	6.293714E-17
7.080000E+03	5.893443E-15	6.316913E-17
7.090000E+03	5.878455E-15	6.348026E-17
7.100000E+03	5.862833E-15	6.385208E-17
7.110000E+03	5.846054E-15	6.426445E-17
7.120000E+03	5.827962E-15	6.470110E-17
7.130000E+03	5.808334E-15	6.513456E-17
7.140000E+03	5.787101E-15	6.553930E-17
7.150000E+03	5.764183E-15	6.589143E-17
7.160000E+03	5.739900E-15	6.616531E-17
7.170000E+03	5.714195E-15	6.633410E-17
7.180000E+03	5.687321E-15	6.638115E-17
7.190000E+03	5.659483E-15	6.629229E-17
7.200000E+03	5.630971E-15	6.606166E-17
7.210000E+03	5.601936E-15	6.568980E-17
7.220000E+03	5.572590E-15	6.518299E-17
7.230000E+03	5.543144E-15	6.455485E-17
7.240000E+03	5.513801E-15	6.382457E-17
7.250000E+03	5.484802E-15	6.301255E-17
7.260000E+03	5.456235E-15	6.214170E-17
7.270000E+03	5.428235E-15	6.123643E-17
7.280000E+03	5.400872E-15	6.031281E-17
7.290000E+03	5.374261E-15	5.938771E-17
7.300000E+03	5.348346E-15	5.847636E-17
7.310000E+03	5.323136E-15	5.758714E-17
7.320000E+03	5.298473E-15	5.672680E-17
7.330000E+03	5.274252E-15	5.590095E-17
7.340000E+03	5.250405E-15	5.510333E-17
7.350000E+03	5.226715E-15	5.432533E-17
7.360000E+03	5.203118E-15	5.356067E-17
7.370000E+03	5.179438E-15	5.279429E-17
7.380000E+03	5.155653E-15	5.201622E-17
7.390000E+03	5.131629E-15	5.122299E-17
7.400000E+03	5.107405E-15	5.041614E-17
7.410000E+03	5.082978E-15	4.960633E-17
7.420000E+03	5.058292E-15	4.881376E-17
7.430000E+03	5.033459E-15	4.806482E-17
7.440000E+03	5.008475E-15	4.739228E-17
7.450000E+03	4.983491E-15	4.682952E-17
7.460000E+03	4.958570E-15	4.639202E-17
7.470000E+03	4.933861E-15	4.609103E-17
7.480000E+03	4.909581E-15	4.593086E-17
7.490000E+03	4.885885E-15	4.589194E-17
7.500000E+03	4.862797E-15	4.594606E-17
7.510000E+03	4.840580E-15	4.606274E-17
7.520000E+03	4.819266E-15	4.619380E-17
7.530000E+03	4.798931E-15	4.628958E-17
7.540000E+03	4.779607E-15	4.630230E-17
7.550000E+03	4.761572E-15	4.618242E-17
7.560000E+03	4.744929E-15	4.588269E-17
7.570000E+03	4.729762E-15	4.536455E-17
7.580000E+03	4.716263E-15	4.459870E-17
7.590000E+03	4.704533E-15	4.356386E-17
7.600000E+03	4.694583E-15	4.224717E-17
7.610000E+03	4.686515E-15	4.064609E-17
7.620000E+03	4.680332E-15	3.876736E-17
7.630000E+03	4.675931E-15	3.662875E-17
7.640000E+03	4.673224E-15	3.426292E-17
7.650000E+03	4.672132E-15	3.172221E-17
7.660000E+03	4.672349E-15	2.908404E-17
7.670000E+03	4.673509E-15	2.646314E-17
7.680000E+03	4.675038E-15	2.402795E-17
7.690000E+03	4.676454E-15	2.201204E-17
7.700000E+03	4.677059E-15	2.068998E-17
7.710000E+03	4.676520E-15	2.029659E-17
7.720000E+03	4.674683E-15	2.086440E-17
7.730000E+03	4.671630E-15	2.218959E-17
7.740000E+03	4.667652E-15	2.399349E-17
7.750000E+03	4.663154E-15	2.603565E-17
7.760000E+03	4.658357E-15	2.814054E-17
