#wls	flux	fluxerr
1.600000E+03	5.293770E-15	6.543349E-16
1.640000E+03	5.405258E-15	6.148903E-16
1.680000E+03	5.517500E-15	5.740972E-16
1.720000E+03	5.630969E-15	5.322607E-16
1.760000E+03	5.744889E-15	4.896285E-16
1.800000E+03	5.858237E-15	4.465454E-16
1.840000E+03	5.969730E-15	4.034941E-16
1.880000E+03	6.079042E-15	3.612188E-16
1.920000E+03	6.184623E-15	3.206337E-16
1.960000E+03	6.283823E-15	2.829466E-16
2.000000E+03	6.378008E-15	2.499394E-16
2.040000E+03	6.465764E-15	2.235388E-16
2.080000E+03	6.549219E-15	2.056362E-16
2.120000E+03	6.629058E-15	1.967959E-16
2.160000E+03	6.709078E-15	1.955222E-16
2.200000E+03	6.794099E-15	1.994267E-16
2.240000E+03	6.887362E-15	2.064960E-16
2.280000E+03	6.994531E-15	2.154216E-16
2.320000E+03	7.116445E-15	2.247578E-16
2.360000E+03	7.256645E-15	2.330409E-16
2.400000E+03	7.409648E-15	2.388091E-16
2.440000E+03	7.576798E-15	2.414017E-16
2.480000E+03	7.753496E-15	2.408677E-16
2.520000E+03	7.937467E-15	2.386071E-16
2.560000E+03	8.125543E-15	2.375763E-16
2.600000E+03	8.317231E-15	2.421559E-16
2.640000E+03	8.513467E-15	2.565031E-16
2.680000E+03	8.711507E-15	2.815404E-16
2.720000E+03	8.912536E-15	3.150322E-16
2.760000E+03	9.119809E-15	3.536682E-16
2.800000E+03	9.334416E-15	3.942178E-16
2.840000E+03	9.562889E-15	4.342501E-16
2.880000E+03	9.812292E-15	4.719639E-16
2.920000E+03	1.008824E-14	5.059467E-16
2.960000E+03	1.039588E-14	5.350620E-16
3.000000E+03	1.074381E-14	5.585325E-16
3.010000E+03	1.083764E-14	5.634141E-16
3.020000E+03	1.093510E-14	5.679124E-16
3.030000E+03	1.103479E-14	5.719379E-16
3.040000E+03	1.113671E-14	5.754736E-16
3.050000E+03	1.124226E-14	5.785748E-16
3.060000E+03	1.135002E-14	5.811511E-16
3.070000E+03	1.146277E-14	5.833283E-16
3.080000E+03	1.157767E-14	5.849432E-16
3.090000E+03	1.169465E-14	5.859771E-16
3.100000E+03	1.181648E-14	5.865516E-16
3.110000E+03	1.194025E-14	5.865047E-16
3.120000E+03	1.206869E-14	5.859545E-16
3.130000E+03	1.219886E-14	5.847404E-16
3.140000E+03	1.233201E-14	5.829096E-16
3.150000E+03	1.246942E-14	5.805054E-16
3.160000E+03	1.260805E-14	5.773712E-16
3.170000E+03	1.275053E-14	5.736153E-16
3.180000E+03	1.289517E-14	5.691483E-16
3.190000E+03	1.304171E-14	5.639470E-16
3.200000E+03	1.319123E-14	5.580498E-16
3.210000E+03	1.334339E-14	5.514311E-16
3.220000E+03	1.349491E-14	5.439506E-16
3.230000E+03	1.364965E-14	5.357625E-16
3.240000E+03	1.380425E-14	5.267313E-16
3.250000E+03	1.395958E-14	5.168956E-16
3.260000E+03	1.411506E-14	5.062391E-16
3.270000E+03	1.427003E-14	4.947489E-16
3.280000E+03	1.442379E-14	4.824168E-16
3.290000E+03	1.457557E-14	4.692395E-16
3.300000E+03	1.472458E-14	4.552202E-16
3.310000E+03	1.486993E-14	4.403696E-16
3.320000E+03	1.501216E-14	4.247471E-16
3.330000E+03	1.515028E-14	4.083762E-16
3.340000E+03	1.528189E-14	3.912564E-16
3.350000E+03	1.540596E-14	3.734432E-16
3.360000E+03	1.552424E-14	3.550723E-16
3.370000E+03	1.563285E-14	3.361633E-16
3.380000E+03	1.573213E-14	3.168587E-16
3.390000E+03	1.582237E-14	2.973206E-16
3.400000E+03	1.589978E-14	2.776665E-16
3.410000E+03	1.596606E-14	2.581579E-16
3.420000E+03	1.602022E-14	2.390524E-16
3.430000E+03	1.606000E-14	2.206515E-16
3.440000E+03	1.608456E-14	2.033516E-16
3.450000E+03	1.609571E-14	1.876529E-16
3.460000E+03	1.609011E-14	1.740518E-16
3.470000E+03	1.606960E-14	1.631221E-16
3.480000E+03	1.603097E-14	1.553104E-16
3.490000E+03	1.597588E-14	1.509061E-16
3.500000E+03	1.590374E-14	1.498237E-16
3.510000E+03	1.581335E-14	1.515816E-16
3.520000E+03	1.570623E-14	1.554922E-16
3.530000E+03	1.558299E-14	1.608061E-16
3.540000E+03	1.544448E-14	1.668455E-16
3.550000E+03	1.529174E-14	1.730604E-16
3.560000E+03	1.512600E-14	1.790370E-16
3.570000E+03	1.494959E-14	1.844960E-16
3.580000E+03	1.476295E-14	1.892334E-16
3.590000E+03	1.456945E-14	1.931588E-16
3.600000E+03	1.436873E-14	1.961925E-16
3.610000E+03	1.416323E-14	1.983359E-16
3.620000E+03	1.395529E-14	1.996230E-16
3.630000E+03	1.374547E-14	2.000879E-16
3.640000E+03	1.353599E-14	1.998065E-16
3.650000E+03	1.332733E-14	1.988429E-16
3.660000E+03	1.312226E-14	1.973033E-16
3.670000E+03	1.292039E-14	1.952535E-16
3.680000E+03	1.272421E-14	1.928041E-16
3.690000E+03	1.253458E-14	1.900417E-16
3.700000E+03	1.235102E-14	1.870286E-16
3.710000E+03	1.217616E-14	1.838682E-16
3.720000E+03	1.200987E-14	1.806132E-16
3.730000E+03	1.185250E-14	1.773138E-16
3.740000E+03	1.170422E-14	1.740064E-16
3.750000E+03	1.156505E-14	1.707164E-16
3.760000E+03	1.143593E-14	1.674768E-16
3.770000E+03	1.131549E-14	1.642842E-16
3.780000E+03	1.120393E-14	1.611565E-16
3.790000E+03	1.110085E-14	1.581032E-16
3.800000E+03	1.100579E-14	1.551336E-16
3.810000E+03	1.091874E-14	1.522631E-16
3.820000E+03	1.083869E-14	1.494927E-16
3.830000E+03	1.076599E-14	1.468395E-16
3.840000E+03	1.069914E-14	1.442928E-16
3.850000E+03	1.063800E-14	1.418557E-16
3.860000E+03	1.058195E-14	1.395200E-16
3.870000E+03	1.053039E-14	1.372734E-16
3.880000E+03	1.048312E-14	1.351057E-16
3.890000E+03	1.043919E-14	1.329950E-16
3.900000E+03	1.039842E-14	1.309296E-16
3.910000E+03	1.036033E-14	1.288949E-16
3.920000E+03	1.032411E-14	1.268749E-16
3.930000E+03	1.028975E-14	1.248666E-16
3.940000E+03	1.025725E-14	1.228708E-16
3.950000E+03	1.022567E-14	1.208798E-16
3.960000E+03	1.019514E-14	1.189004E-16
3.970000E+03	1.016549E-14	1.169359E-16
3.980000E+03	1.013662E-14	1.149886E-16
3.990000E+03	1.010875E-14	1.130636E-16
4.000000E+03	1.008125E-14	1.111560E-16
4.010000E+03	1.005469E-14	1.092749E-16
4.020000E+03	1.002850E-14	1.074186E-16
4.030000E+03	1.000299E-14	1.055965E-16
4.040000E+03	9.978411E-15	1.038192E-16
4.050000E+03	9.954203E-15	1.020891E-16
4.060000E+03	9.930312E-15	1.004135E-16
4.070000E+03	9.906883E-15	9.879863E-17
4.080000E+03	9.883743E-15	9.724348E-17
4.090000E+03	9.860191E-15	9.573602E-17
4.100000E+03	9.836474E-15	9.426605E-17
4.110000E+03	9.811884E-15	9.280642E-17
4.120000E+03	9.786462E-15	9.132944E-17
4.130000E+03	9.759877E-15	8.979637E-17
4.140000E+03	9.731918E-15	8.816507E-17
4.150000E+03	9.703139E-15	8.639880E-17
4.160000E+03	9.673161E-15	8.445317E-17
4.170000E+03	9.642581E-15	8.229629E-17
4.180000E+03	9.611873E-15	7.990072E-17
4.190000E+03	9.581392E-15	7.724389E-17
4.200000E+03	9.551555E-15	7.430974E-17
4.210000E+03	9.522994E-15	7.108870E-17
4.220000E+03	9.496146E-15	6.757439E-17
4.230000E+03	9.471597E-15	6.377043E-17
4.240000E+03	9.449686E-15	5.969455E-17
4.250000E+03	9.430845E-15	5.539314E-17
4.260000E+03	9.415083E-15	5.096082E-17
4.270000E+03	9.402682E-15	4.657808E-17
4.280000E+03	9.393692E-15	4.255259E-17
4.290000E+03	9.388297E-15	3.936234E-17
4.300000E+03	9.386319E-15	3.762311E-17
4.310000E+03	9.387595E-15	3.787210E-17
4.320000E+03	9.391292E-15	4.016081E-17
4.330000E+03	9.395785E-15	4.398844E-17
4.340000E+03	9.399204E-15	4.870380E-17
4.350000E+03	9.400017E-15	5.375967E-17
4.360000E+03	9.396847E-15	5.876483E-17
4.370000E+03	9.388678E-15	6.345734E-17
4.380000E+03	9.374994E-15	6.766945E-17
4.390000E+03	9.355061E-15	7.129594E-17
4.400000E+03	9.329170E-15	7.428582E-17
4.410000E+03	9.297332E-15	7.662259E-17
4.420000E+03	9.259787E-15	7.832100E-17
4.430000E+03	9.217212E-15	7.942360E-17
4.440000E+03	9.170257E-15	7.999225E-17
4.450000E+03	9.119489E-15	8.010244E-17
4.460000E+03	9.066084E-15	7.984359E-17
4.470000E+03	9.010874E-15	7.930505E-17
4.480000E+03	8.955031E-15	7.857588E-17
4.490000E+03	8.899174E-15	7.773181E-17
4.500000E+03	8.844103E-15	7.683928E-17
4.510000E+03	8.790220E-15	7.594935E-17
4.520000E+03	8.737912E-15	7.510089E-17
4.530000E+03	8.687236E-15	7.431932E-17
4.540000E+03	8.638630E-15	7.362447E-17
4.550000E+03	8.591919E-15	7.302347E-17
4.560000E+03	8.547131E-15	7.251949E-17
4.570000E+03	8.504502E-15	7.211301E-17
4.580000E+03	8.463944E-15	7.179819E-17
4.590000E+03	8.425492E-15	7.156813E-17
4.600000E+03	8.389203E-15	7.141513E-17
4.610000E+03	8.355154E-15	7.133168E-17
4.620000E+03	8.323339E-15	7.131089E-17
4.630000E+03	8.293982E-15	7.135016E-17
4.640000E+03	8.267219E-15	7.144899E-17
4.650000E+03	8.243197E-15	7.161061E-17
4.660000E+03	8.221973E-15	7.184126E-17
4.670000E+03	8.203704E-15	7.215174E-17
4.680000E+03	8.188642E-15	7.255723E-17
4.690000E+03	8.176728E-15	7.307319E-17
4.700000E+03	8.168281E-15	7.372049E-17
4.710000E+03	8.163301E-15	7.451831E-17
4.720000E+03	8.161854E-15	7.548625E-17
4.730000E+03	8.163966E-15	7.664185E-17
4.740000E+03	8.169522E-15	7.799823E-17
4.750000E+03	8.178448E-15	7.956438E-17
4.760000E+03	8.190507E-15	8.134149E-17
4.770000E+03	8.205583E-15	8.332456E-17
4.780000E+03	8.223195E-15	8.549637E-17
4.790000E+03	8.243076E-15	8.783247E-17
4.800000E+03	8.264602E-15	9.029529E-17
4.810000E+03	8.287189E-15	9.283875E-17
4.820000E+03	8.310404E-15	9.541064E-17
4.830000E+03	8.333493E-15	9.794911E-17
4.840000E+03	8.355875E-15	1.003906E-16
4.850000E+03	8.376676E-15	1.026665E-16
4.860000E+03	8.395323E-15	1.047133E-16
4.870000E+03	8.411184E-15	1.064711E-16
4.880000E+03	8.423590E-15	1.078858E-16
4.890000E+03	8.432132E-15	1.089154E-16
4.900000E+03	8.436193E-15	1.095248E-16
4.910000E+03	8.435535E-15	1.096950E-16
4.920000E+03	8.429825E-15	1.094169E-16
4.930000E+03	8.419021E-15	1.086964E-16
4.940000E+03	8.402911E-15	1.075478E-16
4.950000E+03	8.381684E-15	1.060002E-16
4.960000E+03	8.355554E-15	1.040913E-16
4.970000E+03	8.324754E-15	1.018659E-16
4.980000E+03	8.289794E-15	9.937786E-17
4.990000E+03	8.250959E-15	9.668327E-17
5.000000E+03	8.208930E-15	9.384598E-17
5.010000E+03	8.164032E-15	9.092708E-17
5.020000E+03	8.116868E-15	8.798968E-17
5.030000E+03	8.067943E-15	8.509155E-17
5.040000E+03	8.017755E-15	8.228312E-17
5.050000E+03	7.966792E-15	7.960468E-17
5.060000E+03	7.915442E-15	7.708378E-17
5.070000E+03	7.864258E-15	7.473830E-17
5.080000E+03	7.813614E-15	7.257466E-17
5.090000E+03	7.764136E-15	7.059378E-17
5.100000E+03	7.716106E-15	6.878798E-17
5.110000E+03	7.669971E-15	6.714745E-17
5.120000E+03	7.626329E-15	6.566131E-17
5.130000E+03	7.585421E-15	6.431459E-17
5.140000E+03	7.547610E-15	6.309319E-17
5.150000E+03	7.513356E-15	6.198383E-17
5.160000E+03	7.482798E-15	6.097107E-17
5.170000E+03	7.455983E-15	6.003934E-17
5.180000E+03	7.433011E-15	5.917402E-17
5.190000E+03	7.413887E-15	5.836053E-17
5.200000E+03	7.398288E-15	5.758281E-17
5.210000E+03	7.386053E-15	5.682706E-17
5.220000E+03	7.376962E-15	5.608040E-17
5.230000E+03	7.370524E-15	5.532921E-17
5.240000E+03	7.366536E-15	5.456267E-17
5.250000E+03	7.364549E-15	5.376833E-17
5.260000E+03	7.364192E-15	5.293342E-17
5.270000E+03	7.365090E-15	5.204286E-17
5.280000E+03	7.366865E-15	5.107891E-17
5.290000E+03	7.369204E-15	5.002112E-17
5.300000E+03	7.371620E-15	4.884427E-17
5.310000E+03	7.373679E-15	4.752172E-17
5.320000E+03	7.374917E-15	4.602645E-17
5.330000E+03	7.374918E-15	4.433342E-17
5.340000E+03	7.373096E-15	4.242258E-17
5.350000E+03	7.368930E-15	4.028492E-17
5.360000E+03	7.361915E-15	3.792944E-17
5.370000E+03	7.351640E-15	3.539855E-17
5.380000E+03	7.337517E-15	3.278666E-17
5.390000E+03	7.319323E-15	3.026820E-17
5.400000E+03	7.296690E-15	2.812257E-17
5.410000E+03	7.269421E-15	2.672731E-17
5.420000E+03	7.237466E-15	2.644631E-17
5.430000E+03	7.201052E-15	2.738095E-17
5.440000E+03	7.160663E-15	2.925536E-17
5.450000E+03	7.117145E-15	3.166516E-17
5.460000E+03	7.071087E-15	3.426508E-17
5.470000E+03	7.023203E-15	3.682128E-17
5.480000E+03	6.974289E-15	3.919627E-17
5.490000E+03	6.924721E-15	4.131871E-17
5.500000E+03	6.875147E-15	4.316372E-17
5.510000E+03	6.825997E-15	4.473283E-17
5.520000E+03	6.777554E-15	4.604320E-17
5.530000E+03	6.730099E-15	4.712092E-17
5.540000E+03	6.683919E-15	4.799558E-17
5.550000E+03	6.639112E-15	4.869598E-17
5.560000E+03	6.595941E-15	4.925079E-17
5.570000E+03	6.554382E-15	4.968394E-17
5.580000E+03	6.514602E-15	5.001802E-17
5.590000E+03	6.476711E-15	5.027261E-17
5.600000E+03	6.440840E-15	5.046476E-17
5.610000E+03	6.407148E-15	5.060964E-17
5.620000E+03	6.375830E-15	5.072090E-17
5.630000E+03	6.347181E-15	5.081118E-17
5.640000E+03	6.321403E-15	5.089101E-17
5.650000E+03	6.298851E-15	5.097091E-17
5.660000E+03	6.279777E-15	5.105920E-17
5.670000E+03	6.264500E-15	5.116368E-17
5.680000E+03	6.253399E-15	5.129162E-17
5.690000E+03	6.246709E-15	5.144797E-17
5.700000E+03	6.244697E-15	5.163711E-17
5.710000E+03	6.247648E-15	5.186284E-17
5.720000E+03	6.255668E-15	5.212671E-17
5.730000E+03	6.268859E-15	5.242977E-17
5.740000E+03	6.287241E-15	5.277210E-17
5.750000E+03	6.310812E-15	5.315320E-17
5.760000E+03	6.339347E-15	5.357074E-17
5.770000E+03	6.372519E-15	5.402170E-17
5.780000E+03	6.410082E-15	5.450385E-17
5.790000E+03	6.451498E-15	5.501293E-17
5.800000E+03	6.496126E-15	5.554415E-17
5.810000E+03	6.543359E-15	5.609303E-17
5.820000E+03	6.592441E-15	5.665360E-17
5.830000E+03	6.642548E-15	5.721858E-17
5.840000E+03	6.692734E-15	5.777826E-17
5.850000E+03	6.742078E-15	5.832140E-17
5.860000E+03	6.789703E-15	5.883505E-17
5.870000E+03	6.834602E-15	5.930296E-17
5.880000E+03	6.875860E-15	5.970818E-17
5.890000E+03	6.912676E-15	6.003423E-17
5.900000E+03	6.944133E-15	6.026404E-17
5.910000E+03	6.969627E-15	6.038495E-17
5.920000E+03	6.988563E-15	6.038716E-17
5.930000E+03	7.000724E-15	6.026736E-17
5.940000E+03	7.005760E-15	6.002453E-17
5.950000E+03	7.003881E-15	5.966553E-17
5.960000E+03	6.995335E-15	5.919978E-17
5.970000E+03	6.980674E-15	5.864089E-17
5.980000E+03	6.960684E-15	5.800514E-17
5.990000E+03	6.936362E-15	5.731022E-17
6.000000E+03	6.908828E-15	5.657385E-17
6.010000E+03	6.879420E-15	5.581382E-17
6.020000E+03	6.849664E-15	5.504711E-17
6.030000E+03	6.820967E-15	5.428746E-17
6.040000E+03	6.794982E-15	5.354837E-17
6.050000E+03	6.773307E-15	5.284061E-17
6.060000E+03	6.757398E-15	5.217175E-17
6.070000E+03	6.748924E-15	5.154895E-17
6.080000E+03	6.749226E-15	5.097433E-17
6.090000E+03	6.759687E-15	5.044776E-17
6.100000E+03	6.781505E-15	4.996473E-17
6.110000E+03	6.815866E-15	4.951680E-17
6.120000E+03	6.863579E-15	4.908850E-17
6.130000E+03	6.925362E-15	4.865870E-17
6.140000E+03	7.001585E-15	4.819784E-17
6.150000E+03	7.092198E-15	4.766747E-17
6.160000E+03	7.196837E-15	4.702117E-17
6.170000E+03	7.314364E-15	4.620198E-17
6.180000E+03	7.443082E-15	4.514640E-17
6.190000E+03	7.580584E-15	4.378735E-17
6.200000E+03	7.723390E-15	4.205847E-17
6.210000E+03	7.867193E-15	3.990764E-17
6.220000E+03	8.006168E-15	3.731179E-17
6.230000E+03	8.133498E-15	3.430843E-17
6.240000E+03	8.241016E-15	3.103933E-17
6.250000E+03	8.320255E-15	2.781701E-17
6.260000E+03	8.362699E-15	2.517765E-17
6.270000E+03	8.361561E-15	2.380508E-17
6.280000E+03	8.315106E-15	2.409624E-17
6.290000E+03	8.229536E-15	2.569072E-17
6.300000E+03	8.116012E-15	2.790001E-17
6.310000E+03	7.986661E-15	3.020169E-17
6.320000E+03	7.852411E-15	3.233177E-17
6.330000E+03	7.722590E-15	3.421359E-17
6.340000E+03	7.604626E-15	3.587039E-17
6.350000E+03	7.503921E-15	3.736353E-17
6.360000E+03	7.423951E-15	3.876284E-17
6.370000E+03	7.367190E-15	4.013517E-17
6.380000E+03	7.334920E-15	4.153357E-17
6.390000E+03	7.327577E-15	4.299967E-17
6.400000E+03	7.345117E-15	4.456971E-17
6.410000E+03	7.387138E-15	4.627781E-17
6.420000E+03	7.452734E-15	4.815917E-17
6.430000E+03	7.540681E-15	5.025438E-17
6.440000E+03	7.649601E-15	5.261137E-17
6.450000E+03	7.777651E-15	5.528374E-17
6.460000E+03	7.922740E-15	5.832967E-17
6.470000E+03	8.082284E-15	6.180420E-17
6.480000E+03	8.253628E-15	6.575546E-17
6.490000E+03	8.433777E-15	7.021390E-17
6.500000E+03	8.619363E-15	7.518234E-17
6.510000E+03	8.807273E-15	8.063474E-17
6.520000E+03	8.994236E-15	8.650921E-17
6.530000E+03	9.177186E-15	9.271146E-17
6.540000E+03	9.353106E-15	9.911960E-17
6.550000E+03	9.519214E-15	1.055956E-16
6.560000E+03	9.672877E-15	1.119937E-16
6.570000E+03	9.811621E-15	1.181676E-16
6.580000E+03	9.932951E-15	1.239747E-16
6.590000E+03	1.003494E-14	1.292864E-16
6.600000E+03	1.011578E-14	1.339863E-16
6.610000E+03	1.017409E-14	1.379752E-16
6.620000E+03	1.020902E-14	1.411746E-16
6.630000E+03	1.022029E-14	1.435301E-16
6.640000E+03	1.020800E-14	1.450097E-16
6.650000E+03	1.017265E-14	1.456061E-16
6.660000E+03	1.011523E-14	1.453381E-16
6.670000E+03	1.003673E-14	1.442427E-16
6.680000E+03	9.938853E-15	1.423853E-16
6.690000E+03	9.823212E-15	1.398455E-16
6.700000E+03	9.691696E-15	1.367208E-16
6.710000E+03	9.546420E-15	1.331233E-16
6.720000E+03	9.389348E-15	1.291707E-16
6.730000E+03	9.222678E-15	1.249878E-16
6.740000E+03	9.048274E-15	1.206938E-16
6.750000E+03	8.868363E-15	1.164064E-16
6.760000E+03	8.684885E-15	1.122272E-16
6.770000E+03	8.499583E-15	1.082379E-16
6.780000E+03	8.314080E-15	1.044988E-16
6.790000E+03	8.130233E-15	1.010513E-16
6.800000E+03	7.949166E-15	9.790646E-17
6.810000E+03	7.772219E-15	9.505956E-17
6.820000E+03	7.600550E-15	9.248906E-17
6.830000E+03	7.434976E-15	9.015952E-17
6.840000E+03	7.276245E-15	8.803054E-17
6.850000E+03	7.124958E-15	8.606093E-17
6.860000E+03	6.981576E-15	8.421287E-17
6.870000E+03	6.846520E-15	8.245626E-17
6.880000E+03	6.719858E-15	8.076664E-17
6.890000E+03	6.601802E-15	7.913150E-17
6.900000E+03	6.492466E-15	7.754660E-17
6.910000E+03	6.391643E-15	7.601169E-17
6.920000E+03	6.299341E-15	7.453507E-17
6.930000E+03	6.215261E-15	7.312548E-17
6.940000E+03	6.139027E-15	7.179332E-17
6.950000E+03	6.070420E-15	7.055174E-17
6.960000E+03	6.008941E-15	6.941041E-17
6.970000E+03	5.954049E-15	6.837740E-17
6.980000E+03	5.905378E-15	6.746093E-17
6.990000E+03	5.862313E-15	6.666426E-17
7.000000E+03	5.824217E-15	6.598819E-17
7.010000E+03	5.790649E-15	6.543355E-17
7.020000E+03	5.760941E-15	6.499676E-17
7.030000E+03	5.734494E-15	6.467345E-17
7.040000E+03	5.710641E-15	6.445705E-17
7.050000E+03	5.688939E-15	6.434219E-17
7.060000E+03	5.668752E-15	6.431999E-17
7.070000E+03	5.649544E-15	6.438098E-17
7.080000E+03	5.630812E-15	6.451433E-17
7.090000E+03	5.612100E-15	6.470760E-17
7.100000E+03	5.593007E-15	6.494658E-17
7.110000E+03	5.573266E-15	6.521616E-17
7.120000E+03	5.552473E-15	6.549723E-17
7.130000E+03	5.530514E-15	6.577177E-17
7.140000E+03	5.507349E-15	6.602112E-17
7.150000E+03	5.482875E-15	6.622502E-17
7.160000E+03	5.457122E-15	6.636506E-17
7.170000E+03	5.430174E-15	6.642494E-17
7.180000E+03	5.402156E-15	6.639163E-17
7.190000E+03	5.373291E-15	6.625700E-17
7.200000E+03	5.343614E-15	6.601505E-17
7.210000E+03	5.313514E-15	6.566886E-17
7.220000E+03	5.282970E-15	6.522102E-17
7.230000E+03	5.252301E-15	6.468245E-17
7.240000E+03	5.221609E-15	6.406472E-17
7.250000E+03	5.191119E-15	6.338316E-17
7.260000E+03	5.160899E-15	6.265231E-17
7.270000E+03	5.131129E-15	6.188806E-17
7.280000E+03	5.101891E-15	6.110403E-17
7.290000E+03	5.073171E-15	6.031112E-17
7.300000E+03	5.045056E-15	5.951933E-17
7.310000E+03	5.017536E-15	5.873506E-17
7.320000E+03	4.990510E-15	5.796095E-17
7.330000E+03	4.964052E-15	5.719884E-17
7.340000E+03	4.938026E-15	5.644529E-17
7.350000E+03	4.912357E-15	5.569545E-17
7.360000E+03	4.887036E-15	5.494403E-17
7.370000E+03	4.861936E-15	5.418433E-17
7.380000E+03	4.837074E-15	5.341284E-17
7.390000E+03	4.812356E-15	5.262777E-17
7.400000E+03	4.787774E-15	5.183232E-17
7.410000E+03	4.763408E-15	5.103521E-17
7.420000E+03	4.739292E-15	5.024908E-17
7.430000E+03	4.715356E-15	4.948867E-17
7.440000E+03	4.691742E-15	4.877223E-17
7.450000E+03	4.668547E-15	4.811620E-17
7.460000E+03	4.645885E-15	4.753317E-17
7.470000E+03	4.623946E-15	4.703062E-17
7.480000E+03	4.602800E-15	4.660748E-17
7.490000E+03	4.582583E-15	4.625527E-17
7.500000E+03	4.563425E-15	4.595766E-17
7.510000E+03	4.545449E-15	4.569122E-17
7.520000E+03	4.528708E-15	4.542590E-17
7.530000E+03	4.513434E-15	4.512932E-17
7.540000E+03	4.499554E-15	4.476366E-17
7.550000E+03	4.487303E-15	4.429344E-17
7.560000E+03	4.476731E-15	4.368273E-17
7.570000E+03	4.467999E-15	4.289979E-17
7.580000E+03	4.461071E-15	4.191522E-17
7.590000E+03	4.456069E-15	4.070683E-17
7.600000E+03	4.452957E-15	3.925759E-17
7.610000E+03	4.451843E-15	3.755909E-17
7.620000E+03	4.452541E-15	3.560924E-17
7.630000E+03	4.454925E-15	3.341738E-17
7.640000E+03	4.458855E-15	3.100625E-17
7.650000E+03	4.463977E-15	2.841549E-17
7.660000E+03	4.469939E-15	2.571137E-17
7.670000E+03	4.476136E-15	2.300028E-17
7.680000E+03	4.481966E-15	2.045727E-17
7.690000E+03	4.486609E-15	1.835521E-17
7.700000E+03	4.489273E-15	1.706053E-17
7.710000E+03	4.489290E-15	1.690303E-17
7.720000E+03	4.486519E-15	1.790656E-17
7.730000E+03	4.481203E-15	1.975868E-17
7.740000E+03	4.473889E-15	2.208097E-17
7.750000E+03	4.465031E-15	2.458594E-17
7.760000E+03	4.455107E-15	2.709432E-17
