#wls	flux	fluxerr
1.600000E+03	5.041099E-15	6.436150E-16
1.640000E+03	5.145169E-15	6.074460E-16
1.680000E+03	5.249319E-15	5.700503E-16
1.720000E+03	5.351893E-15	5.315276E-16
1.760000E+03	5.454145E-15	4.923610E-16
1.800000E+03	5.553192E-15	4.527290E-16
1.840000E+03	5.650230E-15	4.133107E-16
1.880000E+03	5.744474E-15	3.747523E-16
1.920000E+03	5.835306E-15	3.379159E-16
1.960000E+03	5.921348E-15	3.038680E-16
2.000000E+03	6.005033E-15	2.741239E-16
2.040000E+03	6.086207E-15	2.501955E-16
2.080000E+03	6.167681E-15	2.335455E-16
2.120000E+03	6.251691E-15	2.247096E-16
2.160000E+03	6.340588E-15	2.227163E-16
2.200000E+03	6.438245E-15	2.258408E-16
2.240000E+03	6.547789E-15	2.323683E-16
2.280000E+03	6.670946E-15	2.408520E-16
2.320000E+03	6.812441E-15	2.500360E-16
2.360000E+03	6.969551E-15	2.584946E-16
2.400000E+03	7.143600E-15	2.653218E-16
2.440000E+03	7.333386E-15	2.700821E-16
2.480000E+03	7.537870E-15	2.731055E-16
2.520000E+03	7.757824E-15	2.757504E-16
2.560000E+03	7.995045E-15	2.804668E-16
2.600000E+03	8.251276E-15	2.904816E-16
2.640000E+03	8.531211E-15	3.088865E-16
2.680000E+03	8.834165E-15	3.365917E-16
2.720000E+03	9.158290E-15	3.722810E-16
2.760000E+03	9.503303E-15	4.136585E-16
2.800000E+03	9.867108E-15	4.580821E-16
2.840000E+03	1.025110E-14	5.031631E-16
2.880000E+03	1.065710E-14	5.467644E-16
2.920000E+03	1.108545E-14	5.868927E-16
2.960000E+03	1.153710E-14	6.217682E-16
3.000000E+03	1.201456E-14	6.498437E-16
3.010000E+03	1.213717E-14	6.555732E-16
3.020000E+03	1.226159E-14	6.607683E-16
3.030000E+03	1.238626E-14	6.653227E-16
3.040000E+03	1.251250E-14	6.692854E-16
3.050000E+03	1.264015E-14	6.726277E-16
3.060000E+03	1.276906E-14	6.753207E-16
3.070000E+03	1.289904E-14	6.773355E-16
3.080000E+03	1.302846E-14	6.785682E-16
3.090000E+03	1.315999E-14	6.791422E-16
3.100000E+03	1.329197E-14	6.789534E-16
3.110000E+03	1.342414E-14	6.779745E-16
3.120000E+03	1.355623E-14	6.761792E-16
3.130000E+03	1.368796E-14	6.735419E-16
3.140000E+03	1.381901E-14	6.700382E-16
3.150000E+03	1.395051E-14	6.657142E-16
3.160000E+03	1.408064E-14	6.604772E-16
3.170000E+03	1.421049E-14	6.543742E-16
3.180000E+03	1.433820E-14	6.473186E-16
3.190000E+03	1.446479E-14	6.393593E-16
3.200000E+03	1.458839E-14	6.304177E-16
3.210000E+03	1.470997E-14	6.205455E-16
3.220000E+03	1.482903E-14	6.097325E-16
3.230000E+03	1.494509E-14	5.979726E-16
3.240000E+03	1.505619E-14	5.852088E-16
3.250000E+03	1.516463E-14	5.715552E-16
3.260000E+03	1.526705E-14	5.569122E-16
3.270000E+03	1.536571E-14	5.413971E-16
3.280000E+03	1.545863E-14	5.249768E-16
3.290000E+03	1.554526E-14	5.076777E-16
3.300000E+03	1.562641E-14	4.895765E-16
3.310000E+03	1.570016E-14	4.706680E-16
3.320000E+03	1.576732E-14	4.510410E-16
3.330000E+03	1.582605E-14	4.307129E-16
3.340000E+03	1.587848E-14	4.098219E-16
3.350000E+03	1.592151E-14	3.883735E-16
3.360000E+03	1.595475E-14	3.664631E-16
3.370000E+03	1.598039E-14	3.442561E-16
3.380000E+03	1.599805E-14	3.218686E-16
3.390000E+03	1.600493E-14	2.993927E-16
3.400000E+03	1.600331E-14	2.770497E-16
3.410000E+03	1.599178E-14	2.550228E-16
3.420000E+03	1.597026E-14	2.335666E-16
3.430000E+03	1.594108E-14	2.130269E-16
3.440000E+03	1.590188E-14	1.937571E-16
3.450000E+03	1.585390E-14	1.762530E-16
3.460000E+03	1.579724E-14	1.610889E-16
3.470000E+03	1.573204E-14	1.489030E-16
3.480000E+03	1.565836E-14	1.402983E-16
3.490000E+03	1.557720E-14	1.356681E-16
3.500000E+03	1.548742E-14	1.349425E-16
3.510000E+03	1.539002E-14	1.375497E-16
3.520000E+03	1.528508E-14	1.426252E-16
3.530000E+03	1.517182E-14	1.492661E-16
3.540000E+03	1.505247E-14	1.567215E-16
3.550000E+03	1.492556E-14	1.643790E-16
3.560000E+03	1.479342E-14	1.718331E-16
3.570000E+03	1.465657E-14	1.787966E-16
3.580000E+03	1.451476E-14	1.850764E-16
3.590000E+03	1.436868E-14	1.905662E-16
3.600000E+03	1.421989E-14	1.952272E-16
3.610000E+03	1.406984E-14	1.990606E-16
3.620000E+03	1.391767E-14	2.020634E-16
3.630000E+03	1.376561E-14	2.042965E-16
3.640000E+03	1.361356E-14	2.058011E-16
3.650000E+03	1.346218E-14	2.066383E-16
3.660000E+03	1.331342E-14	2.068948E-16
3.670000E+03	1.316642E-14	2.066163E-16
3.680000E+03	1.302233E-14	2.058794E-16
3.690000E+03	1.288155E-14	2.047470E-16
3.700000E+03	1.274441E-14	2.032771E-16
3.710000E+03	1.261176E-14	2.015313E-16
3.720000E+03	1.248318E-14	1.995453E-16
3.730000E+03	1.235934E-14	1.973673E-16
3.740000E+03	1.224028E-14	1.950298E-16
3.750000E+03	1.212541E-14	1.925515E-16
3.760000E+03	1.201571E-14	1.899720E-16
3.770000E+03	1.191047E-14	1.873016E-16
3.780000E+03	1.180950E-14	1.845566E-16
3.790000E+03	1.171253E-14	1.817513E-16
3.800000E+03	1.161975E-14	1.789053E-16
3.810000E+03	1.153033E-14	1.760224E-16
3.820000E+03	1.144481E-14	1.731256E-16
3.830000E+03	1.136191E-14	1.702095E-16
3.840000E+03	1.128124E-14	1.672812E-16
3.850000E+03	1.120321E-14	1.643576E-16
3.860000E+03	1.112698E-14	1.614355E-16
3.870000E+03	1.105212E-14	1.585160E-16
3.880000E+03	1.097822E-14	1.555992E-16
3.890000E+03	1.090488E-14	1.526843E-16
3.900000E+03	1.083177E-14	1.497703E-16
3.910000E+03	1.075890E-14	1.468618E-16
3.920000E+03	1.068566E-14	1.439552E-16
3.930000E+03	1.061187E-14	1.410541E-16
3.940000E+03	1.053740E-14	1.381642E-16
3.950000E+03	1.046220E-14	1.352937E-16
3.960000E+03	1.038627E-14	1.324521E-16
3.970000E+03	1.030965E-14	1.296493E-16
3.980000E+03	1.023244E-14	1.268943E-16
3.990000E+03	1.015475E-14	1.241952E-16
4.000000E+03	1.007644E-14	1.215549E-16
4.010000E+03	9.997942E-15	1.189807E-16
4.020000E+03	9.919163E-15	1.164720E-16
4.030000E+03	9.840533E-15	1.140326E-16
4.040000E+03	9.761718E-15	1.116558E-16
4.050000E+03	9.683150E-15	1.093428E-16
4.060000E+03	9.604758E-15	1.070876E-16
4.070000E+03	9.526706E-15	1.048853E-16
4.080000E+03	9.449145E-15	1.027286E-16
4.090000E+03	9.371992E-15	1.006046E-16
4.100000E+03	9.295599E-15	9.850117E-17
4.110000E+03	9.219683E-15	9.639505E-17
4.120000E+03	9.144436E-15	9.426350E-17
4.130000E+03	9.070290E-15	9.208129E-17
4.140000E+03	8.996953E-15	8.981234E-17
4.150000E+03	8.925199E-15	8.742942E-17
4.160000E+03	8.854926E-15	8.489534E-17
4.170000E+03	8.787042E-15	8.218347E-17
4.180000E+03	8.721764E-15	7.926236E-17
4.190000E+03	8.659704E-15	7.610682E-17
4.200000E+03	8.601298E-15	7.269377E-17
4.210000E+03	8.547114E-15	6.900605E-17
4.220000E+03	8.497481E-15	6.503075E-17
4.230000E+03	8.452621E-15	6.076423E-17
4.240000E+03	8.412922E-15	5.621981E-17
4.250000E+03	8.378102E-15	5.143271E-17
4.260000E+03	8.347819E-15	4.648567E-17
4.270000E+03	8.321915E-15	4.154446E-17
4.280000E+03	8.299198E-15	3.690578E-17
4.290000E+03	8.278626E-15	3.307272E-17
4.300000E+03	8.259028E-15	3.076002E-17
4.310000E+03	8.238858E-15	3.064318E-17
4.320000E+03	8.217150E-15	3.279320E-17
4.330000E+03	8.194004E-15	3.657899E-17
4.340000E+03	8.169358E-15	4.123356E-17
4.350000E+03	8.143215E-15	4.617453E-17
4.360000E+03	8.115523E-15	5.102741E-17
4.370000E+03	8.086241E-15	5.556455E-17
4.380000E+03	8.055494E-15	5.965305E-17
4.390000E+03	8.023217E-15	6.321930E-17
4.400000E+03	7.989550E-15	6.623243E-17
4.410000E+03	7.954829E-15	6.869336E-17
4.420000E+03	7.919225E-15	7.062483E-17
4.430000E+03	7.883208E-15	7.207027E-17
4.440000E+03	7.846948E-15	7.308450E-17
4.450000E+03	7.811096E-15	7.373641E-17
4.460000E+03	7.775856E-15	7.409620E-17
4.470000E+03	7.741851E-15	7.423951E-17
4.480000E+03	7.709215E-15	7.423379E-17
4.490000E+03	7.678345E-15	7.414114E-17
4.500000E+03	7.649457E-15	7.401309E-17
4.510000E+03	7.622511E-15	7.388876E-17
4.520000E+03	7.597631E-15	7.379811E-17
4.530000E+03	7.574804E-15	7.376080E-17
4.540000E+03	7.554088E-15	7.378990E-17
4.550000E+03	7.535521E-15	7.389191E-17
4.560000E+03	7.518937E-15	7.406709E-17
4.570000E+03	7.504358E-15	7.431483E-17
4.580000E+03	7.491811E-15	7.463224E-17
4.590000E+03	7.481330E-15	7.501565E-17
4.600000E+03	7.472771E-15	7.545938E-17
4.610000E+03	7.466288E-15	7.596044E-17
4.620000E+03	7.461953E-15	7.651606E-17
4.630000E+03	7.459757E-15	7.712451E-17
4.640000E+03	7.459882E-15	7.778772E-17
4.650000E+03	7.462240E-15	7.850698E-17
4.660000E+03	7.467100E-15	7.928903E-17
4.670000E+03	7.474367E-15	8.013754E-17
4.680000E+03	7.484196E-15	8.105975E-17
4.690000E+03	7.496460E-15	8.206056E-17
4.700000E+03	7.511354E-15	8.314821E-17
4.710000E+03	7.528610E-15	8.432618E-17
4.720000E+03	7.548275E-15	8.560176E-17
4.730000E+03	7.570102E-15	8.697859E-17
4.740000E+03	7.593890E-15	8.846038E-17
4.750000E+03	7.619392E-15	9.004916E-17
4.760000E+03	7.646306E-15	9.174389E-17
4.770000E+03	7.674100E-15	9.353742E-17
4.780000E+03	7.702434E-15	9.542021E-17
4.790000E+03	7.730721E-15	9.737350E-17
4.800000E+03	7.758735E-15	9.937671E-17
4.810000E+03	7.785935E-15	1.013989E-16
4.820000E+03	7.811983E-15	1.034050E-16
4.830000E+03	7.836245E-15	1.053513E-16
4.840000E+03	7.858406E-15	1.071952E-16
4.850000E+03	7.877717E-15	1.088862E-16
4.860000E+03	7.893874E-15	1.103808E-16
4.870000E+03	7.906192E-15	1.116324E-16
4.880000E+03	7.914313E-15	1.126034E-16
4.890000E+03	7.917872E-15	1.132618E-16
4.900000E+03	7.916507E-15	1.135827E-16
4.910000E+03	7.910031E-15	1.135521E-16
4.920000E+03	7.898350E-15	1.131654E-16
4.930000E+03	7.881468E-15	1.124283E-16
4.940000E+03	7.859239E-15	1.113519E-16
4.950000E+03	7.832039E-15	1.099619E-16
4.960000E+03	7.799938E-15	1.082848E-16
4.970000E+03	7.763443E-15	1.063574E-16
4.980000E+03	7.722978E-15	1.042179E-16
4.990000E+03	7.678934E-15	1.019060E-16
5.000000E+03	7.631969E-15	9.946600E-17
5.010000E+03	7.582430E-15	9.693725E-17
5.020000E+03	7.530987E-15	9.436136E-17
5.030000E+03	7.477995E-15	9.177211E-17
5.040000E+03	7.424114E-15	8.920277E-17
5.050000E+03	7.369831E-15	8.667924E-17
5.060000E+03	7.315537E-15	8.422061E-17
5.070000E+03	7.261755E-15	8.184283E-17
5.080000E+03	7.208913E-15	7.955695E-17
5.090000E+03	7.157348E-15	7.736969E-17
5.100000E+03	7.107526E-15	7.528669E-17
5.110000E+03	7.059892E-15	7.331078E-17
5.120000E+03	7.014650E-15	7.143952E-17
5.130000E+03	6.972188E-15	6.967088E-17
5.140000E+03	6.932781E-15	6.800056E-17
5.150000E+03	6.896718E-15	6.642343E-17
5.160000E+03	6.864086E-15	6.493257E-17
5.170000E+03	6.834977E-15	6.352160E-17
5.180000E+03	6.809478E-15	6.218427E-17
5.190000E+03	6.787471E-15	6.091320E-17
5.200000E+03	6.768912E-15	5.970222E-17
5.210000E+03	6.753561E-15	5.854288E-17
5.220000E+03	6.741340E-15	5.742786E-17
5.230000E+03	6.731861E-15	5.634611E-17
5.240000E+03	6.724852E-15	5.528508E-17
5.250000E+03	6.720162E-15	5.423078E-17
5.260000E+03	6.717423E-15	5.316423E-17
5.270000E+03	6.716332E-15	5.206252E-17
5.280000E+03	6.716638E-15	5.089975E-17
5.290000E+03	6.717939E-15	4.964601E-17
5.300000E+03	6.719879E-15	4.826903E-17
5.310000E+03	6.722142E-15	4.673646E-17
5.320000E+03	6.724309E-15	4.501691E-17
5.330000E+03	6.725927E-15	4.308194E-17
5.340000E+03	6.726507E-15	4.090916E-17
5.350000E+03	6.725530E-15	3.848585E-17
5.360000E+03	6.722452E-15	3.581552E-17
5.370000E+03	6.716776E-15	3.293308E-17
5.380000E+03	6.707861E-15	2.992713E-17
5.390000E+03	6.695201E-15	2.697675E-17
5.400000E+03	6.678245E-15	2.439888E-17
5.410000E+03	6.656510E-15	2.266882E-17
5.420000E+03	6.629659E-15	2.229286E-17
5.430000E+03	6.597737E-15	2.343179E-17
5.440000E+03	6.561301E-15	2.571451E-17
5.450000E+03	6.521120E-15	2.861559E-17
5.460000E+03	6.478080E-15	3.172362E-17
5.470000E+03	6.432910E-15	3.478149E-17
5.480000E+03	6.386411E-15	3.764751E-17
5.490000E+03	6.339181E-15	4.025268E-17
5.500000E+03	6.291805E-15	4.257244E-17
5.510000E+03	6.244850E-15	4.460801E-17
5.520000E+03	6.198687E-15	4.637469E-17
5.530000E+03	6.153679E-15	4.789641E-17
5.540000E+03	6.110127E-15	4.920038E-17
5.550000E+03	6.068342E-15	5.031546E-17
5.560000E+03	6.028408E-15	5.126849E-17
5.570000E+03	5.990619E-15	5.208624E-17
5.580000E+03	5.955069E-15	5.279207E-17
5.590000E+03	5.921843E-15	5.340750E-17
5.600000E+03	5.891144E-15	5.395281E-17
5.610000E+03	5.863124E-15	5.444581E-17
5.620000E+03	5.837889E-15	5.490167E-17
5.630000E+03	5.815615E-15	5.533332E-17
5.640000E+03	5.796494E-15	5.575157E-17
5.650000E+03	5.780724E-15	5.616524E-17
5.660000E+03	5.768507E-15	5.658094E-17
5.670000E+03	5.759984E-15	5.700344E-17
5.680000E+03	5.755344E-15	5.743729E-17
5.690000E+03	5.754810E-15	5.788682E-17
5.700000E+03	5.758409E-15	5.835420E-17
5.710000E+03	5.766357E-15	5.884336E-17
5.720000E+03	5.778596E-15	5.935478E-17
5.730000E+03	5.795131E-15	5.988919E-17
5.740000E+03	5.815961E-15	6.044687E-17
5.750000E+03	5.840901E-15	6.102541E-17
5.760000E+03	5.869696E-15	6.162127E-17
5.770000E+03	5.902129E-15	6.223122E-17
5.780000E+03	5.937849E-15	6.285019E-17
5.790000E+03	5.976431E-15	6.347246E-17
5.800000E+03	6.017267E-15	6.409051E-17
5.810000E+03	6.059916E-15	6.469844E-17
5.820000E+03	6.103654E-15	6.528726E-17
5.830000E+03	6.147889E-15	6.584905E-17
5.840000E+03	6.191944E-15	6.637407E-17
5.850000E+03	6.235065E-15	6.685135E-17
5.860000E+03	6.276621E-15	6.727128E-17
5.870000E+03	6.315873E-15	6.762303E-17
5.880000E+03	6.352116E-15	6.789674E-17
5.890000E+03	6.384887E-15	6.808596E-17
5.900000E+03	6.413553E-15	6.818311E-17
5.910000E+03	6.437702E-15	6.818427E-17
5.920000E+03	6.457106E-15	6.808897E-17
5.930000E+03	6.471621E-15	6.789869E-17
5.940000E+03	6.481192E-15	6.761717E-17
5.950000E+03	6.485938E-15	6.725067E-17
5.960000E+03	6.486354E-15	6.680925E-17
5.970000E+03	6.482916E-15	6.630277E-17
5.980000E+03	6.476332E-15	6.574307E-17
5.990000E+03	6.467465E-15	6.514245E-17
6.000000E+03	6.457248E-15	6.451279E-17
6.010000E+03	6.446914E-15	6.386738E-17
6.020000E+03	6.437531E-15	6.321545E-17
6.030000E+03	6.430416E-15	6.256660E-17
6.040000E+03	6.426862E-15	6.192782E-17
6.050000E+03	6.428234E-15	6.130402E-17
6.060000E+03	6.435761E-15	6.069643E-17
6.070000E+03	6.450697E-15	6.010432E-17
6.080000E+03	6.474299E-15	5.952418E-17
6.090000E+03	6.507746E-15	5.894915E-17
6.100000E+03	6.551976E-15	5.836722E-17
6.110000E+03	6.607985E-15	5.776292E-17
6.120000E+03	6.676532E-15	5.711460E-17
6.130000E+03	6.758023E-15	5.639299E-17
6.140000E+03	6.852926E-15	5.556381E-17
6.150000E+03	6.961104E-15	5.458300E-17
6.160000E+03	7.082213E-15	5.340088E-17
6.170000E+03	7.215325E-15	5.195991E-17
6.180000E+03	7.358746E-15	5.019655E-17
6.190000E+03	7.510013E-15	4.804521E-17
6.200000E+03	7.665426E-15	4.544112E-17
6.210000E+03	7.820527E-15	4.233479E-17
6.220000E+03	7.969342E-15	3.870451E-17
6.230000E+03	8.105045E-15	3.458988E-17
6.240000E+03	8.219484E-15	3.014675E-17
6.250000E+03	8.304100E-15	2.575240E-17
6.260000E+03	8.350703E-15	2.215294E-17
6.270000E+03	8.352573E-15	2.045711E-17
6.280000E+03	8.307331E-15	2.134172E-17
6.290000E+03	8.220535E-15	2.407977E-17
6.300000E+03	8.102178E-15	2.748675E-17
6.310000E+03	7.963550E-15	3.080876E-17
6.320000E+03	7.815551E-15	3.372359E-17
6.330000E+03	7.668037E-15	3.615942E-17
6.340000E+03	7.529074E-15	3.816566E-17
6.350000E+03	7.404764E-15	3.984112E-17
6.360000E+03	7.299733E-15	4.130082E-17
6.370000E+03	7.216867E-15	4.265454E-17
6.380000E+03	7.158182E-15	4.400032E-17
6.390000E+03	7.124638E-15	4.542135E-17
6.400000E+03	7.116603E-15	4.698808E-17
6.410000E+03	7.133781E-15	4.875722E-17
6.420000E+03	7.175696E-15	5.077873E-17
6.430000E+03	7.241323E-15	5.309617E-17
6.440000E+03	7.329570E-15	5.575023E-17
6.450000E+03	7.438918E-15	5.877730E-17
6.460000E+03	7.567652E-15	6.221035E-17
6.470000E+03	7.713702E-15	6.607423E-17
6.480000E+03	7.874813E-15	7.038472E-17
6.490000E+03	8.048493E-15	7.514441E-17
6.500000E+03	8.231878E-15	8.033691E-17
6.510000E+03	8.422103E-15	8.592882E-17
6.520000E+03	8.616102E-15	9.186741E-17
6.530000E+03	8.810666E-15	9.808034E-17
6.540000E+03	9.002745E-15	1.044809E-16
6.550000E+03	9.189110E-15	1.109672E-16
6.560000E+03	9.366579E-15	1.174271E-16
6.570000E+03	9.532262E-15	1.237455E-16
6.580000E+03	9.683212E-15	1.298037E-16
6.590000E+03	9.816682E-15	1.354868E-16
6.600000E+03	9.930430E-15	1.406903E-16
6.610000E+03	1.002248E-14	1.453201E-16
6.620000E+03	1.009122E-14	1.492955E-16
6.630000E+03	1.013563E-14	1.525552E-16
6.640000E+03	1.015519E-14	1.550581E-16
6.650000E+03	1.015004E-14	1.567859E-16
6.660000E+03	1.012044E-14	1.577369E-16
6.670000E+03	1.006754E-14	1.579370E-16
6.680000E+03	9.992643E-15	1.574279E-16
6.690000E+03	9.897252E-15	1.562663E-16
6.700000E+03	9.783324E-15	1.545261E-16
6.710000E+03	9.652872E-15	1.522893E-16
6.720000E+03	9.508016E-15	1.496437E-16
6.730000E+03	9.350821E-15	1.466764E-16
6.740000E+03	9.183772E-15	1.434777E-16
6.750000E+03	9.008685E-15	1.401212E-16
6.760000E+03	8.827827E-15	1.366791E-16
6.770000E+03	8.643160E-15	1.332081E-16
6.780000E+03	8.456624E-15	1.297557E-16
6.790000E+03	8.269724E-15	1.263552E-16
6.800000E+03	8.084107E-15	1.230364E-16
6.810000E+03	7.901250E-15	1.198221E-16
6.820000E+03	7.722276E-15	1.167269E-16
6.830000E+03	7.548417E-15	1.137647E-16
6.840000E+03	7.380294E-15	1.109388E-16
6.850000E+03	7.218896E-15	1.082573E-16
6.860000E+03	7.064708E-15	1.057200E-16
6.870000E+03	6.918243E-15	1.033278E-16
6.880000E+03	6.779633E-15	1.010770E-16
6.890000E+03	6.649219E-15	9.896870E-17
6.900000E+03	6.526989E-15	9.700011E-17
6.910000E+03	6.412990E-15	9.517080E-17
6.920000E+03	6.307104E-15	9.347874E-17
6.930000E+03	6.209063E-15	9.192052E-17
6.940000E+03	6.118755E-15	9.049577E-17
6.950000E+03	6.035717E-15	8.919922E-17
6.960000E+03	5.959657E-15	8.802841E-17
6.970000E+03	5.890171E-15	8.697932E-17
6.980000E+03	5.826751E-15	8.604615E-17
6.990000E+03	5.769076E-15	8.522564E-17
7.000000E+03	5.716663E-15	8.451185E-17
7.010000E+03	5.668879E-15	8.389605E-17
7.020000E+03	5.625293E-15	8.337211E-17
7.030000E+03	5.585471E-15	8.293341E-17
7.040000E+03	5.548779E-15	8.256976E-17
7.050000E+03	5.514864E-15	8.227470E-17
7.060000E+03	5.483255E-15	8.203955E-17
7.070000E+03	5.453361E-15	8.185329E-17
7.080000E+03	5.424892E-15	8.170887E-17
7.090000E+03	5.397380E-15	8.159613E-17
7.100000E+03	5.370465E-15	8.150586E-17
7.110000E+03	5.343888E-15	8.142996E-17
7.120000E+03	5.317303E-15	8.135859E-17
7.130000E+03	5.290542E-15	8.128427E-17
7.140000E+03	5.263282E-15	8.119705E-17
7.150000E+03	5.235582E-15	8.109288E-17
7.160000E+03	5.207142E-15	8.096244E-17
7.170000E+03	5.178037E-15	8.080261E-17
7.180000E+03	5.148243E-15	8.060941E-17
7.190000E+03	5.117701E-15	8.037895E-17
7.200000E+03	5.086508E-15	8.011060E-17
7.210000E+03	5.054649E-15	7.980276E-17
7.220000E+03	5.022253E-15	7.945677E-17
7.230000E+03	4.989395E-15	7.907369E-17
7.240000E+03	4.956091E-15	7.865414E-17
7.250000E+03	4.922553E-15	7.820198E-17
7.260000E+03	4.888738E-15	7.771710E-17
7.270000E+03	4.854856E-15	7.720322E-17
7.280000E+03	4.820926E-15	7.666059E-17
7.290000E+03	4.787028E-15	7.608990E-17
7.300000E+03	4.753300E-15	7.549217E-17
7.310000E+03	4.719749E-15	7.486575E-17
7.320000E+03	4.686504E-15	7.421049E-17
7.330000E+03	4.653623E-15	7.352513E-17
7.340000E+03	4.621098E-15	7.280762E-17
7.350000E+03	4.589097E-15	7.205910E-17
7.360000E+03	4.557544E-15	7.127730E-17
7.370000E+03	4.526484E-15	7.046246E-17
7.380000E+03	4.496084E-15	6.961722E-17
7.390000E+03	4.466217E-15	6.874022E-17
7.400000E+03	4.437000E-15	6.783437E-17
7.410000E+03	4.408496E-15	6.690210E-17
7.420000E+03	4.380721E-15	6.594521E-17
7.430000E+03	4.353695E-15	6.496553E-17
7.440000E+03	4.327565E-15	6.396634E-17
7.450000E+03	4.302367E-15	6.294849E-17
7.460000E+03	4.278317E-15	6.191438E-17
7.470000E+03	4.255460E-15	6.086247E-17
7.480000E+03	4.233959E-15	5.979126E-17
7.490000E+03	4.213920E-15	5.869652E-17
7.500000E+03	4.195335E-15	5.757044E-17
7.510000E+03	4.178476E-15	5.640708E-17
7.520000E+03	4.163326E-15	5.519453E-17
7.530000E+03	4.149976E-15	5.392051E-17
7.540000E+03	4.138503E-15	5.257098E-17
7.550000E+03	4.128975E-15	5.113037E-17
7.560000E+03	4.121441E-15	4.958196E-17
7.570000E+03	4.115872E-15	4.790753E-17
7.580000E+03	4.112328E-15	4.608992E-17
7.590000E+03	4.110723E-15	4.411088E-17
7.600000E+03	4.110991E-15	4.195374E-17
7.610000E+03	4.113020E-15	3.960371E-17
7.620000E+03	4.116706E-15	3.704957E-17
7.630000E+03	4.121716E-15	3.428361E-17
7.640000E+03	4.127821E-15	3.130797E-17
7.650000E+03	4.134610E-15	2.813787E-17
7.660000E+03	4.141713E-15	2.481426E-17
7.670000E+03	4.148633E-15	2.142420E-17
7.680000E+03	4.154763E-15	1.814481E-17
7.690000E+03	4.159577E-15	1.532539E-17
7.700000E+03	4.162455E-15	1.357027E-17
7.710000E+03	4.162997E-15	1.355077E-17
7.720000E+03	4.161029E-15	1.532009E-17
7.730000E+03	4.156626E-15	1.825173E-17
7.740000E+03	4.150058E-15	2.172749E-17
7.750000E+03	4.141707E-15	2.537585E-17
7.760000E+03	4.131901E-15	2.900075E-17
