#wls	flux	fluxerr
1.600000E+03	4.863753E-15	6.469053E-16
1.640000E+03	4.957166E-15	6.130691E-16
1.680000E+03	5.047918E-15	5.779660E-16
1.720000E+03	5.136355E-15	5.419569E-16
1.760000E+03	5.222897E-15	5.054491E-16
1.800000E+03	5.306166E-15	4.687438E-16
1.840000E+03	5.385833E-15	4.323588E-16
1.880000E+03	5.463727E-15	3.970889E-16
1.920000E+03	5.538116E-15	3.635791E-16
1.960000E+03	5.611548E-15	3.329343E-16
2.000000E+03	5.684116E-15	3.062127E-16
2.040000E+03	5.758402E-15	2.846560E-16
2.080000E+03	5.835474E-15	2.692278E-16
2.120000E+03	5.919625E-15	2.604249E-16
2.160000E+03	6.013000E-15	2.576560E-16
2.200000E+03	6.116784E-15	2.596791E-16
2.240000E+03	6.235362E-15	2.652590E-16
2.280000E+03	6.369878E-15	2.731315E-16
2.320000E+03	6.523609E-15	2.822091E-16
2.360000E+03	6.695852E-15	2.914003E-16
2.400000E+03	6.887856E-15	3.000557E-16
2.440000E+03	7.101184E-15	3.080244E-16
2.480000E+03	7.336915E-15	3.157262E-16
2.520000E+03	7.596945E-15	3.242881E-16
2.560000E+03	7.887571E-15	3.356818E-16
2.600000E+03	8.211375E-15	3.521439E-16
2.640000E+03	8.572900E-15	3.758110E-16
2.680000E+03	8.973458E-15	4.074931E-16
2.720000E+03	9.410993E-15	4.464684E-16
2.760000E+03	9.883289E-15	4.911519E-16
2.800000E+03	1.038609E-14	5.393992E-16
2.840000E+03	1.091306E-14	5.887351E-16
2.880000E+03	1.146235E-14	6.368455E-16
2.920000E+03	1.202405E-14	6.809844E-16
2.960000E+03	1.259351E-14	7.187550E-16
3.000000E+03	1.315821E-14	7.474587E-16
3.010000E+03	1.329751E-14	7.529412E-16
3.020000E+03	1.343613E-14	7.576992E-16
3.030000E+03	1.357379E-14	7.616939E-16
3.040000E+03	1.370876E-14	7.648065E-16
3.050000E+03	1.384363E-14	7.671627E-16
3.060000E+03	1.397519E-14	7.685661E-16
3.070000E+03	1.410457E-14	7.690640E-16
3.080000E+03	1.422999E-14	7.685465E-16
3.090000E+03	1.435400E-14	7.671417E-16
3.100000E+03	1.447480E-14	7.647435E-16
3.110000E+03	1.459202E-14	7.613273E-16
3.120000E+03	1.470530E-14	7.568717E-16
3.130000E+03	1.481425E-14	7.513585E-16
3.140000E+03	1.491851E-14	7.447733E-16
3.150000E+03	1.501911E-14	7.371754E-16
3.160000E+03	1.511423E-14	7.284852E-16
3.170000E+03	1.520349E-14	7.187006E-16
3.180000E+03	1.528791E-14	7.078893E-16
3.190000E+03	1.536572E-14	6.959903E-16
3.200000E+03	1.543792E-14	6.830782E-16
3.210000E+03	1.550277E-14	6.691060E-16
3.220000E+03	1.556131E-14	6.541556E-16
3.230000E+03	1.561318E-14	6.382510E-16
3.240000E+03	1.565671E-14	6.213689E-16
3.250000E+03	1.569297E-14	6.036033E-16
3.260000E+03	1.572302E-14	5.850459E-16
3.270000E+03	1.574394E-14	5.656449E-16
3.280000E+03	1.575688E-14	5.455075E-16
3.290000E+03	1.576165E-14	5.246955E-16
3.300000E+03	1.575814E-14	5.032780E-16
3.310000E+03	1.574751E-14	4.813687E-16
3.320000E+03	1.572845E-14	4.590079E-16
3.330000E+03	1.570097E-14	4.362856E-16
3.340000E+03	1.566635E-14	4.133313E-16
3.350000E+03	1.562348E-14	3.902152E-16
3.360000E+03	1.557371E-14	3.670803E-16
3.370000E+03	1.551721E-14	3.440467E-16
3.380000E+03	1.545310E-14	3.212237E-16
3.390000E+03	1.538285E-14	2.987870E-16
3.400000E+03	1.530678E-14	2.769036E-16
3.410000E+03	1.522636E-14	2.557819E-16
3.420000E+03	1.513988E-14	2.356038E-16
3.430000E+03	1.504991E-14	2.166573E-16
3.440000E+03	1.495489E-14	1.992029E-16
3.450000E+03	1.485834E-14	1.836099E-16
3.460000E+03	1.475872E-14	1.702021E-16
3.470000E+03	1.465653E-14	1.593248E-16
3.480000E+03	1.455313E-14	1.512660E-16
3.490000E+03	1.444878E-14	1.461542E-16
3.500000E+03	1.434369E-14	1.438839E-16
3.510000E+03	1.423719E-14	1.440821E-16
3.520000E+03	1.413122E-14	1.462484E-16
3.530000E+03	1.402509E-14	1.498157E-16
3.540000E+03	1.391981E-14	1.542767E-16
3.550000E+03	1.381473E-14	1.591917E-16
3.560000E+03	1.371009E-14	1.642266E-16
3.570000E+03	1.360687E-14	1.691462E-16
3.580000E+03	1.350524E-14	1.737820E-16
3.590000E+03	1.340540E-14	1.780247E-16
3.600000E+03	1.330752E-14	1.818105E-16
3.610000E+03	1.321106E-14	1.850996E-16
3.620000E+03	1.311826E-14	1.879154E-16
3.630000E+03	1.302717E-14	1.902400E-16
3.640000E+03	1.293922E-14	1.921158E-16
3.650000E+03	1.285444E-14	1.935727E-16
3.660000E+03	1.277221E-14	1.946349E-16
3.670000E+03	1.269311E-14	1.953468E-16
3.680000E+03	1.261705E-14	1.957422E-16
3.690000E+03	1.254448E-14	1.958617E-16
3.700000E+03	1.247405E-14	1.957149E-16
3.710000E+03	1.240669E-14	1.953435E-16
3.720000E+03	1.234155E-14	1.947583E-16
3.730000E+03	1.227940E-14	1.939917E-16
3.740000E+03	1.221831E-14	1.930303E-16
3.750000E+03	1.215948E-14	1.919083E-16
3.760000E+03	1.210200E-14	1.906245E-16
3.770000E+03	1.204545E-14	1.891851E-16
3.780000E+03	1.198942E-14	1.875959E-16
3.790000E+03	1.193351E-14	1.858630E-16
3.800000E+03	1.187775E-14	1.840001E-16
3.810000E+03	1.182170E-14	1.820145E-16
3.820000E+03	1.176451E-14	1.799074E-16
3.830000E+03	1.170622E-14	1.776948E-16
3.840000E+03	1.164686E-14	1.753928E-16
3.850000E+03	1.158519E-14	1.729983E-16
3.860000E+03	1.152131E-14	1.705278E-16
3.870000E+03	1.145530E-14	1.679969E-16
3.880000E+03	1.138683E-14	1.654143E-16
3.890000E+03	1.131490E-14	1.627775E-16
3.900000E+03	1.124043E-14	1.601113E-16
3.910000E+03	1.116251E-14	1.574125E-16
3.920000E+03	1.108139E-14	1.546938E-16
3.930000E+03	1.099667E-14	1.519576E-16
3.940000E+03	1.090904E-14	1.492205E-16
3.950000E+03	1.081820E-14	1.464844E-16
3.960000E+03	1.072426E-14	1.437556E-16
3.970000E+03	1.062710E-14	1.410362E-16
3.980000E+03	1.052756E-14	1.383396E-16
3.990000E+03	1.042587E-14	1.356698E-16
4.000000E+03	1.032175E-14	1.330225E-16
4.010000E+03	1.021613E-14	1.304072E-16
4.020000E+03	1.010907E-14	1.278208E-16
4.030000E+03	1.000095E-14	1.252626E-16
4.040000E+03	9.892161E-15	1.227304E-16
4.050000E+03	9.783068E-15	1.202202E-16
4.060000E+03	9.674283E-15	1.177293E-16
4.070000E+03	9.565668E-15	1.152446E-16
4.080000E+03	9.458026E-15	1.127624E-16
4.090000E+03	9.351214E-15	1.102664E-16
4.100000E+03	9.245769E-15	1.077464E-16
4.110000E+03	9.141996E-15	1.051882E-16
4.120000E+03	9.040010E-15	1.025736E-16
4.130000E+03	8.940167E-15	9.988605E-17
4.140000E+03	8.843042E-15	9.711052E-17
4.150000E+03	8.748667E-15	9.422530E-17
4.160000E+03	8.657509E-15	9.121371E-17
4.170000E+03	8.570236E-15	8.806202E-17
4.180000E+03	8.487168E-15	8.475461E-17
4.190000E+03	8.408639E-15	8.127914E-17
4.200000E+03	8.335304E-15	7.763088E-17
4.210000E+03	8.267281E-15	7.380630E-17
4.220000E+03	8.205124E-15	6.981531E-17
4.230000E+03	8.148991E-15	6.567784E-17
4.240000E+03	8.098815E-15	6.143261E-17
4.250000E+03	8.055044E-15	5.715275E-17
4.260000E+03	8.017287E-15	5.294965E-17
4.270000E+03	7.985662E-15	4.900091E-17
4.280000E+03	7.959912E-15	4.556075E-17
4.290000E+03	7.939708E-15	4.296249E-17
4.300000E+03	7.924639E-15	4.157156E-17
4.310000E+03	7.914156E-15	4.166483E-17
4.320000E+03	7.907410E-15	4.325929E-17
4.330000E+03	7.903368E-15	4.608646E-17
4.340000E+03	7.900791E-15	4.976029E-17
4.350000E+03	7.898379E-15	5.390963E-17
4.360000E+03	7.895094E-15	5.823613E-17
4.370000E+03	7.890190E-15	6.252099E-17
4.380000E+03	7.882863E-15	6.660984E-17
4.390000E+03	7.872628E-15	7.040064E-17
4.400000E+03	7.859187E-15	7.383071E-17
4.410000E+03	7.842415E-15	7.686762E-17
4.420000E+03	7.822455E-15	7.950364E-17
4.430000E+03	7.799230E-15	8.174594E-17
4.440000E+03	7.773219E-15	8.362023E-17
4.450000E+03	7.744736E-15	8.516011E-17
4.460000E+03	7.714032E-15	8.640454E-17
4.470000E+03	7.681803E-15	8.740077E-17
4.480000E+03	7.648308E-15	8.819190E-17
4.490000E+03	7.613998E-15	8.882183E-17
4.500000E+03	7.579393E-15	8.933224E-17
4.510000E+03	7.544672E-15	8.975672E-17
4.520000E+03	7.510378E-15	9.012842E-17
4.530000E+03	7.476814E-15	9.047285E-17
4.540000E+03	7.444153E-15	9.080925E-17
4.550000E+03	7.412831E-15	9.115581E-17
4.560000E+03	7.382870E-15	9.152211E-17
4.570000E+03	7.354654E-15	9.191918E-17
4.580000E+03	7.328264E-15	9.235203E-17
4.590000E+03	7.303952E-15	9.282615E-17
4.600000E+03	7.281954E-15	9.334577E-17
4.610000E+03	7.262221E-15	9.391088E-17
4.620000E+03	7.245142E-15	9.452688E-17
4.630000E+03	7.230646E-15	9.519331E-17
4.640000E+03	7.218915E-15	9.591325E-17
4.650000E+03	7.210027E-15	9.668880E-17
4.660000E+03	7.204040E-15	9.752219E-17
4.670000E+03	7.200992E-15	9.841570E-17
4.680000E+03	7.200898E-15	9.937153E-17
4.690000E+03	7.203658E-15	1.003904E-16
4.700000E+03	7.209397E-15	1.014763E-16
4.710000E+03	7.217868E-15	1.026274E-16
4.720000E+03	7.228956E-15	1.038439E-16
4.730000E+03	7.242505E-15	1.051242E-16
4.740000E+03	7.258316E-15	1.064654E-16
4.750000E+03	7.276142E-15	1.078627E-16
4.760000E+03	7.295690E-15	1.093089E-16
4.770000E+03	7.316614E-15	1.107940E-16
4.780000E+03	7.338522E-15	1.123050E-16
4.790000E+03	7.360969E-15	1.138254E-16
4.800000E+03	7.383468E-15	1.153354E-16
4.810000E+03	7.405657E-15	1.168146E-16
4.820000E+03	7.426893E-15	1.182357E-16
4.830000E+03	7.446680E-15	1.195718E-16
4.840000E+03	7.464429E-15	1.207931E-16
4.850000E+03	7.479723E-15	1.218722E-16
4.860000E+03	7.492001E-15	1.227796E-16
4.870000E+03	7.500742E-15	1.234875E-16
4.880000E+03	7.505559E-15	1.239728E-16
4.890000E+03	7.506133E-15	1.242163E-16
4.900000E+03	7.502143E-15	1.242027E-16
4.910000E+03	7.493516E-15	1.239246E-16
4.920000E+03	7.479947E-15	1.233757E-16
4.930000E+03	7.461553E-15	1.225607E-16
4.940000E+03	7.438463E-15	1.214890E-16
4.950000E+03	7.410735E-15	1.201727E-16
4.960000E+03	7.378673E-15	1.186311E-16
4.970000E+03	7.342573E-15	1.168860E-16
4.980000E+03	7.302874E-15	1.149634E-16
4.990000E+03	7.259979E-15	1.128897E-16
5.000000E+03	7.214250E-15	1.106911E-16
5.010000E+03	7.166301E-15	1.083975E-16
5.020000E+03	7.116599E-15	1.060350E-16
5.030000E+03	7.065538E-15	1.036276E-16
5.040000E+03	7.013654E-15	1.011990E-16
5.050000E+03	6.961394E-15	9.876954E-17
5.060000E+03	6.909262E-15	9.635763E-17
5.070000E+03	6.857589E-15	9.397700E-17
5.080000E+03	6.806760E-15	9.163971E-17
5.090000E+03	6.757277E-15	8.935719E-17
5.100000E+03	6.709321E-15	8.713464E-17
5.110000E+03	6.663263E-15	8.497801E-17
5.120000E+03	6.619366E-15	8.289040E-17
5.130000E+03	6.577926E-15	8.087404E-17
5.140000E+03	6.538994E-15	7.892712E-17
5.150000E+03	6.502854E-15	7.704994E-17
5.160000E+03	6.469606E-15	7.523995E-17
5.170000E+03	6.439239E-15	7.349282E-17
5.180000E+03	6.411765E-15	7.180415E-17
5.190000E+03	6.387221E-15	7.016939E-17
5.200000E+03	6.365535E-15	6.858226E-17
5.210000E+03	6.346535E-15	6.703480E-17
5.220000E+03	6.330152E-15	6.551929E-17
5.230000E+03	6.316228E-15	6.402590E-17
5.240000E+03	6.304518E-15	6.254249E-17
5.250000E+03	6.294832E-15	6.105569E-17
5.260000E+03	6.287032E-15	5.955059E-17
5.270000E+03	6.280909E-15	5.800935E-17
5.280000E+03	6.276112E-15	5.641070E-17
5.290000E+03	6.272545E-15	5.473383E-17
5.300000E+03	6.269906E-15	5.295487E-17
5.310000E+03	6.267952E-15	5.105030E-17
5.320000E+03	6.266426E-15	4.899801E-17
5.330000E+03	6.264999E-15	4.677919E-17
5.340000E+03	6.263400E-15	4.438299E-17
5.350000E+03	6.261350E-15	4.181138E-17
5.360000E+03	6.258570E-15	3.908746E-17
5.370000E+03	6.254720E-15	3.626751E-17
5.380000E+03	6.249540E-15	3.345969E-17
5.390000E+03	6.242734E-15	3.084553E-17
5.400000E+03	6.234114E-15	2.869827E-17
5.410000E+03	6.223424E-15	2.736514E-17
5.420000E+03	6.210672E-15	2.716880E-17
5.430000E+03	6.195726E-15	2.820562E-17
5.440000E+03	6.178616E-15	3.025561E-17
5.450000E+03	6.159312E-15	3.296877E-17
5.460000E+03	6.137922E-15	3.602355E-17
5.470000E+03	6.114614E-15	3.918194E-17
5.480000E+03	6.089660E-15	4.228688E-17
5.490000E+03	6.063355E-15	4.524230E-17
5.500000E+03	6.035945E-15	4.799386E-17
5.510000E+03	6.007794E-15	5.051633E-17
5.520000E+03	5.979319E-15	5.280374E-17
5.530000E+03	5.950737E-15	5.486057E-17
5.540000E+03	5.922493E-15	5.670110E-17
5.550000E+03	5.894887E-15	5.834310E-17
5.560000E+03	5.868144E-15	5.980617E-17
5.570000E+03	5.842652E-15	6.111268E-17
5.580000E+03	5.818486E-15	6.228197E-17
5.590000E+03	5.796066E-15	6.333646E-17
5.600000E+03	5.775450E-15	6.429367E-17
5.610000E+03	5.756926E-15	6.517231E-17
5.620000E+03	5.740656E-15	6.598823E-17
5.630000E+03	5.726861E-15	6.675632E-17
5.640000E+03	5.715692E-15	6.748908E-17
5.650000E+03	5.707297E-15	6.819737E-17
5.660000E+03	5.701810E-15	6.889040E-17
5.670000E+03	5.699470E-15	6.957726E-17
5.680000E+03	5.700262E-15	7.026273E-17
5.690000E+03	5.704324E-15	7.095228E-17
5.700000E+03	5.711765E-15	7.165006E-17
5.710000E+03	5.722548E-15	7.235740E-17
5.720000E+03	5.736713E-15	7.307575E-17
5.730000E+03	5.754142E-15	7.380377E-17
5.740000E+03	5.774793E-15	7.454033E-17
5.750000E+03	5.798517E-15	7.528231E-17
5.760000E+03	5.825119E-15	7.602543E-17
5.770000E+03	5.854357E-15	7.676439E-17
5.780000E+03	5.885882E-15	7.749227E-17
5.790000E+03	5.919489E-15	7.820387E-17
5.800000E+03	5.954751E-15	7.889124E-17
5.810000E+03	5.991215E-15	7.954626E-17
5.820000E+03	6.028587E-15	8.016332E-17
5.830000E+03	6.066317E-15	8.073388E-17
5.840000E+03	6.104036E-15	8.125231E-17
5.850000E+03	6.141320E-15	8.171275E-17
5.860000E+03	6.177767E-15	8.211009E-17
5.870000E+03	6.213004E-15	8.244002E-17
5.880000E+03	6.246638E-15	8.269835E-17
5.890000E+03	6.278395E-15	8.288279E-17
5.900000E+03	6.308134E-15	8.299310E-17
5.910000E+03	6.335665E-15	8.302867E-17
5.920000E+03	6.360953E-15	8.299110E-17
5.930000E+03	6.383998E-15	8.288254E-17
5.940000E+03	6.405102E-15	8.270905E-17
5.950000E+03	6.424414E-15	8.247448E-17
5.960000E+03	6.442321E-15	8.218540E-17
5.970000E+03	6.459319E-15	8.184911E-17
5.980000E+03	6.475932E-15	8.147244E-17
5.990000E+03	6.492909E-15	8.106390E-17
6.000000E+03	6.511004E-15	8.063074E-17
6.010000E+03	6.530829E-15	8.017683E-17
6.020000E+03	6.553439E-15	7.970968E-17
6.030000E+03	6.579509E-15	7.923009E-17
6.040000E+03	6.609980E-15	7.873991E-17
6.050000E+03	6.645708E-15	7.823749E-17
6.060000E+03	6.687363E-15	7.771645E-17
6.070000E+03	6.735752E-15	7.716928E-17
6.080000E+03	6.791373E-15	7.658198E-17
6.090000E+03	6.854804E-15	7.593846E-17
6.100000E+03	6.926320E-15	7.521604E-17
6.110000E+03	7.006064E-15	7.438743E-17
6.120000E+03	7.093790E-15	7.341812E-17
6.130000E+03	7.189257E-15	7.227089E-17
6.140000E+03	7.291589E-15	7.089991E-17
6.150000E+03	7.399746E-15	6.925682E-17
6.160000E+03	7.512019E-15	6.728769E-17
6.170000E+03	7.626446E-15	6.493986E-17
6.180000E+03	7.740556E-15	6.216340E-17
6.190000E+03	7.851112E-15	5.891501E-17
6.200000E+03	7.954616E-15	5.517038E-17
6.210000E+03	8.047065E-15	5.093394E-17
6.220000E+03	8.124158E-15	4.625811E-17
6.230000E+03	8.181429E-15	4.127129E-17
6.240000E+03	8.214964E-15	3.622423E-17
6.250000E+03	8.220933E-15	3.154867E-17
6.260000E+03	8.197071E-15	2.791260E-17
6.270000E+03	8.142360E-15	2.610089E-17
6.280000E+03	8.058242E-15	2.649598E-17
6.290000E+03	7.949465E-15	2.858892E-17
6.300000E+03	7.822675E-15	3.150278E-17
6.310000E+03	7.685271E-15	3.456837E-17
6.320000E+03	7.544648E-15	3.742579E-17
6.330000E+03	7.407662E-15	3.993723E-17
6.340000E+03	7.280458E-15	4.209602E-17
6.350000E+03	7.167762E-15	4.396211E-17
6.360000E+03	7.073709E-15	4.562944E-17
6.370000E+03	7.001128E-15	4.719945E-17
6.380000E+03	6.951966E-15	4.877047E-17
6.390000E+03	6.927578E-15	5.043279E-17
6.400000E+03	6.928630E-15	5.226492E-17
6.410000E+03	6.955292E-15	5.433417E-17
6.420000E+03	7.007253E-15	5.669705E-17
6.430000E+03	7.084008E-15	5.940242E-17
6.440000E+03	7.184676E-15	6.249075E-17
6.450000E+03	7.308004E-15	6.599445E-17
6.460000E+03	7.452534E-15	6.993896E-17
6.470000E+03	7.616604E-15	7.434206E-17
6.480000E+03	7.798096E-15	7.921012E-17
6.490000E+03	7.994769E-15	8.453953E-17
6.500000E+03	8.203925E-15	9.031161E-17
6.510000E+03	8.422776E-15	9.649476E-17
6.520000E+03	8.648108E-15	1.030397E-16
6.530000E+03	8.876786E-15	1.098848E-16
6.540000E+03	9.105234E-15	1.169500E-16
6.550000E+03	9.329966E-15	1.241443E-16
6.560000E+03	9.547359E-15	1.313649E-16
6.570000E+03	9.753931E-15	1.385024E-16
6.580000E+03	9.946100E-15	1.454405E-16
6.590000E+03	1.012082E-14	1.520675E-16
6.600000E+03	1.027514E-14	1.582727E-16
6.610000E+03	1.040648E-14	1.639534E-16
6.620000E+03	1.051283E-14	1.690207E-16
6.630000E+03	1.059261E-14	1.733991E-16
6.640000E+03	1.064490E-14	1.770330E-16
6.650000E+03	1.066910E-14	1.798820E-16
6.660000E+03	1.066555E-14	1.819326E-16
6.670000E+03	1.063471E-14	1.831853E-16
6.680000E+03	1.057779E-14	1.836638E-16
6.690000E+03	1.049642E-14	1.834095E-16
6.700000E+03	1.039230E-14	1.824737E-16
6.710000E+03	1.026767E-14	1.809237E-16
6.720000E+03	1.012482E-14	1.788326E-16
6.730000E+03	9.966287E-15	1.762802E-16
6.740000E+03	9.794427E-15	1.733434E-16
6.750000E+03	9.611822E-15	1.701018E-16
6.760000E+03	9.420876E-15	1.666289E-16
6.770000E+03	9.223893E-15	1.629926E-16
6.780000E+03	9.023043E-15	1.592544E-16
6.790000E+03	8.820439E-15	1.554704E-16
6.800000E+03	8.617905E-15	1.516874E-16
6.810000E+03	8.417071E-15	1.479454E-16
6.820000E+03	8.219272E-15	1.442761E-16
6.830000E+03	8.025953E-15	1.407103E-16
6.840000E+03	7.838059E-15	1.372682E-16
6.850000E+03	7.656460E-15	1.339669E-16
6.860000E+03	7.481851E-15	1.308189E-16
6.870000E+03	7.314862E-15	1.278350E-16
6.880000E+03	7.155879E-15	1.250207E-16
6.890000E+03	7.004983E-15	1.223758E-16
6.900000E+03	6.862581E-15	1.199056E-16
6.910000E+03	6.728536E-15	1.176056E-16
6.920000E+03	6.602880E-15	1.154742E-16
6.930000E+03	6.485483E-15	1.135069E-16
6.940000E+03	6.376064E-15	1.116967E-16
6.950000E+03	6.274533E-15	1.100401E-16
6.960000E+03	6.180426E-15	1.085268E-16
6.970000E+03	6.093406E-15	1.071492E-16
6.980000E+03	6.013259E-15	1.059016E-16
6.990000E+03	5.939435E-15	1.047728E-16
7.000000E+03	5.871597E-15	1.037553E-16
7.010000E+03	5.809246E-15	1.028388E-16
7.020000E+03	5.752096E-15	1.020169E-16
7.030000E+03	5.699562E-15	1.012779E-16
7.040000E+03	5.651210E-15	1.006128E-16
7.050000E+03	5.606681E-15	1.000140E-16
7.060000E+03	5.565554E-15	9.947290E-17
7.070000E+03	5.527273E-15	9.897831E-17
7.080000E+03	5.491657E-15	9.852587E-17
7.090000E+03	5.458114E-15	9.810384E-17
7.100000E+03	5.426430E-15	9.770719E-17
7.110000E+03	5.396130E-15	9.732623E-17
7.120000E+03	5.367047E-15	9.695682E-17
7.130000E+03	5.338763E-15	9.659021E-17
7.140000E+03	5.311096E-15	9.622202E-17
7.150000E+03	5.283758E-15	9.584588E-17
7.160000E+03	5.256627E-15	9.545851E-17
7.170000E+03	5.229474E-15	9.505466E-17
7.180000E+03	5.202165E-15	9.463082E-17
7.190000E+03	5.174595E-15	9.418398E-17
7.200000E+03	5.146614E-15	9.371026E-17
7.210000E+03	5.118230E-15	9.320858E-17
7.220000E+03	5.089336E-15	9.267566E-17
7.230000E+03	5.059912E-15	9.210963E-17
7.240000E+03	5.029884E-15	9.150757E-17
7.250000E+03	4.999328E-15	9.086904E-17
7.260000E+03	4.968199E-15	9.019125E-17
7.270000E+03	4.936462E-15	8.947146E-17
7.280000E+03	4.904223E-15	8.870934E-17
7.290000E+03	4.871465E-15	8.790223E-17
7.300000E+03	4.838179E-15	8.704758E-17
7.310000E+03	4.804362E-15	8.614306E-17
7.320000E+03	4.770205E-15	8.518989E-17
7.330000E+03	4.735587E-15	8.418398E-17
7.340000E+03	4.700642E-15	8.312610E-17
7.350000E+03	4.665384E-15	8.201522E-17
7.360000E+03	4.629831E-15	8.085084E-17
7.370000E+03	4.594064E-15	7.963407E-17
7.380000E+03	4.558170E-15	7.836650E-17
7.390000E+03	4.522122E-15	7.704822E-17
7.400000E+03	4.486076E-15	7.568286E-17
7.410000E+03	4.450014E-15	7.427143E-17
7.420000E+03	4.414162E-15	7.281922E-17
7.430000E+03	4.378513E-15	7.132771E-17
7.440000E+03	4.343182E-15	6.980036E-17
7.450000E+03	4.308341E-15	6.824131E-17
7.460000E+03	4.274107E-15	6.665333E-17
7.470000E+03	4.240595E-15	6.503855E-17
7.480000E+03	4.207919E-15	6.339835E-17
7.490000E+03	4.176300E-15	6.173472E-17
7.500000E+03	4.145786E-15	6.004594E-17
7.510000E+03	4.116476E-15	5.832986E-17
7.520000E+03	4.088572E-15	5.658438E-17
7.530000E+03	4.062155E-15	5.480425E-17
7.540000E+03	4.037299E-15	5.298259E-17
7.550000E+03	4.014121E-15	5.111166E-17
7.560000E+03	3.992618E-15	4.918080E-17
7.570000E+03	3.972938E-15	4.718020E-17
7.580000E+03	3.955057E-15	4.509728E-17
7.590000E+03	3.939095E-15	4.292129E-17
7.600000E+03	3.924953E-15	4.063996E-17
7.610000E+03	3.912730E-15	3.824541E-17
7.620000E+03	3.902407E-15	3.573222E-17
7.630000E+03	3.893952E-15	3.310080E-17
7.640000E+03	3.887318E-15	3.036096E-17
7.650000E+03	3.882440E-15	2.753782E-17
7.660000E+03	3.879234E-15	2.468247E-17
7.670000E+03	3.877700E-15	2.189128E-17
7.680000E+03	3.877561E-15	1.933430E-17
7.690000E+03	3.878841E-15	1.729589E-17
7.700000E+03	3.881342E-15	1.617061E-17
7.710000E+03	3.884842E-15	1.631712E-17
7.720000E+03	3.889176E-15	1.776942E-17
7.730000E+03	3.894141E-15	2.021520E-17
7.740000E+03	3.899368E-15	2.327511E-17
7.750000E+03	3.904727E-15	2.666205E-17
7.760000E+03	3.909907E-15	3.018995E-17
