#wls	flux	fluxerr
1.600000E+03	4.852490E-15	6.495023E-16
1.640000E+03	4.943004E-15	6.156960E-16
1.680000E+03	5.031515E-15	5.807638E-16
1.720000E+03	5.117509E-15	5.449553E-16
1.760000E+03	5.200510E-15	5.085933E-16
1.800000E+03	5.281070E-15	4.721737E-16
1.840000E+03	5.358019E-15	4.361177E-16
1.880000E+03	5.433258E-15	4.012169E-16
1.920000E+03	5.505172E-15	3.681036E-16
1.960000E+03	5.575406E-15	3.378007E-16
2.000000E+03	5.646092E-15	3.114511E-16
2.040000E+03	5.718882E-15	2.901810E-16
2.080000E+03	5.794880E-15	2.749027E-16
2.120000E+03	5.878350E-15	2.660953E-16
2.160000E+03	5.970407E-15	2.631603E-16
2.200000E+03	6.075212E-15	2.650540E-16
2.240000E+03	6.193034E-15	2.704240E-16
2.280000E+03	6.328026E-15	2.781801E-16
2.320000E+03	6.482473E-15	2.872323E-16
2.360000E+03	6.655814E-15	2.965319E-16
2.400000E+03	6.849473E-15	3.054684E-16
2.440000E+03	7.064138E-15	3.138686E-16
2.480000E+03	7.303287E-15	3.222494E-16
2.520000E+03	7.567981E-15	3.316540E-16
2.560000E+03	7.864691E-15	3.439741E-16
2.600000E+03	8.194984E-15	3.612751E-16
2.640000E+03	8.565809E-15	3.856846E-16
2.680000E+03	8.977420E-15	4.179308E-16
2.720000E+03	9.427806E-15	4.573408E-16
2.760000E+03	9.914632E-15	5.024044E-16
2.800000E+03	1.043200E-14	5.509615E-16
2.840000E+03	1.097563E-14	6.006864E-16
2.880000E+03	1.153886E-14	6.490188E-16
2.920000E+03	1.211635E-14	6.934532E-16
2.960000E+03	1.269674E-14	7.311952E-16
3.000000E+03	1.327063E-14	7.596969E-16
3.010000E+03	1.341160E-14	7.650797E-16
3.020000E+03	1.355160E-14	7.697163E-16
3.030000E+03	1.369034E-14	7.735671E-16
3.040000E+03	1.382606E-14	7.765117E-16
3.050000E+03	1.395989E-14	7.785957E-16
3.060000E+03	1.409153E-14	7.797836E-16
3.070000E+03	1.421916E-14	7.799619E-16
3.080000E+03	1.434537E-14	7.792596E-16
3.090000E+03	1.446688E-14	7.774888E-16
3.100000E+03	1.458624E-14	7.747802E-16
3.110000E+03	1.470019E-14	7.709551E-16
3.120000E+03	1.481123E-14	7.661464E-16
3.130000E+03	1.491756E-14	7.602601E-16
3.140000E+03	1.501734E-14	7.532112E-16
3.150000E+03	1.511452E-14	7.452071E-16
3.160000E+03	1.520440E-14	7.360272E-16
3.170000E+03	1.528947E-14	7.258115E-16
3.180000E+03	1.536792E-14	7.144947E-16
3.190000E+03	1.543942E-14	7.020871E-16
3.200000E+03	1.550500E-14	6.886671E-16
3.210000E+03	1.556431E-14	6.742505E-16
3.220000E+03	1.561565E-14	6.588012E-16
3.230000E+03	1.566008E-14	6.424086E-16
3.240000E+03	1.569597E-14	6.250527E-16
3.250000E+03	1.572576E-14	6.068829E-16
3.260000E+03	1.574653E-14	5.878400E-16
3.270000E+03	1.575942E-14	5.680300E-16
3.280000E+03	1.576427E-14	5.475119E-16
3.290000E+03	1.576096E-14	5.263509E-16
3.300000E+03	1.574941E-14	5.046189E-16
3.310000E+03	1.573083E-14	4.824325E-16
3.320000E+03	1.570272E-14	4.597981E-16
3.330000E+03	1.566764E-14	4.368820E-16
3.340000E+03	1.562444E-14	4.137455E-16
3.350000E+03	1.557449E-14	3.905253E-16
3.360000E+03	1.551680E-14	3.673037E-16
3.370000E+03	1.545278E-14	3.442321E-16
3.380000E+03	1.538272E-14	3.214422E-16
3.390000E+03	1.530585E-14	2.990587E-16
3.400000E+03	1.522476E-14	2.772900E-16
3.410000E+03	1.513770E-14	2.562804E-16
3.420000E+03	1.504623E-14	2.362625E-16
3.430000E+03	1.495084E-14	2.174780E-16
3.440000E+03	1.485304E-14	2.002150E-16
3.450000E+03	1.475234E-14	1.847625E-16
3.460000E+03	1.464925E-14	1.714430E-16
3.470000E+03	1.454522E-14	1.605758E-16
3.480000E+03	1.443971E-14	1.523931E-16
3.490000E+03	1.433397E-14	1.470130E-16
3.500000E+03	1.422824E-14	1.443328E-16
3.510000E+03	1.412273E-14	1.440151E-16
3.520000E+03	1.401765E-14	1.455837E-16
3.530000E+03	1.391240E-14	1.485136E-16
3.540000E+03	1.380885E-14	1.523405E-16
3.550000E+03	1.370716E-14	1.566583E-16
3.560000E+03	1.360597E-14	1.611307E-16
3.570000E+03	1.350704E-14	1.655407E-16
3.580000E+03	1.341055E-14	1.697246E-16
3.590000E+03	1.331665E-14	1.735755E-16
3.600000E+03	1.322478E-14	1.770206E-16
3.610000E+03	1.313582E-14	1.800385E-16
3.620000E+03	1.305055E-14	1.826314E-16
3.630000E+03	1.296836E-14	1.847993E-16
3.640000E+03	1.288928E-14	1.865627E-16
3.650000E+03	1.281334E-14	1.879492E-16
3.660000E+03	1.274113E-14	1.889993E-16
3.670000E+03	1.267194E-14	1.897357E-16
3.680000E+03	1.260683E-14	1.902073E-16
3.690000E+03	1.254439E-14	1.904239E-16
3.700000E+03	1.248556E-14	1.904271E-16
3.710000E+03	1.242889E-14	1.902187E-16
3.720000E+03	1.237516E-14	1.898305E-16
3.730000E+03	1.232344E-14	1.892641E-16
3.740000E+03	1.227385E-14	1.885345E-16
3.750000E+03	1.222544E-14	1.876376E-16
3.760000E+03	1.217878E-14	1.865919E-16
3.770000E+03	1.213237E-14	1.853838E-16
3.780000E+03	1.208627E-14	1.840238E-16
3.790000E+03	1.204000E-14	1.825156E-16
3.800000E+03	1.199355E-14	1.808713E-16
3.810000E+03	1.194554E-14	1.790836E-16
3.820000E+03	1.189689E-14	1.771814E-16
3.830000E+03	1.184624E-14	1.751609E-16
3.840000E+03	1.179319E-14	1.730333E-16
3.850000E+03	1.173822E-14	1.708226E-16
3.860000E+03	1.168009E-14	1.685277E-16
3.870000E+03	1.161931E-14	1.661714E-16
3.880000E+03	1.155477E-14	1.637524E-16
3.890000E+03	1.148701E-14	1.612912E-16
3.900000E+03	1.141542E-14	1.587908E-16
3.910000E+03	1.134023E-14	1.562639E-16
3.920000E+03	1.126095E-14	1.537121E-16
3.930000E+03	1.117754E-14	1.511417E-16
3.940000E+03	1.109071E-14	1.485678E-16
3.950000E+03	1.099950E-14	1.459814E-16
3.960000E+03	1.090504E-14	1.434007E-16
3.970000E+03	1.080686E-14	1.408209E-16
3.980000E+03	1.070584E-14	1.382541E-16
3.990000E+03	1.060166E-14	1.356948E-16
4.000000E+03	1.049495E-14	1.331495E-16
4.010000E+03	1.038611E-14	1.306195E-16
4.020000E+03	1.027526E-14	1.281016E-16
4.030000E+03	1.016340E-14	1.256022E-16
4.040000E+03	1.005040E-14	1.231122E-16
4.050000E+03	9.936980E-15	1.206318E-16
4.060000E+03	9.823535E-15	1.181556E-16
4.070000E+03	9.710448E-15	1.156768E-16
4.080000E+03	9.597840E-15	1.131839E-16
4.090000E+03	9.486283E-15	1.106695E-16
4.100000E+03	9.375646E-15	1.081164E-16
4.110000E+03	9.266907E-15	1.055191E-16
4.120000E+03	9.159735E-15	1.028559E-16
4.130000E+03	9.054703E-15	1.001144E-16
4.140000E+03	8.952003E-15	9.727720E-17
4.150000E+03	8.852272E-15	9.433134E-17
4.160000E+03	8.755987E-15	9.126206E-17
4.170000E+03	8.663296E-15	8.805221E-17
4.180000E+03	8.574763E-15	8.469117E-17
4.190000E+03	8.491125E-15	8.117319E-17
4.200000E+03	8.412578E-15	7.749207E-17
4.210000E+03	8.339804E-15	7.365288E-17
4.220000E+03	8.273083E-15	6.966631E-17
4.230000E+03	8.212634E-15	6.555613E-17
4.240000E+03	8.158743E-15	6.136651E-17
4.250000E+03	8.111596E-15	5.717000E-17
4.260000E+03	8.070975E-15	5.307908E-17
4.270000E+03	8.037011E-15	4.926810E-17
4.280000E+03	8.009156E-15	4.598088E-17
4.290000E+03	7.987476E-15	4.353649E-17
4.300000E+03	7.971357E-15	4.227490E-17
4.310000E+03	7.960045E-15	4.244941E-17
4.320000E+03	7.952878E-15	4.407272E-17
4.330000E+03	7.948588E-15	4.688996E-17
4.340000E+03	7.945716E-15	5.053700E-17
4.350000E+03	7.943127E-15	5.466268E-17
4.360000E+03	7.939690E-15	5.897987E-17
4.370000E+03	7.934328E-15	6.327308E-17
4.380000E+03	7.926540E-15	6.739233E-17
4.390000E+03	7.915543E-15	7.123309E-17
4.400000E+03	7.901131E-15	7.473210E-17
4.410000E+03	7.883287E-15	7.785591E-17
4.420000E+03	7.861923E-15	8.059204E-17
4.430000E+03	7.837327E-15	8.294843E-17
4.440000E+03	7.809664E-15	8.494448E-17
4.450000E+03	7.779512E-15	8.661332E-17
4.460000E+03	7.747260E-15	8.799227E-17
4.470000E+03	7.713312E-15	8.912218E-17
4.480000E+03	7.678279E-15	9.004718E-17
4.490000E+03	7.642421E-15	9.080630E-17
4.500000E+03	7.606182E-15	9.143806E-17
4.510000E+03	7.570064E-15	9.197820E-17
4.520000E+03	7.534324E-15	9.245537E-17
4.530000E+03	7.499386E-15	9.289592E-17
4.540000E+03	7.465536E-15	9.332042E-17
4.550000E+03	7.432836E-15	9.374277E-17
4.560000E+03	7.401811E-15	9.417932E-17
4.570000E+03	7.372475E-15	9.463725E-17
4.580000E+03	7.345116E-15	9.512493E-17
4.590000E+03	7.319995E-15	9.564885E-17
4.600000E+03	7.297084E-15	9.621054E-17
4.610000E+03	7.276707E-15	9.681544E-17
4.620000E+03	7.258900E-15	9.746489E-17
4.630000E+03	7.243863E-15	9.816235E-17
4.640000E+03	7.231603E-15	9.890882E-17
4.650000E+03	7.222286E-15	9.970771E-17
4.660000E+03	7.215969E-15	1.005612E-16
4.670000E+03	7.212599E-15	1.014703E-16
4.680000E+03	7.212275E-15	1.024383E-16
4.690000E+03	7.214890E-15	1.034654E-16
4.700000E+03	7.220479E-15	1.045542E-16
4.710000E+03	7.228958E-15	1.057050E-16
4.720000E+03	7.240116E-15	1.069159E-16
4.730000E+03	7.253790E-15	1.081850E-16
4.740000E+03	7.269770E-15	1.095088E-16
4.750000E+03	7.287887E-15	1.108829E-16
4.760000E+03	7.307838E-15	1.122996E-16
4.770000E+03	7.329100E-15	1.137459E-16
4.780000E+03	7.351525E-15	1.152124E-16
4.790000E+03	7.374578E-15	1.166816E-16
4.800000E+03	7.397681E-15	1.181328E-16
4.810000E+03	7.420553E-15	1.195479E-16
4.820000E+03	7.442460E-15	1.208996E-16
4.830000E+03	7.462984E-15	1.221639E-16
4.840000E+03	7.481445E-15	1.233116E-16
4.850000E+03	7.497421E-15	1.243171E-16
4.860000E+03	7.510342E-15	1.251528E-16
4.870000E+03	7.519674E-15	1.257927E-16
4.880000E+03	7.525111E-15	1.262165E-16
4.890000E+03	7.526160E-15	1.264036E-16
4.900000E+03	7.522579E-15	1.263409E-16
4.910000E+03	7.514215E-15	1.260205E-16
4.920000E+03	7.500929E-15	1.254390E-16
4.930000E+03	7.482679E-15	1.245985E-16
4.940000E+03	7.459604E-15	1.235082E-16
4.950000E+03	7.431935E-15	1.221823E-16
4.960000E+03	7.399904E-15	1.206380E-16
4.970000E+03	7.363739E-15	1.188947E-16
4.980000E+03	7.324051E-15	1.169799E-16
4.990000E+03	7.281012E-15	1.149148E-16
5.000000E+03	7.235307E-15	1.127291E-16
5.010000E+03	7.187396E-15	1.104487E-16
5.020000E+03	7.137670E-15	1.080975E-16
5.030000E+03	7.086674E-15	1.057003E-16
5.040000E+03	7.034789E-15	1.032776E-16
5.050000E+03	6.982613E-15	1.008508E-16
5.060000E+03	6.930568E-15	9.843665E-17
5.070000E+03	6.878980E-15	9.604804E-17
5.080000E+03	6.828300E-15	9.369752E-17
5.090000E+03	6.778879E-15	9.139410E-17
5.100000E+03	6.731036E-15	8.914453E-17
5.110000E+03	6.685063E-15	8.695353E-17
5.120000E+03	6.641218E-15	8.482397E-17
5.130000E+03	6.599794E-15	8.275797E-17
5.140000E+03	6.560901E-15	8.075439E-17
5.150000E+03	6.524754E-15	7.881261E-17
5.160000E+03	6.491448E-15	7.692998E-17
5.170000E+03	6.460969E-15	7.510206E-17
5.180000E+03	6.433394E-15	7.332513E-17
5.190000E+03	6.408624E-15	7.159302E-17
5.200000E+03	6.386721E-15	6.990105E-17
5.210000E+03	6.367445E-15	6.824066E-17
5.220000E+03	6.350729E-15	6.660461E-17
5.230000E+03	6.336351E-15	6.498326E-17
5.240000E+03	6.324273E-15	6.336777E-17
5.250000E+03	6.314111E-15	6.174451E-17
5.260000E+03	6.305808E-15	6.010150E-17
5.270000E+03	6.299164E-15	5.842346E-17
5.280000E+03	6.293909E-15	5.669257E-17
5.290000E+03	6.289767E-15	5.488927E-17
5.300000E+03	6.286649E-15	5.299451E-17
5.310000E+03	6.284200E-15	5.098671E-17
5.320000E+03	6.282249E-15	4.884740E-17
5.330000E+03	6.280428E-15	4.656026E-17
5.340000E+03	6.278620E-15	4.411815E-17
5.350000E+03	6.276384E-15	4.152380E-17
5.360000E+03	6.273603E-15	3.880255E-17
5.370000E+03	6.269908E-15	3.601052E-17
5.380000E+03	6.265140E-15	3.325504E-17
5.390000E+03	6.258906E-15	3.071378E-17
5.400000E+03	6.251178E-15	2.865443E-17
5.410000E+03	6.241667E-15	2.741349E-17
5.420000E+03	6.230412E-15	2.730088E-17
5.430000E+03	6.217281E-15	2.840650E-17
5.440000E+03	6.202294E-15	3.051346E-17
5.450000E+03	6.185282E-15	3.328130E-17
5.460000E+03	6.166416E-15	3.639736E-17
5.470000E+03	6.145869E-15	3.962848E-17
5.480000E+03	6.123736E-15	4.281803E-17
5.490000E+03	6.100272E-15	4.586899E-17
5.500000E+03	6.075872E-15	4.872653E-17
5.510000E+03	6.050684E-15	5.136173E-17
5.520000E+03	6.025165E-15	5.376672E-17
5.530000E+03	5.999453E-15	5.594323E-17
5.540000E+03	5.973980E-15	5.790357E-17
5.550000E+03	5.948918E-15	5.966265E-17
5.560000E+03	5.924670E-15	6.124051E-17
5.570000E+03	5.901380E-15	6.265604E-17
5.580000E+03	5.879302E-15	6.392965E-17
5.590000E+03	5.858743E-15	6.508200E-17
5.600000E+03	5.839881E-15	6.613160E-17
5.610000E+03	5.822946E-15	6.709644E-17
5.620000E+03	5.808106E-15	6.799242E-17
5.630000E+03	5.795521E-15	6.883395E-17
5.640000E+03	5.785466E-15	6.963527E-17
5.650000E+03	5.778027E-15	7.040692E-17
5.660000E+03	5.773458E-15	7.116002E-17
5.670000E+03	5.771758E-15	7.190122E-17
5.680000E+03	5.773207E-15	7.263934E-17
5.690000E+03	5.777762E-15	7.337799E-17
5.700000E+03	5.785531E-15	7.412155E-17
5.710000E+03	5.796589E-15	7.487295E-17
5.720000E+03	5.810856E-15	7.563216E-17
5.730000E+03	5.828270E-15	7.639847E-17
5.740000E+03	5.848851E-15	7.717138E-17
5.750000E+03	5.872327E-15	7.794587E-17
5.760000E+03	5.898566E-15	7.871810E-17
5.770000E+03	5.927266E-15	7.948148E-17
5.780000E+03	5.958267E-15	8.023105E-17
5.790000E+03	5.991189E-15	8.095872E-17
5.800000E+03	6.025677E-15	8.165697E-17
5.810000E+03	6.061288E-15	8.231746E-17
5.820000E+03	6.097752E-15	8.293477E-17
5.830000E+03	6.134598E-15	8.350156E-17
5.840000E+03	6.171359E-15	8.401127E-17
5.850000E+03	6.207768E-15	8.446085E-17
5.860000E+03	6.243324E-15	8.484455E-17
5.870000E+03	6.277750E-15	8.516011E-17
5.880000E+03	6.310753E-15	8.540524E-17
5.890000E+03	6.342025E-15	8.557764E-17
5.900000E+03	6.371394E-15	8.567693E-17
5.910000E+03	6.398763E-15	8.570379E-17
5.920000E+03	6.424194E-15	8.566098E-17
5.930000E+03	6.447642E-15	8.554974E-17
5.940000E+03	6.469366E-15	8.537514E-17
5.950000E+03	6.489592E-15	8.514158E-17
5.960000E+03	6.508789E-15	8.485607E-17
5.970000E+03	6.527388E-15	8.452453E-17
5.980000E+03	6.545909E-15	8.415320E-17
5.990000E+03	6.565026E-15	8.374915E-17
6.000000E+03	6.585548E-15	8.331987E-17
6.010000E+03	6.608128E-15	8.286933E-17
6.020000E+03	6.633665E-15	8.240276E-17
6.030000E+03	6.662931E-15	8.192185E-17
6.040000E+03	6.696766E-15	8.142689E-17
6.050000E+03	6.735910E-15	8.091458E-17
6.060000E+03	6.781123E-15	8.037931E-17
6.070000E+03	6.833088E-15	7.981174E-17
6.080000E+03	6.892311E-15	7.919757E-17
6.090000E+03	6.959232E-15	7.851864E-17
6.100000E+03	7.034044E-15	7.775093E-17
6.110000E+03	7.116877E-15	7.686656E-17
6.120000E+03	7.207461E-15	7.583034E-17
6.130000E+03	7.305221E-15	7.460147E-17
6.140000E+03	7.409382E-15	7.313541E-17
6.150000E+03	7.518536E-15	7.138099E-17
6.160000E+03	7.631141E-15	6.928742E-17
6.170000E+03	7.744926E-15	6.680171E-17
6.180000E+03	7.857103E-15	6.387516E-17
6.190000E+03	7.964532E-15	6.047085E-17
6.200000E+03	8.063510E-15	5.657014E-17
6.210000E+03	8.149938E-15	5.218591E-17
6.220000E+03	8.219383E-15	4.738013E-17
6.230000E+03	8.267560E-15	4.229235E-17
6.240000E+03	8.290382E-15	3.717809E-17
6.250000E+03	8.284432E-15	3.246330E-17
6.260000E+03	8.247436E-15	2.877921E-17
6.270000E+03	8.178920E-15	2.684318E-17
6.280000E+03	8.080756E-15	2.699412E-17
6.290000E+03	7.958264E-15	2.875486E-17
6.300000E+03	7.818683E-15	3.130984E-17
6.310000E+03	7.669848E-15	3.402720E-17
6.320000E+03	7.519767E-15	3.656688E-17
6.330000E+03	7.375250E-15	3.880144E-17
6.340000E+03	7.242501E-15	4.073250E-17
6.350000E+03	7.126334E-15	4.242660E-17
6.360000E+03	7.030656E-15	4.398007E-17
6.370000E+03	6.957944E-15	4.549263E-17
6.380000E+03	6.910226E-15	4.706039E-17
6.390000E+03	6.888407E-15	4.876533E-17
6.400000E+03	6.893110E-15	5.067904E-17
6.410000E+03	6.924122E-15	5.285897E-17
6.420000E+03	6.981318E-15	5.535641E-17
6.430000E+03	7.063964E-15	5.821279E-17
6.440000E+03	7.171047E-15	6.146301E-17
6.450000E+03	7.301438E-15	6.513733E-17
6.460000E+03	7.453745E-15	6.925998E-17
6.470000E+03	7.625954E-15	7.384474E-17
6.480000E+03	7.816258E-15	7.890106E-17
6.490000E+03	8.022215E-15	8.442426E-17
6.500000E+03	8.241170E-15	9.039734E-17
6.510000E+03	8.470282E-15	9.678952E-17
6.520000E+03	8.706273E-15	1.035520E-16
6.530000E+03	8.945736E-15	1.106208E-16
6.540000E+03	9.185309E-15	1.179187E-16
6.550000E+03	9.421205E-15	1.253515E-16
6.560000E+03	9.649685E-15	1.328146E-16
6.570000E+03	9.867252E-15	1.401984E-16
6.580000E+03	1.007019E-14	1.473848E-16
6.590000E+03	1.025507E-14	1.542563E-16
6.600000E+03	1.041903E-14	1.607029E-16
6.610000E+03	1.055925E-14	1.666171E-16
6.620000E+03	1.067362E-14	1.719071E-16
6.630000E+03	1.076049E-14	1.764940E-16
6.640000E+03	1.081887E-14	1.803191E-16
6.650000E+03	1.084815E-14	1.833396E-16
6.660000E+03	1.084864E-14	1.855396E-16
6.670000E+03	1.082083E-14	1.869178E-16
6.680000E+03	1.076607E-14	1.874992E-16
6.690000E+03	1.068565E-14	1.873178E-16
6.700000E+03	1.058172E-14	1.864318E-16
6.710000E+03	1.045643E-14	1.849074E-16
6.720000E+03	1.031204E-14	1.828170E-16
6.730000E+03	1.015131E-14	1.802450E-16
6.740000E+03	9.976779E-15	1.772731E-16
6.750000E+03	9.790879E-15	1.739796E-16
6.760000E+03	9.596223E-15	1.704433E-16
6.770000E+03	9.395193E-15	1.667352E-16
6.780000E+03	9.190032E-15	1.629197E-16
6.790000E+03	8.982926E-15	1.590555E-16
6.800000E+03	8.775647E-15	1.551896E-16
6.810000E+03	8.569989E-15	1.513658E-16
6.820000E+03	8.367432E-15	1.476185E-16
6.830000E+03	8.169251E-15	1.439760E-16
6.840000E+03	7.976424E-15	1.404588E-16
6.850000E+03	7.790143E-15	1.370894E-16
6.860000E+03	7.610823E-15	1.338749E-16
6.870000E+03	7.439115E-15	1.308259E-16
6.880000E+03	7.275517E-15	1.279494E-16
6.890000E+03	7.120294E-15	1.252478E-16
6.900000E+03	6.973503E-15	1.227196E-16
6.910000E+03	6.835192E-15	1.203629E-16
6.920000E+03	6.705488E-15	1.181775E-16
6.930000E+03	6.584005E-15	1.161538E-16
6.940000E+03	6.470807E-15	1.142906E-16
6.950000E+03	6.365475E-15	1.125780E-16
6.960000E+03	6.267793E-15	1.110101E-16
6.970000E+03	6.177343E-15	1.095774E-16
6.980000E+03	6.093840E-15	1.082729E-16
6.990000E+03	6.016888E-15	1.070880E-16
7.000000E+03	5.945999E-15	1.060123E-16
7.010000E+03	5.880827E-15	1.050382E-16
7.020000E+03	5.820863E-15	1.041552E-16
7.030000E+03	5.765748E-15	1.033558E-16
7.040000E+03	5.715046E-15	1.026307E-16
7.050000E+03	5.668179E-15	1.019685E-16
7.060000E+03	5.624872E-15	1.013632E-16
7.070000E+03	5.584716E-15	1.008063E-16
7.080000E+03	5.547164E-15	1.002868E-16
7.090000E+03	5.511984E-15	9.979961E-17
7.100000E+03	5.478671E-15	9.933440E-17
7.110000E+03	5.446959E-15	9.888536E-17
7.120000E+03	5.416537E-15	9.844578E-17
7.130000E+03	5.387118E-15	9.800946E-17
7.140000E+03	5.358375E-15	9.756941E-17
7.150000E+03	5.330079E-15	9.712054E-17
7.160000E+03	5.302034E-15	9.665831E-17
7.170000E+03	5.274140E-15	9.618001E-17
7.180000E+03	5.246115E-15	9.567961E-17
7.190000E+03	5.217845E-15	9.515411E-17
7.200000E+03	5.189309E-15	9.460213E-17
7.210000E+03	5.160369E-15	9.402008E-17
7.220000E+03	5.130977E-15	9.340591E-17
7.230000E+03	5.101034E-15	9.275650E-17
7.240000E+03	5.070526E-15	9.207015E-17
7.250000E+03	5.039519E-15	9.134645E-17
7.260000E+03	5.007891E-15	9.058144E-17
7.270000E+03	4.975665E-15	8.977366E-17
7.280000E+03	4.942873E-15	8.892172E-17
7.290000E+03	4.909489E-15	8.802314E-17
7.300000E+03	4.875624E-15	8.707789E-17
7.310000E+03	4.841200E-15	8.608260E-17
7.320000E+03	4.806338E-15	8.503760E-17
7.330000E+03	4.770971E-15	8.394007E-17
7.340000E+03	4.735228E-15	8.279094E-17
7.350000E+03	4.699051E-15	8.158815E-17
7.360000E+03	4.662578E-15	8.033347E-17
7.370000E+03	4.625823E-15	7.902690E-17
7.380000E+03	4.588810E-15	7.766905E-17
7.390000E+03	4.551689E-15	7.626316E-17
7.400000E+03	4.514495E-15	7.481089E-17
7.410000E+03	4.477270E-15	7.331446E-17
7.420000E+03	4.440123E-15	7.177750E-17
7.430000E+03	4.403286E-15	7.020576E-17
7.440000E+03	4.366698E-15	6.860033E-17
7.450000E+03	4.330597E-15	6.696695E-17
7.460000E+03	4.295047E-15	6.530822E-17
7.470000E+03	4.260226E-15	6.362803E-17
7.480000E+03	4.226196E-15	6.192778E-17
7.490000E+03	4.193186E-15	6.021052E-17
7.500000E+03	4.161306E-15	5.847643E-17
7.510000E+03	4.130605E-15	5.672371E-17
7.520000E+03	4.101293E-15	5.495146E-17
7.530000E+03	4.073405E-15	5.315488E-17
7.540000E+03	4.047080E-15	5.132899E-17
7.550000E+03	4.022390E-15	4.946627E-17
7.560000E+03	3.999453E-15	4.755811E-17
7.570000E+03	3.978319E-15	4.559360E-17
7.580000E+03	3.959032E-15	4.356083E-17
7.590000E+03	3.941675E-15	4.144826E-17
7.600000E+03	3.926274E-15	3.924482E-17
7.610000E+03	3.912846E-15	3.694194E-17
7.620000E+03	3.901401E-15	3.453535E-17
7.630000E+03	3.891994E-15	3.202776E-17
7.640000E+03	3.884563E-15	2.943068E-17
7.650000E+03	3.879129E-15	2.677168E-17
7.660000E+03	3.875686E-15	2.410296E-17
7.670000E+03	3.874036E-15	2.151795E-17
7.680000E+03	3.874163E-15	1.918144E-17
7.690000E+03	3.875865E-15	1.735814E-17
7.700000E+03	3.879031E-15	1.640456E-17
7.710000E+03	3.883426E-15	1.663314E-17
7.720000E+03	3.888860E-15	1.806873E-17
7.730000E+03	3.895024E-15	2.043544E-17
7.740000E+03	3.901573E-15	2.339529E-17
7.750000E+03	3.908245E-15	2.668420E-17
7.760000E+03	3.914924E-15	3.012757E-17
