#wls	flux	fluxerr
1.600000E+03	4.835640E-15	6.517503E-16
1.640000E+03	4.924649E-15	6.182195E-16
1.680000E+03	5.010539E-15	5.834735E-16
1.720000E+03	5.093710E-15	5.478882E-16
1.760000E+03	5.174665E-15	5.118846E-16
1.800000E+03	5.252175E-15	4.757738E-16
1.840000E+03	5.327022E-15	4.401544E-16
1.880000E+03	5.399302E-15	4.056508E-16
1.920000E+03	5.468457E-15	3.729658E-16
1.960000E+03	5.537175E-15	3.431554E-16
2.000000E+03	5.605725E-15	3.171967E-16
2.040000E+03	5.676765E-15	2.962271E-16
2.080000E+03	5.752407E-15	2.811536E-16
2.120000E+03	5.835909E-15	2.723848E-16
2.160000E+03	5.927387E-15	2.693156E-16
2.200000E+03	6.031902E-15	2.710177E-16
2.240000E+03	6.150708E-15	2.762461E-16
2.280000E+03	6.286916E-15	2.839162E-16
2.320000E+03	6.440803E-15	2.928911E-16
2.360000E+03	6.616047E-15	3.023527E-16
2.400000E+03	6.811177E-15	3.115909E-16
2.440000E+03	7.029204E-15	3.205526E-16
2.480000E+03	7.271694E-15	3.296574E-16
2.520000E+03	7.541001E-15	3.399559E-16
2.560000E+03	7.843738E-15	3.532552E-16
2.600000E+03	8.181630E-15	3.714969E-16
2.640000E+03	8.561665E-15	3.966981E-16
2.680000E+03	8.982977E-15	4.294906E-16
2.720000E+03	9.446013E-15	4.693563E-16
2.760000E+03	9.945859E-15	5.147339E-16
2.800000E+03	1.047754E-14	5.635749E-16
2.840000E+03	1.103627E-14	6.135724E-16
2.880000E+03	1.161323E-14	6.620646E-16
2.920000E+03	1.220350E-14	7.065635E-16
2.960000E+03	1.279468E-14	7.441974E-16
3.000000E+03	1.337478E-14	7.722536E-16
3.010000E+03	1.351596E-14	7.774352E-16
3.020000E+03	1.365588E-14	7.818502E-16
3.030000E+03	1.379425E-14	7.854584E-16
3.040000E+03	1.392929E-14	7.881384E-16
3.050000E+03	1.406213E-14	7.899364E-16
3.060000E+03	1.419243E-14	7.908168E-16
3.070000E+03	1.431985E-14	7.907464E-16
3.080000E+03	1.444258E-14	7.896143E-16
3.090000E+03	1.456317E-14	7.875523E-16
3.100000E+03	1.467834E-14	7.843766E-16
3.110000E+03	1.478919E-14	7.801446E-16
3.120000E+03	1.489534E-14	7.748378E-16
3.130000E+03	1.499786E-14	7.685151E-16
3.140000E+03	1.509348E-14	7.610165E-16
3.150000E+03	1.518472E-14	7.524819E-16
3.160000E+03	1.526835E-14	7.427660E-16
3.170000E+03	1.534686E-14	7.320121E-16
3.180000E+03	1.541989E-14	7.202236E-16
3.190000E+03	1.548427E-14	7.072805E-16
3.200000E+03	1.554250E-14	6.933319E-16
3.210000E+03	1.559425E-14	6.783971E-16
3.220000E+03	1.563784E-14	6.624431E-16
3.230000E+03	1.567302E-14	6.455069E-16
3.240000E+03	1.570092E-14	6.276858E-16
3.250000E+03	1.572130E-14	6.090228E-16
3.260000E+03	1.573265E-14	5.895177E-16
3.270000E+03	1.573747E-14	5.693272E-16
3.280000E+03	1.573300E-14	5.484161E-16
3.290000E+03	1.572050E-14	5.269018E-16
3.300000E+03	1.569992E-14	5.048584E-16
3.310000E+03	1.567127E-14	4.823662E-16
3.320000E+03	1.563463E-14	4.595117E-16
3.330000E+03	1.559010E-14	4.363883E-16
3.340000E+03	1.553902E-14	4.131272E-16
3.350000E+03	1.547923E-14	3.897705E-16
3.360000E+03	1.541335E-14	3.664942E-16
3.370000E+03	1.534164E-14	3.434166E-16
3.380000E+03	1.526329E-14	3.206435E-16
3.390000E+03	1.517981E-14	2.983444E-16
3.400000E+03	1.509054E-14	2.766578E-16
3.410000E+03	1.499703E-14	2.557847E-16
3.420000E+03	1.489976E-14	2.359264E-16
3.430000E+03	1.479923E-14	2.173110E-16
3.440000E+03	1.469597E-14	2.001958E-16
3.450000E+03	1.459053E-14	1.848628E-16
3.460000E+03	1.448342E-14	1.716041E-16
3.470000E+03	1.437515E-14	1.606939E-16
3.480000E+03	1.426709E-14	1.523525E-16
3.490000E+03	1.415864E-14	1.466567E-16
3.500000E+03	1.405012E-14	1.435063E-16
3.510000E+03	1.394352E-14	1.426085E-16
3.520000E+03	1.383654E-14	1.435007E-16
3.530000E+03	1.373195E-14	1.457336E-16
3.540000E+03	1.362914E-14	1.488509E-16
3.550000E+03	1.352753E-14	1.524626E-16
3.560000E+03	1.342895E-14	1.562849E-16
3.570000E+03	1.333280E-14	1.600851E-16
3.580000E+03	1.323928E-14	1.637065E-16
3.590000E+03	1.314859E-14	1.670455E-16
3.600000E+03	1.306160E-14	1.700501E-16
3.610000E+03	1.297842E-14	1.726902E-16
3.620000E+03	1.289844E-14	1.749489E-16
3.630000E+03	1.282241E-14	1.768437E-16
3.640000E+03	1.275034E-14	1.783940E-16
3.650000E+03	1.268219E-14	1.796255E-16
3.660000E+03	1.261788E-14	1.805672E-16
3.670000E+03	1.255728E-14	1.812493E-16
3.680000E+03	1.250081E-14	1.817086E-16
3.690000E+03	1.244760E-14	1.819616E-16
3.700000E+03	1.239794E-14	1.820375E-16
3.710000E+03	1.235089E-14	1.819425E-16
3.720000E+03	1.230660E-14	1.816943E-16
3.730000E+03	1.226518E-14	1.813057E-16
3.740000E+03	1.222502E-14	1.807612E-16
3.750000E+03	1.218621E-14	1.800671E-16
3.760000E+03	1.214822E-14	1.792211E-16
3.770000E+03	1.211104E-14	1.782286E-16
3.780000E+03	1.207365E-14	1.770815E-16
3.790000E+03	1.203602E-14	1.757885E-16
3.800000E+03	1.199716E-14	1.743456E-16
3.810000E+03	1.195703E-14	1.727656E-16
3.820000E+03	1.191516E-14	1.710570E-16
3.830000E+03	1.187107E-14	1.692304E-16
3.840000E+03	1.182431E-14	1.672982E-16
3.850000E+03	1.177447E-14	1.652739E-16
3.860000E+03	1.172160E-14	1.631759E-16
3.870000E+03	1.166451E-14	1.610044E-16
3.880000E+03	1.160375E-14	1.587824E-16
3.890000E+03	1.153904E-14	1.565188E-16
3.900000E+03	1.146977E-14	1.542166E-16
3.910000E+03	1.139620E-14	1.518881E-16
3.920000E+03	1.131782E-14	1.495339E-16
3.930000E+03	1.123535E-14	1.471681E-16
3.940000E+03	1.114806E-14	1.447851E-16
3.950000E+03	1.105641E-14	1.423923E-16
3.960000E+03	1.096021E-14	1.399878E-16
3.970000E+03	1.086033E-14	1.375826E-16
3.980000E+03	1.075671E-14	1.351736E-16
3.990000E+03	1.064937E-14	1.327587E-16
4.000000E+03	1.053933E-14	1.303471E-16
4.010000E+03	1.042669E-14	1.279353E-16
4.020000E+03	1.031166E-14	1.255201E-16
4.030000E+03	1.019530E-14	1.231084E-16
4.040000E+03	1.007754E-14	1.206917E-16
4.050000E+03	9.959176E-15	1.182709E-16
4.060000E+03	9.840661E-15	1.158421E-16
4.070000E+03	9.722421E-15	1.133992E-16
4.080000E+03	9.604598E-15	1.109319E-16
4.090000E+03	9.487554E-15	1.084311E-16
4.100000E+03	9.371838E-15	1.058887E-16
4.110000E+03	9.257515E-15	1.032900E-16
4.120000E+03	9.145113E-15	1.006249E-16
4.130000E+03	9.034328E-15	9.787340E-17
4.140000E+03	8.926189E-15	9.502949E-17
4.150000E+03	8.820722E-15	9.207591E-17
4.160000E+03	8.718452E-15	8.899982E-17
4.170000E+03	8.619952E-15	8.578984E-17
4.180000E+03	8.525642E-15	8.243559E-17
4.190000E+03	8.436148E-15	7.893219E-17
4.200000E+03	8.352258E-15	7.528145E-17
4.210000E+03	8.274191E-15	7.148684E-17
4.220000E+03	8.202292E-15	6.756199E-17
4.230000E+03	8.137323E-15	6.353721E-17
4.240000E+03	8.079116E-15	5.945369E-17
4.250000E+03	8.028032E-15	5.538336E-17
4.260000E+03	7.983993E-15	5.143597E-17
4.270000E+03	7.946956E-15	4.777910E-17
4.280000E+03	7.916596E-15	4.464880E-17
4.290000E+03	7.892469E-15	4.234929E-17
4.300000E+03	7.873992E-15	4.120714E-17
4.310000E+03	7.860682E-15	4.146423E-17
4.320000E+03	7.851476E-15	4.312548E-17
4.330000E+03	7.844902E-15	4.593932E-17
4.340000E+03	7.839715E-15	4.955442E-17
4.350000E+03	7.834590E-15	5.363119E-17
4.360000E+03	7.828477E-15	5.789381E-17
4.370000E+03	7.820388E-15	6.213540E-17
4.380000E+03	7.809674E-15	6.621041E-17
4.390000E+03	7.795654E-15	7.001886E-17
4.400000E+03	7.778011E-15	7.349831E-17
4.410000E+03	7.756999E-15	7.661858E-17
4.420000E+03	7.732312E-15	7.936501E-17
4.430000E+03	7.704520E-15	8.174747E-17
4.440000E+03	7.673824E-15	8.378458E-17
4.450000E+03	7.640732E-15	8.550714E-17
4.460000E+03	7.605779E-15	8.695204E-17
4.470000E+03	7.569398E-15	8.815833E-17
4.480000E+03	7.532111E-15	8.916691E-17
4.490000E+03	7.494290E-15	9.001532E-17
4.500000E+03	7.456374E-15	9.073947E-17
4.510000E+03	7.418656E-15	9.137039E-17
4.520000E+03	7.381700E-15	9.193848E-17
4.530000E+03	7.345618E-15	9.246480E-17
4.540000E+03	7.310700E-15	9.296907E-17
4.550000E+03	7.277304E-15	9.346833E-17
4.560000E+03	7.245466E-15	9.397252E-17
4.570000E+03	7.215597E-15	9.449405E-17
4.580000E+03	7.187790E-15	9.503903E-17
4.590000E+03	7.162125E-15	9.561186E-17
4.600000E+03	7.138953E-15	9.621954E-17
4.610000E+03	7.118321E-15	9.686415E-17
4.620000E+03	7.100355E-15	9.754852E-17
4.630000E+03	7.085076E-15	9.827397E-17
4.640000E+03	7.072762E-15	9.904531E-17
4.650000E+03	7.063397E-15	9.986351E-17
4.660000E+03	7.056947E-15	1.007295E-16
4.670000E+03	7.053625E-15	1.016479E-16
4.680000E+03	7.053346E-15	1.026192E-16
4.690000E+03	7.056091E-15	1.036448E-16
4.700000E+03	7.061803E-15	1.047255E-16
4.710000E+03	7.070394E-15	1.058614E-16
4.720000E+03	7.081826E-15	1.070529E-16
4.730000E+03	7.095844E-15	1.082961E-16
4.740000E+03	7.112238E-15	1.095873E-16
4.750000E+03	7.130755E-15	1.109207E-16
4.760000E+03	7.151265E-15	1.122910E-16
4.770000E+03	7.173246E-15	1.136851E-16
4.780000E+03	7.196386E-15	1.150917E-16
4.790000E+03	7.220325E-15	1.164963E-16
4.800000E+03	7.244400E-15	1.178780E-16
4.810000E+03	7.268343E-15	1.192202E-16
4.820000E+03	7.291508E-15	1.204986E-16
4.830000E+03	7.313310E-15	1.216882E-16
4.840000E+03	7.333241E-15	1.227647E-16
4.850000E+03	7.350708E-15	1.237016E-16
4.860000E+03	7.365216E-15	1.244746E-16
4.870000E+03	7.376143E-15	1.250579E-16
4.880000E+03	7.383179E-15	1.254329E-16
4.890000E+03	7.385914E-15	1.255814E-16
4.900000E+03	7.383936E-15	1.254883E-16
4.910000E+03	7.377266E-15	1.251495E-16
4.920000E+03	7.365597E-15	1.245588E-16
4.930000E+03	7.349062E-15	1.237215E-16
4.940000E+03	7.327637E-15	1.226437E-16
4.950000E+03	7.301564E-15	1.213392E-16
4.960000E+03	7.271170E-15	1.198260E-16
4.970000E+03	7.236772E-15	1.181235E-16
4.980000E+03	7.198752E-15	1.162538E-16
4.990000E+03	7.157612E-15	1.142420E-16
5.000000E+03	7.113713E-15	1.121108E-16
5.010000E+03	7.067594E-15	1.098860E-16
5.020000E+03	7.019798E-15	1.075923E-16
5.030000E+03	6.970699E-15	1.052503E-16
5.040000E+03	6.920823E-15	1.028814E-16
5.050000E+03	6.870601E-15	1.005035E-16
5.060000E+03	6.820518E-15	9.813321E-17
5.070000E+03	6.770883E-15	9.578220E-17
5.080000E+03	6.722059E-15	9.346118E-17
5.090000E+03	6.674457E-15	9.117939E-17
5.100000E+03	6.628387E-15	8.894299E-17
5.110000E+03	6.584128E-15	8.675631E-17
5.120000E+03	6.542001E-15	8.462273E-17
5.130000E+03	6.502078E-15	8.254139E-17
5.140000E+03	6.464682E-15	8.051391E-17
5.150000E+03	6.429880E-15	7.853772E-17
5.160000E+03	6.397839E-15	7.661113E-17
5.170000E+03	6.368542E-15	7.472980E-17
5.180000E+03	6.341993E-15	7.288921E-17
5.190000E+03	6.318229E-15	7.108499E-17
5.200000E+03	6.297105E-15	6.931058E-17
5.210000E+03	6.278582E-15	6.756008E-17
5.220000E+03	6.262457E-15	6.582565E-17
5.230000E+03	6.248577E-15	6.409979E-17
5.240000E+03	6.236776E-15	6.237408E-17
5.250000E+03	6.226950E-15	6.064011E-17
5.260000E+03	6.218784E-15	5.888630E-17
5.270000E+03	6.212166E-15	5.710123E-17
5.280000E+03	6.206845E-15	5.527077E-17
5.290000E+03	6.202701E-15	5.338039E-17
5.300000E+03	6.199402E-15	5.141182E-17
5.310000E+03	6.196880E-15	4.934917E-17
5.320000E+03	6.194725E-15	4.717552E-17
5.330000E+03	6.192859E-15	4.487981E-17
5.340000E+03	6.190997E-15	4.245670E-17
5.350000E+03	6.188859E-15	3.991235E-17
5.360000E+03	6.186225E-15	3.727092E-17
5.370000E+03	6.182887E-15	3.458759E-17
5.380000E+03	6.178577E-15	3.196487E-17
5.390000E+03	6.173102E-15	2.957245E-17
5.400000E+03	6.166166E-15	2.766375E-17
5.410000E+03	6.157778E-15	2.655991E-17
5.420000E+03	6.147788E-15	2.655152E-17
5.430000E+03	6.136017E-15	2.771884E-17
5.440000E+03	6.122498E-15	2.985074E-17
5.450000E+03	6.107191E-15	3.262240E-17
5.460000E+03	6.090262E-15	3.573598E-17
5.470000E+03	6.071744E-15	3.896799E-17
5.480000E+03	6.051901E-15	4.216846E-17
5.490000E+03	6.030959E-15	4.524302E-17
5.500000E+03	6.009164E-15	4.813663E-17
5.510000E+03	5.986762E-15	5.082051E-17
5.520000E+03	5.964063E-15	5.328442E-17
5.530000E+03	5.941242E-15	5.552905E-17
5.540000E+03	5.918591E-15	5.756360E-17
5.550000E+03	5.896325E-15	5.940168E-17
5.560000E+03	5.874713E-15	6.106053E-17
5.570000E+03	5.854009E-15	6.255864E-17
5.580000E+03	5.834334E-15	6.391373E-17
5.590000E+03	5.815992E-15	6.514554E-17
5.600000E+03	5.799153E-15	6.627156E-17
5.610000E+03	5.783985E-15	6.730843E-17
5.620000E+03	5.770775E-15	6.827318E-17
5.630000E+03	5.759618E-15	6.917912E-17
5.640000E+03	5.750668E-15	7.003896E-17
5.650000E+03	5.744193E-15	7.086556E-17
5.660000E+03	5.740324E-15	7.166860E-17
5.670000E+03	5.739179E-15	7.245636E-17
5.680000E+03	5.740918E-15	7.323646E-17
5.690000E+03	5.745553E-15	7.401329E-17
5.700000E+03	5.753192E-15	7.479134E-17
5.710000E+03	5.763850E-15	7.557292E-17
5.720000E+03	5.777569E-15	7.635946E-17
5.730000E+03	5.794289E-15	7.715017E-17
5.740000E+03	5.813909E-15	7.794291E-17
5.750000E+03	5.836285E-15	7.873393E-17
5.760000E+03	5.861164E-15	7.951741E-17
5.770000E+03	5.888505E-15	8.028987E-17
5.780000E+03	5.917843E-15	8.104153E-17
5.790000E+03	5.948995E-15	8.176641E-17
5.800000E+03	5.981624E-15	8.245669E-17
5.810000E+03	6.015304E-15	8.310380E-17
5.820000E+03	6.049660E-15	8.370075E-17
5.830000E+03	6.084447E-15	8.424349E-17
5.840000E+03	6.119092E-15	8.472461E-17
5.850000E+03	6.153369E-15	8.514254E-17
5.860000E+03	6.186941E-15	8.549480E-17
5.870000E+03	6.219370E-15	8.577758E-17
5.880000E+03	6.250532E-15	8.599154E-17
5.890000E+03	6.280220E-15	8.613623E-17
5.900000E+03	6.308157E-15	8.620993E-17
5.910000E+03	6.334341E-15	8.621467E-17
5.920000E+03	6.358789E-15	8.615252E-17
5.930000E+03	6.381540E-15	8.602546E-17
5.940000E+03	6.402866E-15	8.583839E-17
5.950000E+03	6.423000E-15	8.559533E-17
5.960000E+03	6.442343E-15	8.530189E-17
5.970000E+03	6.461388E-15	8.496433E-17
5.980000E+03	6.480713E-15	8.458927E-17
5.990000E+03	6.500898E-15	8.418212E-17
6.000000E+03	6.522658E-15	8.374886E-17
6.010000E+03	6.546680E-15	8.329369E-17
6.020000E+03	6.573897E-15	8.282202E-17
6.030000E+03	6.604962E-15	8.233388E-17
6.040000E+03	6.640665E-15	8.182896E-17
6.050000E+03	6.681688E-15	8.130315E-17
6.060000E+03	6.728882E-15	8.075196E-17
6.070000E+03	6.782649E-15	8.016284E-17
6.080000E+03	6.843647E-15	7.952334E-17
6.090000E+03	6.912178E-15	7.881385E-17
6.100000E+03	6.988363E-15	7.800987E-17
6.110000E+03	7.072183E-15	7.708216E-17
6.120000E+03	7.163442E-15	7.599701E-17
6.130000E+03	7.261407E-15	7.471290E-17
6.140000E+03	7.365218E-15	7.318562E-17
6.150000E+03	7.473541E-15	7.136651E-17
6.160000E+03	7.584593E-15	6.920507E-17
6.170000E+03	7.696007E-15	6.665057E-17
6.180000E+03	7.804993E-15	6.365855E-17
6.190000E+03	7.908252E-15	6.019619E-17
6.200000E+03	8.001998E-15	5.625021E-17
6.210000E+03	8.082159E-15	5.184042E-17
6.220000E+03	8.144157E-15	4.703430E-17
6.230000E+03	8.183740E-15	4.197509E-17
6.240000E+03	8.196608E-15	3.691375E-17
6.250000E+03	8.179536E-15	3.225733E-17
6.260000E+03	8.130202E-15	2.858693E-17
6.270000E+03	8.048289E-15	2.654503E-17
6.280000E+03	7.935913E-15	2.642474E-17
6.290000E+03	7.799264E-15	2.778061E-17
6.300000E+03	7.646357E-15	2.986518E-17
6.310000E+03	7.485920E-15	3.210058E-17
6.320000E+03	7.326163E-15	3.417854E-17
6.330000E+03	7.174319E-15	3.599570E-17
6.340000E+03	7.036587E-15	3.757034E-17
6.350000E+03	6.917703E-15	3.897930E-17
6.360000E+03	6.821092E-15	4.032382E-17
6.370000E+03	6.749329E-15	4.170668E-17
6.380000E+03	6.703768E-15	4.321296E-17
6.390000E+03	6.685106E-15	4.491287E-17
6.400000E+03	6.693538E-15	4.686454E-17
6.410000E+03	6.728860E-15	4.911370E-17
6.420000E+03	6.790649E-15	5.169889E-17
6.430000E+03	6.878082E-15	5.465313E-17
6.440000E+03	6.990173E-15	5.800500E-17
6.450000E+03	7.125780E-15	6.178032E-17
6.460000E+03	7.283428E-15	6.600070E-17
6.470000E+03	7.461359E-15	7.068150E-17
6.480000E+03	7.657425E-15	7.582959E-17
6.490000E+03	7.869443E-15	8.144466E-17
6.500000E+03	8.094659E-15	8.751046E-17
6.510000E+03	8.330115E-15	9.399673E-17
6.520000E+03	8.572705E-15	1.008584E-16
6.530000E+03	8.818922E-15	1.080308E-16
6.540000E+03	9.065300E-15	1.154355E-16
6.550000E+03	9.308254E-15	1.229806E-16
6.560000E+03	9.543915E-15	1.305603E-16
6.570000E+03	9.768634E-15	1.380634E-16
6.580000E+03	9.978735E-15	1.453729E-16
6.590000E+03	1.017071E-14	1.523712E-16
6.600000E+03	1.034135E-14	1.589438E-16
6.610000E+03	1.048810E-14	1.649880E-16
6.620000E+03	1.060845E-14	1.704045E-16
6.630000E+03	1.070095E-14	1.751170E-16
6.640000E+03	1.076453E-14	1.790632E-16
6.650000E+03	1.079853E-14	1.821983E-16
6.660000E+03	1.080329E-14	1.845052E-16
6.670000E+03	1.077931E-14	1.859811E-16
6.680000E+03	1.072769E-14	1.866453E-16
6.690000E+03	1.065027E-14	1.865406E-16
6.700000E+03	1.054882E-14	1.857183E-16
6.710000E+03	1.042569E-14	1.842472E-16
6.720000E+03	1.028314E-14	1.822011E-16
6.730000E+03	1.012384E-14	1.796635E-16
6.740000E+03	9.950376E-15	1.767179E-16
6.750000E+03	9.765456E-15	1.734490E-16
6.760000E+03	9.571347E-15	1.699308E-16
6.770000E+03	9.370834E-15	1.662423E-16
6.780000E+03	9.166056E-15	1.624468E-16
6.790000E+03	8.958992E-15	1.585998E-16
6.800000E+03	8.751664E-15	1.547531E-16
6.810000E+03	8.545883E-15	1.509506E-16
6.820000E+03	8.343027E-15	1.472251E-16
6.830000E+03	8.144489E-15	1.436064E-16
6.840000E+03	7.951246E-15	1.401144E-16
6.850000E+03	7.764299E-15	1.367678E-16
6.860000E+03	7.584364E-15	1.335783E-16
6.870000E+03	7.411991E-15	1.305538E-16
6.880000E+03	7.247491E-15	1.276975E-16
6.890000E+03	7.091329E-15	1.250145E-16
6.900000E+03	6.943470E-15	1.225011E-16
6.910000E+03	6.804152E-15	1.201581E-16
6.920000E+03	6.673239E-15	1.179802E-16
6.930000E+03	6.550615E-15	1.159620E-16
6.940000E+03	6.436097E-15	1.140977E-16
6.950000E+03	6.329441E-15	1.123801E-16
6.960000E+03	6.230362E-15	1.108019E-16
6.970000E+03	6.138616E-15	1.093566E-16
6.980000E+03	6.053759E-15	1.080343E-16
6.990000E+03	5.975329E-15	1.068249E-16
7.000000E+03	5.903088E-15	1.057227E-16
7.010000E+03	5.836541E-15	1.047173E-16
7.020000E+03	5.775266E-15	1.037999E-16
7.030000E+03	5.718838E-15	1.029616E-16
7.040000E+03	5.666832E-15	1.021936E-16
7.050000E+03	5.618828E-15	1.014873E-16
7.060000E+03	5.574336E-15	1.008328E-16
7.070000E+03	5.533029E-15	1.002233E-16
7.080000E+03	5.494516E-15	9.965066E-17
7.090000E+03	5.458349E-15	9.910587E-17
7.100000E+03	5.424246E-15	9.858284E-17
7.110000E+03	5.391723E-15	9.807184E-17
7.120000E+03	5.360618E-15	9.756904E-17
7.130000E+03	5.330572E-15	9.706693E-17
7.140000E+03	5.301254E-15	9.655859E-17
7.150000E+03	5.272507E-15	9.604041E-17
7.160000E+03	5.244132E-15	9.550795E-17
7.170000E+03	5.215813E-15	9.495478E-17
7.180000E+03	5.187548E-15	9.438024E-17
7.190000E+03	5.159076E-15	9.377884E-17
7.200000E+03	5.130443E-15	9.315067E-17
7.210000E+03	5.101364E-15	9.248974E-17
7.220000E+03	5.071923E-15	9.179665E-17
7.230000E+03	5.041943E-15	9.106709E-17
7.240000E+03	5.011472E-15	9.030082E-17
7.250000E+03	4.980431E-15	8.949507E-17
7.260000E+03	4.948891E-15	8.864974E-17
7.270000E+03	4.916728E-15	8.776113E-17
7.280000E+03	4.883965E-15	8.682807E-17
7.290000E+03	4.850700E-15	8.585069E-17
7.300000E+03	4.816834E-15	8.482570E-17
7.310000E+03	4.782410E-15	8.375228E-17
7.320000E+03	4.747540E-15	8.263102E-17
7.330000E+03	4.712208E-15	8.146041E-17
7.340000E+03	4.676404E-15	8.023922E-17
7.350000E+03	4.640189E-15	7.896774E-17
7.360000E+03	4.603626E-15	7.764667E-17
7.370000E+03	4.566785E-15	7.627705E-17
7.380000E+03	4.529680E-15	7.485941E-17
7.390000E+03	4.492456E-15	7.339700E-17
7.400000E+03	4.455080E-15	7.189045E-17
7.410000E+03	4.417713E-15	7.034412E-17
7.420000E+03	4.380462E-15	6.876185E-17
7.430000E+03	4.343439E-15	6.714779E-17
7.440000E+03	4.306703E-15	6.550549E-17
7.450000E+03	4.270436E-15	6.384037E-17
7.460000E+03	4.234763E-15	6.215656E-17
7.470000E+03	4.199750E-15	6.045702E-17
7.480000E+03	4.165580E-15	5.874585E-17
7.490000E+03	4.132373E-15	5.702527E-17
7.500000E+03	4.100243E-15	5.529667E-17
7.510000E+03	4.069360E-15	5.356106E-17
7.520000E+03	4.039773E-15	5.181642E-17
7.530000E+03	4.011582E-15	5.006018E-17
7.540000E+03	3.984993E-15	4.828944E-17
7.550000E+03	3.960034E-15	4.649704E-17
7.560000E+03	3.936781E-15	4.467467E-17
7.570000E+03	3.915353E-15	4.281246E-17
7.580000E+03	3.895749E-15	4.089712E-17
7.590000E+03	3.878067E-15	3.891600E-17
7.600000E+03	3.862400E-15	3.685767E-17
7.610000E+03	3.848728E-15	3.471251E-17
7.620000E+03	3.837137E-15	3.247710E-17
7.630000E+03	3.827660E-15	3.015513E-17
7.640000E+03	3.820267E-15	2.776067E-17
7.650000E+03	3.815072E-15	2.532463E-17
7.660000E+03	3.811932E-15	2.289876E-17
7.670000E+03	3.810853E-15	2.057303E-17
7.680000E+03	3.811685E-15	1.850007E-17
7.690000E+03	3.814188E-15	1.692185E-17
7.700000E+03	3.818135E-15	1.615454E-17
7.710000E+03	3.823399E-15	1.646820E-17
7.720000E+03	3.829537E-15	1.787863E-17
7.730000E+03	3.836397E-15	2.014367E-17
7.740000E+03	3.843575E-15	2.296509E-17
7.750000E+03	3.850873E-15	2.610533E-17
7.760000E+03	3.858075E-15	2.940233E-17
