#wls	flux	fluxerr
1.600000E+03	4.619684E-15	6.438318E-16
1.640000E+03	4.694946E-15	6.118906E-16
1.680000E+03	4.767314E-15	5.790491E-16
1.720000E+03	4.836532E-15	5.455915E-16
1.760000E+03	4.902455E-15	5.118652E-16
1.800000E+03	4.965946E-15	4.783724E-16
1.840000E+03	5.026360E-15	4.455190E-16
1.880000E+03	5.084137E-15	4.138967E-16
1.920000E+03	5.141744E-15	3.843235E-16
1.960000E+03	5.198492E-15	3.574267E-16
2.000000E+03	5.257513E-15	3.341597E-16
2.040000E+03	5.319653E-15	3.152779E-16
2.080000E+03	5.387795E-15	3.015036E-16
2.120000E+03	5.464038E-15	2.931029E-16
2.160000E+03	5.550309E-15	2.897091E-16
2.200000E+03	5.649444E-15	2.906041E-16
2.240000E+03	5.762594E-15	2.948595E-16
2.280000E+03	5.893608E-15	3.017152E-16
2.320000E+03	6.043148E-15	3.102919E-16
2.360000E+03	6.213361E-15	3.199216E-16
2.400000E+03	6.405602E-15	3.301742E-16
2.440000E+03	6.622563E-15	3.410420E-16
2.480000E+03	6.866522E-15	3.528950E-16
2.520000E+03	7.141377E-15	3.665996E-16
2.560000E+03	7.450641E-15	3.833730E-16
2.600000E+03	7.798138E-15	4.046701E-16
2.640000E+03	8.190446E-15	4.319781E-16
2.680000E+03	8.625919E-15	4.656351E-16
2.720000E+03	9.104112E-15	5.051797E-16
2.760000E+03	9.621504E-15	5.493930E-16
2.800000E+03	1.017281E-14	5.965271E-16
2.840000E+03	1.074960E-14	6.443434E-16
2.880000E+03	1.134406E-14	6.904312E-16
2.920000E+03	1.194362E-14	7.319912E-16
2.960000E+03	1.253483E-14	7.661728E-16
3.000000E+03	1.310490E-14	7.903091E-16
3.010000E+03	1.324199E-14	7.944483E-16
3.020000E+03	1.337600E-14	7.977305E-16
3.030000E+03	1.350805E-14	8.002032E-16
3.040000E+03	1.363496E-14	8.016599E-16
3.050000E+03	1.375926E-14	8.022371E-16
3.060000E+03	1.388063E-14	8.019022E-16
3.070000E+03	1.399586E-14	8.004600E-16
3.080000E+03	1.410751E-14	7.980518E-16
3.090000E+03	1.421525E-14	7.946535E-16
3.100000E+03	1.431587E-14	7.900855E-16
3.110000E+03	1.441337E-14	7.845725E-16
3.120000E+03	1.450312E-14	7.778669E-16
3.130000E+03	1.458912E-14	7.701945E-16
3.140000E+03	1.466678E-14	7.613241E-16
3.150000E+03	1.474009E-14	7.514825E-16
3.160000E+03	1.480452E-14	7.404571E-16
3.170000E+03	1.486405E-14	7.284750E-16
3.180000E+03	1.491562E-14	7.154112E-16
3.190000E+03	1.496040E-14	7.013567E-16
3.200000E+03	1.499682E-14	6.862731E-16
3.210000E+03	1.502744E-14	6.703199E-16
3.220000E+03	1.504937E-14	6.534083E-16
3.230000E+03	1.506248E-14	6.355858E-16
3.240000E+03	1.506939E-14	6.170155E-16
3.250000E+03	1.506734E-14	5.976373E-16
3.260000E+03	1.505895E-14	5.776160E-16
3.270000E+03	1.504157E-14	5.569106E-16
3.280000E+03	1.501656E-14	5.356413E-16
3.290000E+03	1.498397E-14	5.138800E-16
3.300000E+03	1.494392E-14	4.917040E-16
3.310000E+03	1.489778E-14	4.692339E-16
3.320000E+03	1.484323E-14	4.464759E-16
3.330000E+03	1.478296E-14	4.235975E-16
3.340000E+03	1.471480E-14	4.006236E-16
3.350000E+03	1.464142E-14	3.777232E-16
3.360000E+03	1.456197E-14	3.549694E-16
3.370000E+03	1.447680E-14	3.324768E-16
3.380000E+03	1.438743E-14	3.103918E-16
3.390000E+03	1.429315E-14	2.888177E-16
3.400000E+03	1.419443E-14	2.678969E-16
3.410000E+03	1.409280E-14	2.478033E-16
3.420000E+03	1.398873E-14	2.287016E-16
3.430000E+03	1.388065E-14	2.107424E-16
3.440000E+03	1.377215E-14	1.941743E-16
3.450000E+03	1.366172E-14	1.791778E-16
3.460000E+03	1.354987E-14	1.659667E-16
3.470000E+03	1.343804E-14	1.547432E-16
3.480000E+03	1.332663E-14	1.456490E-16
3.490000E+03	1.321600E-14	1.387404E-16
3.500000E+03	1.310650E-14	1.339366E-16
3.510000E+03	1.299771E-14	1.309925E-16
3.520000E+03	1.289097E-14	1.295873E-16
3.530000E+03	1.278673E-14	1.293543E-16
3.540000E+03	1.268540E-14	1.299428E-16
3.550000E+03	1.258740E-14	1.310498E-16
3.560000E+03	1.249389E-14	1.324382E-16
3.570000E+03	1.240361E-14	1.339079E-16
3.580000E+03	1.231768E-14	1.353400E-16
3.590000E+03	1.223711E-14	1.366583E-16
3.600000E+03	1.216137E-14	1.378069E-16
3.610000E+03	1.209063E-14	1.387662E-16
3.620000E+03	1.202502E-14	1.395325E-16
3.630000E+03	1.196531E-14	1.401252E-16
3.640000E+03	1.191082E-14	1.405566E-16
3.650000E+03	1.186147E-14	1.408485E-16
3.660000E+03	1.181785E-14	1.410338E-16
3.670000E+03	1.177973E-14	1.411376E-16
3.680000E+03	1.174618E-14	1.411710E-16
3.690000E+03	1.171686E-14	1.411510E-16
3.700000E+03	1.169202E-14	1.410986E-16
3.710000E+03	1.167113E-14	1.410188E-16
3.720000E+03	1.165364E-14	1.409128E-16
3.730000E+03	1.163835E-14	1.407713E-16
3.740000E+03	1.162526E-14	1.405931E-16
3.750000E+03	1.161373E-14	1.403676E-16
3.760000E+03	1.160309E-14	1.400844E-16
3.770000E+03	1.159215E-14	1.397219E-16
3.780000E+03	1.158141E-14	1.392817E-16
3.790000E+03	1.156913E-14	1.387409E-16
3.800000E+03	1.155526E-14	1.380976E-16
3.810000E+03	1.153922E-14	1.373482E-16
3.820000E+03	1.152045E-14	1.364950E-16
3.830000E+03	1.149838E-14	1.355428E-16
3.840000E+03	1.147250E-14	1.345018E-16
3.850000E+03	1.144281E-14	1.333923E-16
3.860000E+03	1.140781E-14	1.322141E-16
3.870000E+03	1.136757E-14	1.309867E-16
3.880000E+03	1.132172E-14	1.297239E-16
3.890000E+03	1.126994E-14	1.284333E-16
3.900000E+03	1.121245E-14	1.271269E-16
3.910000E+03	1.114814E-14	1.257987E-16
3.920000E+03	1.107741E-14	1.244519E-16
3.930000E+03	1.100072E-14	1.230880E-16
3.940000E+03	1.091726E-14	1.216926E-16
3.950000E+03	1.082767E-14	1.202609E-16
3.960000E+03	1.073264E-14	1.187882E-16
3.970000E+03	1.063168E-14	1.172584E-16
3.980000E+03	1.052562E-14	1.156672E-16
3.990000E+03	1.041494E-14	1.140093E-16
4.000000E+03	1.030017E-14	1.122839E-16
4.010000E+03	1.018154E-14	1.104855E-16
4.020000E+03	1.006040E-14	1.086254E-16
4.030000E+03	9.936670E-15	1.067020E-16
4.040000E+03	9.811357E-15	1.047230E-16
4.050000E+03	9.684758E-15	1.026907E-16
4.060000E+03	9.557478E-15	1.006121E-16
4.070000E+03	9.430688E-15	9.849590E-17
4.080000E+03	9.303897E-15	9.633370E-17
4.090000E+03	9.178151E-15	9.413286E-17
4.100000E+03	9.053485E-15	9.188403E-17
4.110000E+03	8.929927E-15	8.957772E-17
4.120000E+03	8.808386E-15	8.721319E-17
4.130000E+03	8.688947E-15	8.477636E-17
4.140000E+03	8.571761E-15	8.225490E-17
4.150000E+03	8.457580E-15	7.964401E-17
4.160000E+03	8.346977E-15	7.693446E-17
4.170000E+03	8.240325E-15	7.411749E-17
4.180000E+03	8.138283E-15	7.118923E-17
4.190000E+03	8.041532E-15	6.814368E-17
4.200000E+03	7.950730E-15	6.497775E-17
4.210000E+03	7.866451E-15	6.169103E-17
4.220000E+03	7.789137E-15	5.828158E-17
4.230000E+03	7.718894E-15	5.475511E-17
4.240000E+03	7.655887E-15	5.113456E-17
4.250000E+03	7.600256E-15	4.746319E-17
4.260000E+03	7.551328E-15	4.382211E-17
4.270000E+03	7.508844E-15	4.035924E-17
4.280000E+03	7.472050E-15	3.730112E-17
4.290000E+03	7.439803E-15	3.497624E-17
4.300000E+03	7.411159E-15	3.378004E-17
4.310000E+03	7.384375E-15	3.402425E-17
4.320000E+03	7.358566E-15	3.572444E-17
4.330000E+03	7.332354E-15	3.856240E-17
4.340000E+03	7.304995E-15	4.212277E-17
4.350000E+03	7.275450E-15	4.603967E-17
4.360000E+03	7.243003E-15	5.004338E-17
4.370000E+03	7.206991E-15	5.394643E-17
4.380000E+03	7.167448E-15	5.763076E-17
4.390000E+03	7.123914E-15	6.102075E-17
4.400000E+03	7.076718E-15	6.407679E-17
4.410000E+03	7.025868E-15	6.678056E-17
4.420000E+03	6.972154E-15	6.913935E-17
4.430000E+03	6.915841E-15	7.116743E-17
4.440000E+03	6.857741E-15	7.289499E-17
4.450000E+03	6.798515E-15	7.435819E-17
4.460000E+03	6.738654E-15	7.559376E-17
4.470000E+03	6.678628E-15	7.664063E-17
4.480000E+03	6.619284E-15	7.754191E-17
4.490000E+03	6.560790E-15	7.832790E-17
4.500000E+03	6.503684E-15	7.903059E-17
4.510000E+03	6.448304E-15	7.967707E-17
4.520000E+03	6.394793E-15	8.028638E-17
4.530000E+03	6.343397E-15	8.087597E-17
4.540000E+03	6.294326E-15	8.146052E-17
4.550000E+03	6.247758E-15	8.204987E-17
4.560000E+03	6.203850E-15	8.265187E-17
4.570000E+03	6.162618E-15	8.327132E-17
4.580000E+03	6.124310E-15	8.391340E-17
4.590000E+03	6.089037E-15	8.458097E-17
4.600000E+03	6.056781E-15	8.527504E-17
4.610000E+03	6.027631E-15	8.599655E-17
4.620000E+03	6.001666E-15	8.674668E-17
4.630000E+03	5.979072E-15	8.752867E-17
4.640000E+03	5.959782E-15	8.834132E-17
4.650000E+03	5.943835E-15	8.918553E-17
4.660000E+03	5.931258E-15	9.006274E-17
4.670000E+03	5.921941E-15	9.097158E-17
4.680000E+03	5.916097E-15	9.191615E-17
4.690000E+03	5.913580E-15	9.289560E-17
4.700000E+03	5.914329E-15	9.390942E-17
4.710000E+03	5.918151E-15	9.495521E-17
4.720000E+03	5.925045E-15	9.603374E-17
4.730000E+03	5.934976E-15	9.714390E-17
4.740000E+03	5.947549E-15	9.827856E-17
4.750000E+03	5.962667E-15	9.943498E-17
4.760000E+03	5.980078E-15	1.006062E-16
4.770000E+03	5.999494E-15	1.017841E-16
4.780000E+03	6.020592E-15	1.029590E-16
4.790000E+03	6.042997E-15	1.041186E-16
4.800000E+03	6.066300E-15	1.052490E-16
4.810000E+03	6.090061E-15	1.063352E-16
4.820000E+03	6.113800E-15	1.073593E-16
4.830000E+03	6.137126E-15	1.083048E-16
4.840000E+03	6.159417E-15	1.091506E-16
4.850000E+03	6.180151E-15	1.098763E-16
4.860000E+03	6.198813E-15	1.104621E-16
4.870000E+03	6.215029E-15	1.108917E-16
4.880000E+03	6.228375E-15	1.111483E-16
4.890000E+03	6.238379E-15	1.112160E-16
4.900000E+03	6.244854E-15	1.110865E-16
4.910000E+03	6.247597E-15	1.107534E-16
4.920000E+03	6.246384E-15	1.102127E-16
4.930000E+03	6.241391E-15	1.094706E-16
4.940000E+03	6.232473E-15	1.085297E-16
4.950000E+03	6.219984E-15	1.074042E-16
4.960000E+03	6.204033E-15	1.061058E-16
4.970000E+03	6.184916E-15	1.046496E-16
4.980000E+03	6.162975E-15	1.030532E-16
4.990000E+03	6.138683E-15	1.013368E-16
5.000000E+03	6.112314E-15	9.951642E-17
5.010000E+03	6.084248E-15	9.761037E-17
5.020000E+03	6.055068E-15	9.563958E-17
5.030000E+03	6.024942E-15	9.361670E-17
5.040000E+03	5.994326E-15	9.155832E-17
5.050000E+03	5.963468E-15	8.947665E-17
5.060000E+03	5.932884E-15	8.738537E-17
5.070000E+03	5.902682E-15	8.529099E-17
5.080000E+03	5.873248E-15	8.320315E-17
5.090000E+03	5.844940E-15	8.112860E-17
5.100000E+03	5.817816E-15	7.906922E-17
5.110000E+03	5.792294E-15	7.703144E-17
5.120000E+03	5.768390E-15	7.501429E-17
5.130000E+03	5.746473E-15	7.302150E-17
5.140000E+03	5.726604E-15	7.105289E-17
5.150000E+03	5.708989E-15	6.910866E-17
5.160000E+03	5.693524E-15	6.718594E-17
5.170000E+03	5.680440E-15	6.528657E-17
5.180000E+03	5.669636E-15	6.340738E-17
5.190000E+03	5.661072E-15	6.154717E-17
5.200000E+03	5.654764E-15	5.970670E-17
5.210000E+03	5.650512E-15	5.788335E-17
5.220000E+03	5.648274E-15	5.607794E-17
5.230000E+03	5.647727E-15	5.428990E-17
5.240000E+03	5.648895E-15	5.252063E-17
5.250000E+03	5.651528E-15	5.077015E-17
5.260000E+03	5.655554E-15	4.904047E-17
5.270000E+03	5.660720E-15	4.732790E-17
5.280000E+03	5.666860E-15	4.562936E-17
5.290000E+03	5.673804E-15	4.394029E-17
5.300000E+03	5.681362E-15	4.224902E-17
5.310000E+03	5.689420E-15	4.054372E-17
5.320000E+03	5.697674E-15	3.881066E-17
5.330000E+03	5.705874E-15	3.703102E-17
5.340000E+03	5.713752E-15	3.519099E-17
5.350000E+03	5.721011E-15	3.328538E-17
5.360000E+03	5.727303E-15	3.131586E-17
5.370000E+03	5.732344E-15	2.931374E-17
5.380000E+03	5.735528E-15	2.735363E-17
5.390000E+03	5.736519E-15	2.556485E-17
5.400000E+03	5.734607E-15	2.415749E-17
5.410000E+03	5.729453E-15	2.341428E-17
5.420000E+03	5.720394E-15	2.359327E-17
5.430000E+03	5.707456E-15	2.477044E-17
5.440000E+03	5.690891E-15	2.676022E-17
5.450000E+03	5.671107E-15	2.927790E-17
5.460000E+03	5.648845E-15	3.206967E-17
5.470000E+03	5.624594E-15	3.495030E-17
5.480000E+03	5.598861E-15	3.779561E-17
5.490000E+03	5.572112E-15	4.053042E-17
5.500000E+03	5.544772E-15	4.311378E-17
5.510000E+03	5.517196E-15	4.552385E-17
5.520000E+03	5.489779E-15	4.775474E-17
5.530000E+03	5.462712E-15	4.980950E-17
5.540000E+03	5.436221E-15	5.169529E-17
5.550000E+03	5.410504E-15	5.342358E-17
5.560000E+03	5.385824E-15	5.500955E-17
5.570000E+03	5.362249E-15	5.646573E-17
5.580000E+03	5.339919E-15	5.780636E-17
5.590000E+03	5.319050E-15	5.904721E-17
5.600000E+03	5.299769E-15	6.020112E-17
5.610000E+03	5.282114E-15	6.127990E-17
5.620000E+03	5.266291E-15	6.229709E-17
5.630000E+03	5.252420E-15	6.326288E-17
5.640000E+03	5.240621E-15	6.418707E-17
5.650000E+03	5.230926E-15	6.507800E-17
5.660000E+03	5.223606E-15	6.594463E-17
5.670000E+03	5.218678E-15	6.679231E-17
5.680000E+03	5.216225E-15	6.762688E-17
5.690000E+03	5.216311E-15	6.845166E-17
5.700000E+03	5.218980E-15	6.926931E-17
5.710000E+03	5.224334E-15	7.008290E-17
5.720000E+03	5.232281E-15	7.089079E-17
5.730000E+03	5.242783E-15	7.169169E-17
5.740000E+03	5.255855E-15	7.248471E-17
5.750000E+03	5.271391E-15	7.326542E-17
5.760000E+03	5.289174E-15	7.402765E-17
5.770000E+03	5.309122E-15	7.476714E-17
5.780000E+03	5.331035E-15	7.547669E-17
5.790000E+03	5.354691E-15	7.614918E-17
5.800000E+03	5.379765E-15	7.677702E-17
5.810000E+03	5.406086E-15	7.735492E-17
5.820000E+03	5.433480E-15	7.787895E-17
5.830000E+03	5.461514E-15	7.834317E-17
5.840000E+03	5.490020E-15	7.874618E-17
5.850000E+03	5.518843E-15	7.908835E-17
5.860000E+03	5.547588E-15	7.936748E-17
5.870000E+03	5.576147E-15	7.958463E-17
5.880000E+03	5.604447E-15	7.974177E-17
5.890000E+03	5.632279E-15	7.983917E-17
5.900000E+03	5.659571E-15	7.987764E-17
5.910000E+03	5.686215E-15	7.985754E-17
5.920000E+03	5.712523E-15	7.978522E-17
5.930000E+03	5.738345E-15	7.965897E-17
5.940000E+03	5.763962E-15	7.948316E-17
5.950000E+03	5.789726E-15	7.926321E-17
5.960000E+03	5.815889E-15	7.900164E-17
5.970000E+03	5.842863E-15	7.870314E-17
5.980000E+03	5.871116E-15	7.837307E-17
5.990000E+03	5.901182E-15	7.801555E-17
6.000000E+03	5.933640E-15	7.763491E-17
6.010000E+03	5.969096E-15	7.723522E-17
6.020000E+03	6.008276E-15	7.681925E-17
6.030000E+03	6.051622E-15	7.638521E-17
6.040000E+03	6.099955E-15	7.593499E-17
6.050000E+03	6.153770E-15	7.546291E-17
6.060000E+03	6.213522E-15	7.496145E-17
6.070000E+03	6.279901E-15	7.442429E-17
6.080000E+03	6.353092E-15	7.383499E-17
6.090000E+03	6.433578E-15	7.317889E-17
6.100000E+03	6.521397E-15	7.243420E-17
6.110000E+03	6.616365E-15	7.157246E-17
6.120000E+03	6.718300E-15	7.056377E-17
6.130000E+03	6.826760E-15	6.937435E-17
6.140000E+03	6.940597E-15	6.796015E-17
6.150000E+03	7.058627E-15	6.627816E-17
6.160000E+03	7.179123E-15	6.428335E-17
6.170000E+03	7.299657E-15	6.192730E-17
6.180000E+03	7.417628E-15	5.917033E-17
6.190000E+03	7.529378E-15	5.597969E-17
6.200000E+03	7.630881E-15	5.233988E-17
6.210000E+03	7.717464E-15	4.826490E-17
6.220000E+03	7.783986E-15	4.381481E-17
6.230000E+03	7.824817E-15	3.911322E-17
6.240000E+03	7.834264E-15	3.438443E-17
6.250000E+03	7.807385E-15	2.999278E-17
6.260000E+03	7.739993E-15	2.644881E-17
6.270000E+03	7.630263E-15	2.430566E-17
6.280000E+03	7.480749E-15	2.378993E-17
6.290000E+03	7.300458E-15	2.445679E-17
6.300000E+03	7.102094E-15	2.562912E-17
6.310000E+03	6.897983E-15	2.681991E-17
6.320000E+03	6.698982E-15	2.780125E-17
6.330000E+03	6.513999E-15	2.854225E-17
6.340000E+03	6.349910E-15	2.911822E-17
6.350000E+03	6.211078E-15	2.963121E-17
6.360000E+03	6.100261E-15	3.020173E-17
6.370000E+03	6.019144E-15	3.094172E-17
6.380000E+03	5.967862E-15	3.190882E-17
6.390000E+03	5.946176E-15	3.314388E-17
6.400000E+03	5.953514E-15	3.468384E-17
6.410000E+03	5.988769E-15	3.654721E-17
6.420000E+03	6.051084E-15	3.875595E-17
6.430000E+03	6.139285E-15	4.133614E-17
6.440000E+03	6.251848E-15	4.430603E-17
6.450000E+03	6.387515E-15	4.768920E-17
6.460000E+03	6.544630E-15	5.151106E-17
6.470000E+03	6.721177E-15	5.578935E-17
6.480000E+03	6.914974E-15	6.053833E-17
6.490000E+03	7.123686E-15	6.576578E-17
6.500000E+03	7.344611E-15	7.146096E-17
6.510000E+03	7.574767E-15	7.759838E-17
6.520000E+03	7.810814E-15	8.413570E-17
6.530000E+03	8.049583E-15	9.101234E-17
6.540000E+03	8.287644E-15	9.814991E-17
6.550000E+03	8.521448E-15	1.054566E-16
6.560000E+03	8.747441E-15	1.128276E-16
6.570000E+03	8.962233E-15	1.201517E-16
6.580000E+03	9.162047E-15	1.273072E-16
6.590000E+03	9.343924E-15	1.341802E-16
6.600000E+03	9.504695E-15	1.406537E-16
6.610000E+03	9.641769E-15	1.466208E-16
6.620000E+03	9.753359E-15	1.519890E-16
6.630000E+03	9.838081E-15	1.566788E-16
6.640000E+03	9.894927E-15	1.606261E-16
6.650000E+03	9.923658E-15	1.637893E-16
6.660000E+03	9.924750E-15	1.661512E-16
6.670000E+03	9.899169E-15	1.677155E-16
6.680000E+03	9.847825E-15	1.684969E-16
6.690000E+03	9.772359E-15	1.685342E-16
6.700000E+03	9.675049E-15	1.678880E-16
6.710000E+03	9.557868E-15	1.666220E-16
6.720000E+03	9.423113E-15	1.648123E-16
6.730000E+03	9.273160E-15	1.625403E-16
6.740000E+03	9.110568E-15	1.598907E-16
6.750000E+03	8.937373E-15	1.569390E-16
6.760000E+03	8.756200E-15	1.537681E-16
6.770000E+03	8.569069E-15	1.504438E-16
6.780000E+03	8.378190E-15	1.470311E-16
6.790000E+03	8.185298E-15	1.435818E-16
6.800000E+03	7.992101E-15	1.401407E-16
6.810000E+03	7.800270E-15	1.367482E-16
6.820000E+03	7.611139E-15	1.334349E-16
6.830000E+03	7.425706E-15	1.302213E-16
6.840000E+03	7.245075E-15	1.271274E-16
6.850000E+03	7.069914E-15	1.241639E-16
6.860000E+03	6.900987E-15	1.213407E-16
6.870000E+03	6.738782E-15	1.186625E-16
6.880000E+03	6.583542E-15	1.161293E-16
6.890000E+03	6.435633E-15	1.137422E-16
6.900000E+03	6.295195E-15	1.114989E-16
6.910000E+03	6.162285E-15	1.093960E-16
6.920000E+03	6.036757E-15	1.074262E-16
6.930000E+03	5.918636E-15	1.055859E-16
6.940000E+03	5.807777E-15	1.038694E-16
6.950000E+03	5.703869E-15	1.022677E-16
6.960000E+03	5.606786E-15	1.007757E-16
6.970000E+03	5.516258E-15	9.938669E-17
6.980000E+03	5.431986E-15	9.809295E-17
6.990000E+03	5.353550E-15	9.688526E-17
7.000000E+03	5.280723E-15	9.575842E-17
7.010000E+03	5.213060E-15	9.470290E-17
7.020000E+03	5.150409E-15	9.371491E-17
7.030000E+03	5.092123E-15	9.278216E-17
7.040000E+03	5.038046E-15	9.190072E-17
7.050000E+03	4.987827E-15	9.106352E-17
7.060000E+03	4.941027E-15	9.026221E-17
7.070000E+03	4.897405E-15	8.949153E-17
7.080000E+03	4.856540E-15	8.874324E-17
7.090000E+03	4.818120E-15	8.801139E-17
7.100000E+03	4.781937E-15	8.729142E-17
7.110000E+03	4.747616E-15	8.657601E-17
7.120000E+03	4.714891E-15	8.586017E-17
7.130000E+03	4.683521E-15	8.513885E-17
7.140000E+03	4.653284E-15	8.440769E-17
7.150000E+03	4.623978E-15	8.366312E-17
7.160000E+03	4.595431E-15	8.290163E-17
7.170000E+03	4.567486E-15	8.212048E-17
7.180000E+03	4.540013E-15	8.131762E-17
7.190000E+03	4.512898E-15	8.049093E-17
7.200000E+03	4.485960E-15	7.963735E-17
7.210000E+03	4.459121E-15	7.875595E-17
7.220000E+03	4.432488E-15	7.784854E-17
7.230000E+03	4.405836E-15	7.691131E-17
7.240000E+03	4.379120E-15	7.594396E-17
7.250000E+03	4.352308E-15	7.494576E-17
7.260000E+03	4.325455E-15	7.391779E-17
7.270000E+03	4.298456E-15	7.285859E-17
7.280000E+03	4.271296E-15	7.176769E-17
7.290000E+03	4.243963E-15	7.064498E-17
7.300000E+03	4.216451E-15	6.949066E-17
7.310000E+03	4.188836E-15	6.830580E-17
7.320000E+03	4.160876E-15	6.708655E-17
7.330000E+03	4.132819E-15	6.583745E-17
7.340000E+03	4.104593E-15	6.455729E-17
7.350000E+03	4.076133E-15	6.324556E-17
7.360000E+03	4.047541E-15	6.190480E-17
7.370000E+03	4.018769E-15	6.053488E-17
7.380000E+03	3.989935E-15	5.913884E-17
7.390000E+03	3.961012E-15	5.771817E-17
7.400000E+03	3.932140E-15	5.627665E-17
7.410000E+03	3.903316E-15	5.481678E-17
7.420000E+03	3.874625E-15	5.334303E-17
7.430000E+03	3.846239E-15	5.186081E-17
7.440000E+03	3.818190E-15	5.037420E-17
7.450000E+03	3.790590E-15	4.888891E-17
7.460000E+03	3.763559E-15	4.740985E-17
7.470000E+03	3.737294E-15	4.594315E-17
7.480000E+03	3.711776E-15	4.449222E-17
7.490000E+03	3.687274E-15	4.306253E-17
7.500000E+03	3.663843E-15	4.165665E-17
7.510000E+03	3.641536E-15	4.027670E-17
7.520000E+03	3.620622E-15	3.892486E-17
7.530000E+03	3.601151E-15	3.760009E-17
7.540000E+03	3.583242E-15	3.630089E-17
7.550000E+03	3.566937E-15	3.502172E-17
7.560000E+03	3.552484E-15	3.375785E-17
7.570000E+03	3.539913E-15	3.250071E-17
7.580000E+03	3.529240E-15	3.123760E-17
7.590000E+03	3.520682E-15	2.995710E-17
7.600000E+03	3.514152E-15	2.864493E-17
7.610000E+03	3.509744E-15	2.728556E-17
7.620000E+03	3.507445E-15	2.586550E-17
7.630000E+03	3.507199E-15	2.437648E-17
7.640000E+03	3.508876E-15	2.281531E-17
7.650000E+03	3.512281E-15	2.119301E-17
7.660000E+03	3.517131E-15	1.954299E-17
7.670000E+03	3.522949E-15	1.792986E-17
7.680000E+03	3.529383E-15	1.647621E-17
7.690000E+03	3.535730E-15	1.537872E-17
7.700000E+03	3.541431E-15	1.489238E-17
7.710000E+03	3.545914E-15	1.523925E-17
7.720000E+03	3.548806E-15	1.644629E-17
7.730000E+03	3.550224E-15	1.833267E-17
7.740000E+03	3.550119E-15	2.066559E-17
7.750000E+03	3.548706E-15	2.325383E-17
7.760000E+03	3.546122E-15	2.596315E-17
