#wls	flux	fluxerr
1.600000E+03	4.728811E-15	6.507304E-16
1.640000E+03	4.809890E-15	6.180548E-16
1.680000E+03	4.887371E-15	5.842790E-16
1.720000E+03	4.962629E-15	5.498928E-16
1.760000E+03	5.034554E-15	5.151303E-16
1.800000E+03	5.103031E-15	4.804136E-16
1.840000E+03	5.169034E-15	4.463332E-16
1.880000E+03	5.231999E-15	4.134158E-16
1.920000E+03	5.294361E-15	3.825229E-16
1.960000E+03	5.356202E-15	3.544045E-16
2.000000E+03	5.418880E-15	3.299755E-16
2.040000E+03	5.485058E-15	3.102106E-16
2.080000E+03	5.555894E-15	2.958178E-16
2.120000E+03	5.635423E-15	2.872038E-16
2.160000E+03	5.724713E-15	2.838991E-16
2.200000E+03	5.826690E-15	2.850756E-16
2.240000E+03	5.943477E-15	2.897311E-16
2.280000E+03	6.077132E-15	2.969040E-16
2.320000E+03	6.231050E-15	3.057528E-16
2.360000E+03	6.404313E-15	3.153727E-16
2.400000E+03	6.599961E-15	3.253586E-16
2.440000E+03	6.819490E-15	3.356237E-16
2.480000E+03	7.065998E-15	3.466130E-16
2.520000E+03	7.343356E-15	3.592887E-16
2.560000E+03	7.654061E-15	3.749856E-16
2.600000E+03	8.003169E-15	3.954336E-16
2.640000E+03	8.396437E-15	4.222698E-16
2.680000E+03	8.835550E-15	4.561032E-16
2.720000E+03	9.316435E-15	4.962616E-16
2.760000E+03	9.835229E-15	5.414066E-16
2.800000E+03	1.038899E-14	5.897978E-16
2.840000E+03	1.096941E-14	6.390972E-16
2.880000E+03	1.156757E-14	6.867344E-16
2.920000E+03	1.217251E-14	7.299276E-16
2.960000E+03	1.277390E-14	7.659488E-16
3.000000E+03	1.335490E-14	7.918236E-16
3.010000E+03	1.349459E-14	7.963601E-16
3.020000E+03	1.363258E-14	8.001075E-16
3.030000E+03	1.376710E-14	8.029410E-16
3.040000E+03	1.389782E-14	8.048237E-16
3.050000E+03	1.402730E-14	8.058876E-16
3.060000E+03	1.415085E-14	8.058484E-16
3.070000E+03	1.427101E-14	8.048428E-16
3.080000E+03	1.438745E-14	8.028420E-16
3.090000E+03	1.449837E-14	7.997404E-16
3.100000E+03	1.460630E-14	7.956765E-16
3.110000E+03	1.470657E-14	7.903951E-16
3.120000E+03	1.480316E-14	7.841180E-16
3.130000E+03	1.489285E-14	7.766806E-16
3.140000E+03	1.497674E-14	7.681547E-16
3.150000E+03	1.505308E-14	7.584669E-16
3.160000E+03	1.512443E-14	7.477662E-16
3.170000E+03	1.518903E-14	7.359877E-16
3.180000E+03	1.524521E-14	7.230785E-16
3.190000E+03	1.529410E-14	7.091284E-16
3.200000E+03	1.533687E-14	6.942252E-16
3.210000E+03	1.537049E-14	6.782722E-16
3.220000E+03	1.539754E-14	6.614291E-16
3.230000E+03	1.541511E-14	6.436189E-16
3.240000E+03	1.542578E-14	6.250047E-16
3.250000E+03	1.542808E-14	6.055814E-16
3.260000E+03	1.542194E-14	5.854085E-16
3.270000E+03	1.540864E-14	5.645986E-16
3.280000E+03	1.538685E-14	5.431700E-16
3.290000E+03	1.535663E-14	5.211986E-16
3.300000E+03	1.531933E-14	4.988064E-16
3.310000E+03	1.527379E-14	4.760344E-16
3.320000E+03	1.522021E-14	4.529745E-16
3.330000E+03	1.516120E-14	4.297915E-16
3.340000E+03	1.509458E-14	4.065109E-16
3.350000E+03	1.502067E-14	3.832412E-16
3.360000E+03	1.494096E-14	3.601244E-16
3.370000E+03	1.485582E-14	3.372759E-16
3.380000E+03	1.476561E-14	3.148200E-16
3.390000E+03	1.467079E-14	2.928909E-16
3.400000E+03	1.457179E-14	2.716352E-16
3.410000E+03	1.446808E-14	2.511956E-16
3.420000E+03	1.436227E-14	2.317883E-16
3.430000E+03	1.425384E-14	2.135904E-16
3.440000E+03	1.414334E-14	1.968172E-16
3.450000E+03	1.403131E-14	1.816983E-16
3.460000E+03	1.391830E-14	1.684658E-16
3.470000E+03	1.380572E-14	1.573433E-16
3.480000E+03	1.369307E-14	1.484794E-16
3.490000E+03	1.358163E-14	1.419475E-16
3.500000E+03	1.347085E-14	1.376503E-16
3.510000E+03	1.336114E-14	1.353279E-16
3.520000E+03	1.325461E-14	1.346331E-16
3.530000E+03	1.314990E-14	1.351502E-16
3.540000E+03	1.304743E-14	1.364999E-16
3.550000E+03	1.294914E-14	1.383724E-16
3.560000E+03	1.285374E-14	1.404899E-16
3.570000E+03	1.276308E-14	1.426746E-16
3.580000E+03	1.267587E-14	1.447732E-16
3.590000E+03	1.259385E-14	1.467139E-16
3.600000E+03	1.251571E-14	1.484287E-16
3.610000E+03	1.244307E-14	1.499113E-16
3.620000E+03	1.237528E-14	1.511498E-16
3.630000E+03	1.231307E-14	1.521631E-16
3.640000E+03	1.225576E-14	1.529618E-16
3.650000E+03	1.220326E-14	1.535702E-16
3.660000E+03	1.215612E-14	1.540222E-16
3.670000E+03	1.211410E-14	1.543428E-16
3.680000E+03	1.207631E-14	1.545465E-16
3.690000E+03	1.204302E-14	1.546597E-16
3.700000E+03	1.201382E-14	1.546958E-16
3.710000E+03	1.198763E-14	1.546547E-16
3.720000E+03	1.196511E-14	1.545537E-16
3.730000E+03	1.194451E-14	1.543751E-16
3.740000E+03	1.192639E-14	1.541268E-16
3.750000E+03	1.190954E-14	1.537922E-16
3.760000E+03	1.189333E-14	1.533606E-16
3.770000E+03	1.187715E-14	1.528218E-16
3.780000E+03	1.186035E-14	1.521672E-16
3.790000E+03	1.184288E-14	1.513973E-16
3.800000E+03	1.182358E-14	1.505022E-16
3.810000E+03	1.180189E-14	1.494827E-16
3.820000E+03	1.177774E-14	1.483502E-16
3.830000E+03	1.175059E-14	1.471127E-16
3.840000E+03	1.171944E-14	1.457753E-16
3.850000E+03	1.168428E-14	1.443571E-16
3.860000E+03	1.164419E-14	1.428653E-16
3.870000E+03	1.159926E-14	1.413185E-16
3.880000E+03	1.154911E-14	1.397277E-16
3.890000E+03	1.149302E-14	1.380968E-16
3.900000E+03	1.143121E-14	1.364382E-16
3.910000E+03	1.136351E-14	1.347564E-16
3.920000E+03	1.128983E-14	1.330531E-16
3.930000E+03	1.121016E-14	1.313281E-16
3.940000E+03	1.112417E-14	1.295749E-16
3.950000E+03	1.103243E-14	1.277948E-16
3.960000E+03	1.093514E-14	1.259842E-16
3.970000E+03	1.083262E-14	1.241391E-16
3.980000E+03	1.072522E-14	1.222565E-16
3.990000E+03	1.061305E-14	1.203302E-16
4.000000E+03	1.049695E-14	1.183636E-16
4.010000E+03	1.037716E-14	1.163533E-16
4.020000E+03	1.025461E-14	1.143045E-16
4.030000E+03	1.012991E-14	1.122190E-16
4.040000E+03	1.000339E-14	1.100952E-16
4.050000E+03	9.875948E-15	1.079382E-16
4.060000E+03	9.747865E-15	1.057453E-16
4.070000E+03	9.619664E-15	1.035158E-16
4.080000E+03	9.491810E-15	1.012473E-16
4.090000E+03	9.364707E-15	9.893568E-17
4.100000E+03	9.238712E-15	9.657445E-17
4.110000E+03	9.114153E-15	9.415568E-17
4.120000E+03	8.991366E-15	9.167022E-17
4.130000E+03	8.870481E-15	8.910571E-17
4.140000E+03	8.751938E-15	8.645229E-17
4.150000E+03	8.636251E-15	8.370024E-17
4.160000E+03	8.524223E-15	8.084245E-17
4.170000E+03	8.416049E-15	7.786636E-17
4.180000E+03	8.312639E-15	7.476735E-17
4.190000E+03	8.214479E-15	7.153847E-17
4.200000E+03	8.122256E-15	6.817694E-17
4.210000E+03	8.036787E-15	6.468437E-17
4.220000E+03	7.958199E-15	6.106190E-17
4.230000E+03	7.886901E-15	5.732212E-17
4.240000E+03	7.823146E-15	5.349148E-17
4.250000E+03	7.767184E-15	4.962119E-17
4.260000E+03	7.718530E-15	4.579831E-17
4.270000E+03	7.676867E-15	4.217386E-17
4.280000E+03	7.641661E-15	3.898547E-17
4.290000E+03	7.612165E-15	3.657116E-17
4.300000E+03	7.587429E-15	3.533144E-17
4.310000E+03	7.566178E-15	3.559072E-17
4.320000E+03	7.547088E-15	3.736501E-17
4.330000E+03	7.529189E-15	4.032919E-17
4.340000E+03	7.511217E-15	4.405661E-17
4.350000E+03	7.492150E-15	4.817205E-17
4.360000E+03	7.471097E-15	5.239535E-17
4.370000E+03	7.447048E-15	5.653088E-17
4.380000E+03	7.419815E-15	6.045330E-17
4.390000E+03	7.388838E-15	6.408052E-17
4.400000E+03	7.354086E-15	6.736731E-17
4.410000E+03	7.315876E-15	7.029569E-17
4.420000E+03	7.274271E-15	7.286325E-17
4.430000E+03	7.229754E-15	7.508510E-17
4.440000E+03	7.183029E-15	7.698888E-17
4.450000E+03	7.134443E-15	7.860553E-17
4.460000E+03	7.084622E-15	7.997323E-17
4.470000E+03	7.034300E-15	8.113328E-17
4.480000E+03	6.983901E-15	8.212320E-17
4.490000E+03	6.933922E-15	8.297925E-17
4.500000E+03	6.884673E-15	8.373245E-17
4.510000E+03	6.836534E-15	8.441116E-17
4.520000E+03	6.789952E-15	8.504090E-17
4.530000E+03	6.744972E-15	8.563868E-17
4.540000E+03	6.701964E-15	8.622221E-17
4.550000E+03	6.661144E-15	8.680435E-17
4.560000E+03	6.622481E-15	8.739220E-17
4.570000E+03	6.586377E-15	8.799640E-17
4.580000E+03	6.552877E-15	8.862128E-17
4.590000E+03	6.522124E-15	8.927117E-17
4.600000E+03	6.494247E-15	8.994940E-17
4.610000E+03	6.469360E-15	9.065851E-17
4.620000E+03	6.447459E-15	9.139911E-17
4.630000E+03	6.428634E-15	9.217299E-17
4.640000E+03	6.413061E-15	9.298326E-17
4.650000E+03	6.400796E-15	9.383147E-17
4.660000E+03	6.391773E-15	9.471761E-17
4.670000E+03	6.386012E-15	9.564295E-17
4.680000E+03	6.383607E-15	9.661007E-17
4.690000E+03	6.384429E-15	9.761818E-17
4.700000E+03	6.388517E-15	9.866896E-17
4.710000E+03	6.395589E-15	9.975884E-17
4.720000E+03	6.405816E-15	1.008909E-16
4.730000E+03	6.418750E-15	1.020581E-16
4.740000E+03	6.434489E-15	1.032609E-16
4.750000E+03	6.452604E-15	1.044910E-16
4.760000E+03	6.472819E-15	1.057408E-16
4.770000E+03	6.494909E-15	1.070029E-16
4.780000E+03	6.518605E-15	1.082677E-16
4.790000E+03	6.543302E-15	1.095185E-16
4.800000E+03	6.568645E-15	1.107414E-16
4.810000E+03	6.594141E-15	1.119190E-16
4.820000E+03	6.619361E-15	1.130337E-16
4.830000E+03	6.643660E-15	1.140631E-16
4.840000E+03	6.666472E-15	1.149855E-16
4.850000E+03	6.687423E-15	1.157821E-16
4.860000E+03	6.705767E-15	1.164279E-16
4.870000E+03	6.721180E-15	1.169060E-16
4.880000E+03	6.733005E-15	1.171947E-16
4.890000E+03	6.741040E-15	1.172822E-16
4.900000E+03	6.744875E-15	1.171555E-16
4.910000E+03	6.744381E-15	1.168093E-16
4.920000E+03	6.739430E-15	1.162413E-16
4.930000E+03	6.730086E-15	1.154554E-16
4.940000E+03	6.716225E-15	1.144555E-16
4.950000E+03	6.698101E-15	1.132541E-16
4.960000E+03	6.676050E-15	1.118675E-16
4.970000E+03	6.650382E-15	1.103126E-16
4.980000E+03	6.621463E-15	1.086083E-16
4.990000E+03	6.589694E-15	1.067748E-16
5.000000E+03	6.555495E-15	1.048327E-16
5.010000E+03	6.519291E-15	1.028021E-16
5.020000E+03	6.481507E-15	1.007026E-16
5.030000E+03	6.442739E-15	9.855546E-17
5.040000E+03	6.403120E-15	9.637313E-17
5.050000E+03	6.363300E-15	9.417449E-17
5.060000E+03	6.323554E-15	9.197086E-17
5.070000E+03	6.284138E-15	8.977164E-17
5.080000E+03	6.245543E-15	8.758789E-17
5.090000E+03	6.207982E-15	8.542505E-17
5.100000E+03	6.171813E-15	8.328926E-17
5.110000E+03	6.137119E-15	8.118171E-17
5.120000E+03	6.104291E-15	7.910676E-17
5.130000E+03	6.073522E-15	7.706530E-17
5.140000E+03	6.044894E-15	7.505622E-17
5.150000E+03	6.018611E-15	7.307962E-17
5.160000E+03	5.994681E-15	7.113287E-17
5.170000E+03	5.973145E-15	6.921384E-17
5.180000E+03	5.954168E-15	6.732171E-17
5.190000E+03	5.937548E-15	6.545176E-17
5.200000E+03	5.923213E-15	6.360112E-17
5.210000E+03	5.911139E-15	6.176774E-17
5.220000E+03	5.901119E-15	5.994812E-17
5.230000E+03	5.893090E-15	5.814061E-17
5.240000E+03	5.886825E-15	5.634198E-17
5.250000E+03	5.882246E-15	5.455032E-17
5.260000E+03	5.879124E-15	5.276148E-17
5.270000E+03	5.877304E-15	5.097067E-17
5.280000E+03	5.876633E-15	4.917130E-17
5.290000E+03	5.876955E-15	4.735444E-17
5.300000E+03	5.878109E-15	4.550862E-17
5.310000E+03	5.879924E-15	4.362039E-17
5.320000E+03	5.882223E-15	4.167517E-17
5.330000E+03	5.884737E-15	3.965813E-17
5.340000E+03	5.887337E-15	3.755855E-17
5.350000E+03	5.889798E-15	3.537228E-17
5.360000E+03	5.891790E-15	3.310878E-17
5.370000E+03	5.893024E-15	3.080409E-17
5.380000E+03	5.893165E-15	2.853779E-17
5.390000E+03	5.891903E-15	2.645661E-17
5.400000E+03	5.888649E-15	2.479462E-17
5.410000E+03	5.883100E-15	2.386534E-17
5.420000E+03	5.874684E-15	2.396629E-17
5.430000E+03	5.863308E-15	2.518443E-17
5.440000E+03	5.849285E-15	2.730375E-17
5.450000E+03	5.832845E-15	3.000220E-17
5.460000E+03	5.814401E-15	3.299619E-17
5.470000E+03	5.794507E-15	3.608268E-17
5.480000E+03	5.773387E-15	3.912831E-17
5.490000E+03	5.751458E-15	4.205307E-17
5.500000E+03	5.729031E-15	4.481159E-17
5.510000E+03	5.706381E-15	4.738152E-17
5.520000E+03	5.683759E-15	4.975554E-17
5.530000E+03	5.661386E-15	5.193600E-17
5.540000E+03	5.639463E-15	5.393135E-17
5.550000E+03	5.618171E-15	5.575378E-17
5.560000E+03	5.597673E-15	5.741762E-17
5.570000E+03	5.578196E-15	5.893897E-17
5.580000E+03	5.559883E-15	6.033354E-17
5.590000E+03	5.542803E-15	6.161605E-17
5.600000E+03	5.527165E-15	6.280226E-17
5.610000E+03	5.513033E-15	6.390557E-17
5.620000E+03	5.500685E-15	6.494095E-17
5.630000E+03	5.490186E-15	6.591982E-17
5.640000E+03	5.481737E-15	6.685415E-17
5.650000E+03	5.475396E-15	6.775298E-17
5.660000E+03	5.471350E-15	6.862582E-17
5.670000E+03	5.469635E-15	6.947909E-17
5.680000E+03	5.470484E-15	7.032059E-17
5.690000E+03	5.473894E-15	7.115398E-17
5.700000E+03	5.479909E-15	7.198239E-17
5.710000E+03	5.488548E-15	7.280751E-17
5.720000E+03	5.499866E-15	7.363046E-17
5.730000E+03	5.513816E-15	7.444995E-17
5.740000E+03	5.530240E-15	7.526227E-17
5.750000E+03	5.549088E-15	7.606421E-17
5.760000E+03	5.570198E-15	7.685033E-17
5.770000E+03	5.593448E-15	7.761514E-17
5.780000E+03	5.618460E-15	7.834931E-17
5.790000E+03	5.645119E-15	7.904722E-17
5.800000E+03	5.673070E-15	7.970033E-17
5.810000E+03	5.702015E-15	8.030177E-17
5.820000E+03	5.731723E-15	8.084678E-17
5.830000E+03	5.761811E-15	8.132987E-17
5.840000E+03	5.792057E-15	8.174915E-17
5.850000E+03	5.822179E-15	8.210300E-17
5.860000E+03	5.851840E-15	8.238976E-17
5.870000E+03	5.880809E-15	8.260952E-17
5.880000E+03	5.908974E-15	8.276398E-17
5.890000E+03	5.936191E-15	8.285421E-17
5.900000E+03	5.962296E-15	8.288054E-17
5.910000E+03	5.987343E-15	8.284595E-17
5.920000E+03	6.011301E-15	8.275174E-17
5.930000E+03	6.034379E-15	8.260199E-17
5.940000E+03	6.056705E-15	8.239921E-17
5.950000E+03	6.078573E-15	8.214766E-17
5.960000E+03	6.100441E-15	8.185325E-17
5.970000E+03	6.122764E-15	8.152121E-17
5.980000E+03	6.145904E-15	8.115478E-17
5.990000E+03	6.170611E-15	8.076141E-17
6.000000E+03	6.197360E-15	8.034371E-17
6.010000E+03	6.226988E-15	7.990780E-17
6.020000E+03	6.260108E-15	7.945520E-17
6.030000E+03	6.297421E-15	7.898687E-17
6.040000E+03	6.339530E-15	7.850062E-17
6.050000E+03	6.387263E-15	7.799488E-17
6.060000E+03	6.441054E-15	7.746093E-17
6.070000E+03	6.501436E-15	7.688876E-17
6.080000E+03	6.568927E-15	7.626553E-17
6.090000E+03	6.643831E-15	7.557306E-17
6.100000E+03	6.726201E-15	7.478746E-17
6.110000E+03	6.816066E-15	7.388184E-17
6.120000E+03	6.912939E-15	7.282114E-17
6.130000E+03	7.016408E-15	7.156925E-17
6.140000E+03	7.125538E-15	7.008327E-17
6.150000E+03	7.238792E-15	6.831476E-17
6.160000E+03	7.354470E-15	6.621612E-17
6.170000E+03	7.470365E-15	6.374017E-17
6.180000E+03	7.583412E-15	6.084157E-17
6.190000E+03	7.690273E-15	5.748781E-17
6.200000E+03	7.786924E-15	5.366355E-17
6.210000E+03	7.868813E-15	4.938293E-17
6.220000E+03	7.930952E-15	4.470579E-17
6.230000E+03	7.968108E-15	3.976134E-17
6.240000E+03	7.975094E-15	3.478308E-17
6.250000E+03	7.947085E-15	3.015390E-17
6.260000E+03	7.880573E-15	2.643516E-17
6.270000E+03	7.773991E-15	2.425721E-17
6.280000E+03	7.629697E-15	2.389609E-17
6.290000E+03	7.456398E-15	2.486344E-17
6.300000E+03	7.265596E-15	2.639928E-17
6.310000E+03	7.069110E-15	2.796343E-17
6.320000E+03	6.877083E-15	2.930646E-17
6.330000E+03	6.698129E-15	3.038217E-17
6.340000E+03	6.538858E-15	3.125310E-17
6.350000E+03	6.403707E-15	3.202659E-17
6.360000E+03	6.295771E-15	3.282038E-17
6.370000E+03	6.216836E-15	3.373952E-17
6.380000E+03	6.167432E-15	3.486439E-17
6.390000E+03	6.147737E-15	3.625457E-17
6.400000E+03	6.157216E-15	3.795113E-17
6.410000E+03	6.195131E-15	3.998422E-17
6.420000E+03	6.260645E-15	4.237846E-17
6.430000E+03	6.352588E-15	4.515479E-17
6.440000E+03	6.469823E-15	4.833440E-17
6.450000E+03	6.610853E-15	5.193680E-17
6.460000E+03	6.774163E-15	5.598202E-17
6.470000E+03	6.957899E-15	6.048657E-17
6.480000E+03	7.159936E-15	6.546133E-17
6.490000E+03	7.377855E-15	7.090832E-17
6.500000E+03	7.608945E-15	7.681711E-17
6.510000E+03	7.850218E-15	8.316213E-17
6.520000E+03	8.098442E-15	8.990094E-17
6.530000E+03	8.350308E-15	9.697473E-17
6.540000E+03	8.602233E-15	1.043065E-16
6.550000E+03	8.850387E-15	1.118026E-16
6.560000E+03	9.091123E-15	1.193600E-16
6.570000E+03	9.320535E-15	1.268632E-16
6.580000E+03	9.535209E-15	1.341972E-16
6.590000E+03	9.731507E-15	1.412402E-16
6.600000E+03	9.906227E-15	1.478755E-16
6.610000E+03	1.005660E-14	1.539937E-16
6.620000E+03	1.018055E-14	1.594991E-16
6.630000E+03	1.027643E-14	1.643093E-16
6.640000E+03	1.034309E-14	1.683574E-16
6.650000E+03	1.038024E-14	1.716018E-16
6.660000E+03	1.038809E-14	1.740198E-16
6.670000E+03	1.036734E-14	1.756104E-16
6.680000E+03	1.031936E-14	1.763959E-16
6.690000E+03	1.024549E-14	1.764092E-16
6.700000E+03	1.014816E-14	1.757132E-16
6.710000E+03	1.002914E-14	1.743677E-16
6.720000E+03	9.891328E-15	1.724580E-16
6.730000E+03	9.736931E-15	1.700620E-16
6.740000E+03	9.568670E-15	1.672671E-16
6.750000E+03	9.389085E-15	1.641571E-16
6.760000E+03	9.200648E-15	1.608113E-16
6.770000E+03	9.005717E-15	1.573027E-16
6.780000E+03	8.806503E-15	1.536965E-16
6.790000E+03	8.605178E-15	1.500521E-16
6.800000E+03	8.403449E-15	1.464154E-16
6.810000E+03	8.203090E-15	1.428290E-16
6.820000E+03	8.005408E-15	1.393230E-16
6.830000E+03	7.811767E-15	1.359251E-16
6.840000E+03	7.623084E-15	1.326524E-16
6.850000E+03	7.440339E-15	1.295210E-16
6.860000E+03	7.264216E-15	1.265400E-16
6.870000E+03	7.095131E-15	1.237131E-16
6.880000E+03	6.933587E-15	1.210446E-16
6.890000E+03	6.779955E-15	1.185363E-16
6.900000E+03	6.634166E-15	1.161822E-16
6.910000E+03	6.496385E-15	1.139805E-16
6.920000E+03	6.366478E-15	1.119246E-16
6.930000E+03	6.244548E-15	1.100122E-16
6.940000E+03	6.130325E-15	1.082350E-16
6.950000E+03	6.023591E-15	1.065860E-16
6.960000E+03	5.923991E-15	1.050561E-16
6.970000E+03	5.831420E-15	1.036409E-16
6.980000E+03	5.745362E-15	1.023293E-16
6.990000E+03	5.665566E-15	1.011150E-16
7.000000E+03	5.591665E-15	9.998991E-17
7.010000E+03	5.523284E-15	9.894605E-17
7.020000E+03	5.459950E-15	9.797378E-17
7.030000E+03	5.401366E-15	9.706678E-17
7.040000E+03	5.347144E-15	9.621720E-17
7.050000E+03	5.296899E-15	9.541730E-17
7.060000E+03	5.250169E-15	9.465799E-17
7.070000E+03	5.206586E-15	9.393190E-17
7.080000E+03	5.165877E-15	9.323345E-17
7.090000E+03	5.127614E-15	9.255422E-17
7.100000E+03	5.091468E-15	9.188765E-17
7.110000E+03	5.057214E-15	9.122902E-17
7.120000E+03	5.024397E-15	9.056954E-17
7.130000E+03	4.992915E-15	8.990684E-17
7.140000E+03	4.962362E-15	8.923312E-17
7.150000E+03	4.932605E-15	8.854559E-17
7.160000E+03	4.903451E-15	8.784053E-17
7.170000E+03	4.874655E-15	8.711335E-17
7.180000E+03	4.846154E-15	8.636284E-17
7.190000E+03	4.817749E-15	8.558536E-17
7.200000E+03	4.789342E-15	8.477909E-17
7.210000E+03	4.760851E-15	8.394252E-17
7.220000E+03	4.732212E-15	8.307440E-17
7.230000E+03	4.703375E-15	8.217366E-17
7.240000E+03	4.674299E-15	8.123942E-17
7.250000E+03	4.644881E-15	8.026958E-17
7.260000E+03	4.615102E-15	7.926353E-17
7.270000E+03	4.585028E-15	7.822206E-17
7.280000E+03	4.554579E-15	7.714338E-17
7.290000E+03	4.523756E-15	7.602715E-17
7.300000E+03	4.492566E-15	7.487307E-17
7.310000E+03	4.461020E-15	7.368097E-17
7.320000E+03	4.429133E-15	7.245078E-17
7.330000E+03	4.396851E-15	7.118143E-17
7.340000E+03	4.364200E-15	6.987327E-17
7.350000E+03	4.331282E-15	6.852806E-17
7.360000E+03	4.298062E-15	6.714560E-17
7.370000E+03	4.264656E-15	6.572832E-17
7.380000E+03	4.230975E-15	6.427587E-17
7.390000E+03	4.197224E-15	6.279283E-17
7.400000E+03	4.163338E-15	6.128012E-17
7.410000E+03	4.129541E-15	5.974348E-17
7.420000E+03	4.095791E-15	5.818517E-17
7.430000E+03	4.062263E-15	5.661101E-17
7.440000E+03	4.029003E-15	5.502525E-17
7.450000E+03	3.996270E-15	5.343511E-17
7.460000E+03	3.964053E-15	5.184412E-17
7.470000E+03	3.932486E-15	5.025748E-17
7.480000E+03	3.901829E-15	4.868157E-17
7.490000E+03	3.872083E-15	4.711879E-17
7.500000E+03	3.843379E-15	4.557245E-17
7.510000E+03	3.815911E-15	4.404556E-17
7.520000E+03	3.789805E-15	4.253903E-17
7.530000E+03	3.765122E-15	4.105155E-17
7.540000E+03	3.742045E-15	3.958144E-17
7.550000E+03	3.720626E-15	3.812349E-17
7.560000E+03	3.701037E-15	3.667152E-17
7.570000E+03	3.683376E-15	3.521621E-17
7.580000E+03	3.667734E-15	3.374597E-17
7.590000E+03	3.654129E-15	3.224716E-17
7.600000E+03	3.642689E-15	3.070671E-17
7.610000E+03	3.633403E-15	2.911128E-17
7.620000E+03	3.626425E-15	2.745158E-17
7.630000E+03	3.621630E-15	2.572112E-17
7.640000E+03	3.619041E-15	2.392261E-17
7.650000E+03	3.618556E-15	2.207072E-17
7.660000E+03	3.620001E-15	2.020086E-17
7.670000E+03	3.623110E-15	1.838407E-17
7.680000E+03	3.627468E-15	1.674977E-17
7.690000E+03	3.632770E-15	1.551003E-17
7.700000E+03	3.638412E-15	1.494589E-17
7.710000E+03	3.644054E-15	1.530520E-17
7.720000E+03	3.649253E-15	1.661099E-17
7.730000E+03	3.653935E-15	1.865345E-17
7.740000E+03	3.658033E-15	2.117352E-17
7.750000E+03	3.661512E-15	2.396368E-17
7.760000E+03	3.664353E-15	2.688267E-17
