#wls	flux	fluxerr
1.600000E+03	4.730184E-15	6.505384E-16
1.640000E+03	4.811513E-15	6.178584E-16
1.680000E+03	4.889256E-15	5.840741E-16
1.720000E+03	4.964784E-15	5.496748E-16
1.760000E+03	5.036983E-15	5.148938E-16
1.800000E+03	5.105732E-15	4.801533E-16
1.840000E+03	5.171997E-15	4.460437E-16
1.880000E+03	5.235210E-15	4.130927E-16
1.920000E+03	5.297799E-15	3.821630E-16
1.960000E+03	5.359842E-15	3.540072E-16
2.000000E+03	5.422694E-15	3.295437E-16
2.040000E+03	5.489016E-15	3.097515E-16
2.080000E+03	5.559970E-15	2.953426E-16
2.120000E+03	5.639592E-15	2.867250E-16
2.160000E+03	5.728950E-15	2.834274E-16
2.200000E+03	5.830976E-15	2.846167E-16
2.240000E+03	5.947791E-15	2.892856E-16
2.280000E+03	6.081455E-15	2.964682E-16
2.320000E+03	6.235358E-15	3.053183E-16
2.360000E+03	6.408567E-15	3.149275E-16
2.400000E+03	6.604110E-15	3.248875E-16
2.440000E+03	6.823468E-15	3.351101E-16
2.480000E+03	7.069724E-15	3.460409E-16
2.520000E+03	7.346739E-15	3.586456E-16
2.560000E+03	7.657003E-15	3.742659E-16
2.600000E+03	8.005571E-15	3.946405E-16
2.640000E+03	8.398196E-15	4.214139E-16
2.680000E+03	8.836557E-15	4.551982E-16
2.720000E+03	9.316564E-15	4.953190E-16
2.760000E+03	9.834346E-15	5.404333E-16
2.800000E+03	1.038696E-14	5.887956E-16
2.840000E+03	1.096611E-14	6.380653E-16
2.880000E+03	1.156291E-14	6.856715E-16
2.920000E+03	1.216643E-14	7.288344E-16
2.960000E+03	1.276638E-14	7.648297E-16
3.000000E+03	1.334599E-14	7.906876E-16
3.010000E+03	1.348533E-14	7.952220E-16
3.020000E+03	1.362299E-14	7.989680E-16
3.030000E+03	1.375719E-14	8.018014E-16
3.040000E+03	1.388758E-14	8.036849E-16
3.050000E+03	1.401675E-14	8.047506E-16
3.060000E+03	1.413999E-14	8.047146E-16
3.070000E+03	1.425986E-14	8.037132E-16
3.080000E+03	1.437601E-14	8.017179E-16
3.090000E+03	1.448665E-14	7.986231E-16
3.100000E+03	1.459431E-14	7.945671E-16
3.110000E+03	1.469431E-14	7.892950E-16
3.120000E+03	1.479065E-14	7.830283E-16
3.130000E+03	1.488009E-14	7.756027E-16
3.140000E+03	1.496374E-14	7.670897E-16
3.150000E+03	1.503986E-14	7.574161E-16
3.160000E+03	1.511098E-14	7.467305E-16
3.170000E+03	1.517536E-14	7.349683E-16
3.180000E+03	1.523133E-14	7.220765E-16
3.190000E+03	1.528002E-14	7.081448E-16
3.200000E+03	1.532258E-14	6.932609E-16
3.210000E+03	1.535601E-14	6.773280E-16
3.220000E+03	1.538287E-14	6.605059E-16
3.230000E+03	1.540025E-14	6.427175E-16
3.240000E+03	1.541072E-14	6.241256E-16
3.250000E+03	1.541283E-14	6.047254E-16
3.260000E+03	1.540650E-14	5.845761E-16
3.270000E+03	1.539300E-14	5.637902E-16
3.280000E+03	1.537102E-14	5.423861E-16
3.290000E+03	1.534060E-14	5.204396E-16
3.300000E+03	1.530309E-14	4.980726E-16
3.310000E+03	1.525734E-14	4.753262E-16
3.320000E+03	1.520355E-14	4.522920E-16
3.330000E+03	1.514432E-14	4.291348E-16
3.340000E+03	1.507748E-14	4.058803E-16
3.350000E+03	1.500333E-14	3.826366E-16
3.360000E+03	1.492339E-14	3.595458E-16
3.370000E+03	1.483799E-14	3.367234E-16
3.380000E+03	1.474754E-14	3.142933E-16
3.390000E+03	1.465245E-14	2.923899E-16
3.400000E+03	1.455319E-14	2.711595E-16
3.410000E+03	1.444921E-14	2.507453E-16
3.420000E+03	1.434313E-14	2.313632E-16
3.430000E+03	1.423442E-14	2.131906E-16
3.440000E+03	1.412364E-14	1.964431E-16
3.450000E+03	1.401133E-14	1.813507E-16
3.460000E+03	1.389802E-14	1.681457E-16
3.470000E+03	1.378515E-14	1.570522E-16
3.480000E+03	1.367221E-14	1.482188E-16
3.490000E+03	1.356047E-14	1.417187E-16
3.500000E+03	1.344939E-14	1.374541E-16
3.510000E+03	1.333937E-14	1.351644E-16
3.520000E+03	1.323251E-14	1.345019E-16
3.530000E+03	1.312748E-14	1.350503E-16
3.540000E+03	1.302465E-14	1.364300E-16
3.550000E+03	1.292598E-14	1.383308E-16
3.560000E+03	1.283018E-14	1.404748E-16
3.570000E+03	1.273907E-14	1.426842E-16
3.580000E+03	1.265140E-14	1.448055E-16
3.590000E+03	1.256886E-14	1.467670E-16
3.600000E+03	1.249018E-14	1.485006E-16
3.610000E+03	1.241695E-14	1.499997E-16
3.620000E+03	1.234853E-14	1.512525E-16
3.630000E+03	1.228566E-14	1.522777E-16
3.640000E+03	1.222763E-14	1.530860E-16
3.650000E+03	1.217439E-14	1.537015E-16
3.660000E+03	1.212645E-14	1.541582E-16
3.670000E+03	1.208359E-14	1.544812E-16
3.680000E+03	1.204493E-14	1.546850E-16
3.690000E+03	1.201073E-14	1.547962E-16
3.700000E+03	1.198058E-14	1.548282E-16
3.710000E+03	1.195343E-14	1.547810E-16
3.720000E+03	1.192991E-14	1.546721E-16
3.730000E+03	1.190830E-14	1.544836E-16
3.740000E+03	1.188914E-14	1.542238E-16
3.750000E+03	1.187124E-14	1.538758E-16
3.760000E+03	1.185398E-14	1.534294E-16
3.770000E+03	1.183674E-14	1.528745E-16
3.780000E+03	1.181890E-14	1.522026E-16
3.790000E+03	1.180037E-14	1.514147E-16
3.800000E+03	1.178004E-14	1.505009E-16
3.810000E+03	1.175733E-14	1.494626E-16
3.820000E+03	1.173219E-14	1.483110E-16
3.830000E+03	1.170407E-14	1.470545E-16
3.840000E+03	1.167197E-14	1.456982E-16
3.850000E+03	1.163591E-14	1.442611E-16
3.860000E+03	1.159497E-14	1.427506E-16
3.870000E+03	1.154922E-14	1.411851E-16
3.880000E+03	1.149832E-14	1.395758E-16
3.890000E+03	1.144153E-14	1.379264E-16
3.900000E+03	1.137908E-14	1.362493E-16
3.910000E+03	1.131080E-14	1.345491E-16
3.920000E+03	1.123662E-14	1.328277E-16
3.930000E+03	1.115651E-14	1.310850E-16
3.940000E+03	1.107015E-14	1.293146E-16
3.950000E+03	1.097810E-14	1.275182E-16
3.960000E+03	1.088057E-14	1.256923E-16
3.970000E+03	1.077787E-14	1.238331E-16
3.980000E+03	1.067035E-14	1.219379E-16
3.990000E+03	1.055811E-14	1.200005E-16
4.000000E+03	1.044200E-14	1.180246E-16
4.010000E+03	1.032224E-14	1.160065E-16
4.020000E+03	1.019977E-14	1.139515E-16
4.030000E+03	1.007520E-14	1.118613E-16
4.040000E+03	9.948825E-15	1.097341E-16
4.050000E+03	9.821571E-15	1.075749E-16
4.060000E+03	9.693698E-15	1.053808E-16
4.070000E+03	9.565729E-15	1.031510E-16
4.080000E+03	9.438124E-15	1.008830E-16
4.090000E+03	9.311285E-15	9.857233E-17
4.100000E+03	9.185564E-15	9.621259E-17
4.110000E+03	9.061287E-15	9.379576E-17
4.120000E+03	8.938787E-15	9.131275E-17
4.130000E+03	8.818189E-15	8.875125E-17
4.140000E+03	8.699933E-15	8.610148E-17
4.150000E+03	8.584523E-15	8.335376E-17
4.160000E+03	8.472760E-15	8.050100E-17
4.170000E+03	8.364832E-15	7.753066E-17
4.180000E+03	8.261645E-15	7.443815E-17
4.190000E+03	8.163680E-15	7.121663E-17
4.200000E+03	8.071616E-15	6.786355E-17
4.210000E+03	7.986267E-15	6.438083E-17
4.220000E+03	7.907760E-15	6.077008E-17
4.230000E+03	7.836501E-15	5.704436E-17
4.240000E+03	7.772745E-15	5.323052E-17
4.250000E+03	7.716744E-15	4.938000E-17
4.260000E+03	7.668024E-15	4.557966E-17
4.270000E+03	7.626274E-15	4.197971E-17
4.280000E+03	7.590975E-15	3.881579E-17
4.290000E+03	7.561397E-15	3.642237E-17
4.300000E+03	7.536609E-15	3.519499E-17
4.310000E+03	7.515356E-15	3.545332E-17
4.320000E+03	7.496328E-15	3.721251E-17
4.330000E+03	7.478558E-15	4.015145E-17
4.340000E+03	7.460784E-15	4.384824E-17
4.350000E+03	7.441983E-15	4.793141E-17
4.360000E+03	7.421261E-15	5.212321E-17
4.370000E+03	7.397611E-15	5.622933E-17
4.380000E+03	7.370837E-15	6.012507E-17
4.390000E+03	7.340374E-15	6.372860E-17
4.400000E+03	7.306187E-15	6.699473E-17
4.410000E+03	7.268583E-15	6.990530E-17
4.420000E+03	7.227618E-15	7.245772E-17
4.430000E+03	7.183764E-15	7.466677E-17
4.440000E+03	7.137719E-15	7.655974E-17
4.450000E+03	7.089819E-15	7.816723E-17
4.460000E+03	7.040687E-15	7.952703E-17
4.470000E+03	6.991047E-15	8.068010E-17
4.480000E+03	6.941321E-15	8.166367E-17
4.490000E+03	6.891999E-15	8.251372E-17
4.500000E+03	6.843389E-15	8.326111E-17
4.510000E+03	6.795868E-15	8.393402E-17
4.520000E+03	6.749881E-15	8.455788E-17
4.530000E+03	6.705474E-15	8.514961E-17
4.540000E+03	6.663011E-15	8.572689E-17
4.550000E+03	6.622712E-15	8.630257E-17
4.560000E+03	6.584544E-15	8.688374E-17
4.570000E+03	6.548907E-15	8.748106E-17
4.580000E+03	6.515848E-15	8.809887E-17
4.590000E+03	6.485508E-15	8.874156E-17
4.600000E+03	6.458017E-15	8.941247E-17
4.610000E+03	6.433487E-15	9.011417E-17
4.620000E+03	6.411917E-15	9.084729E-17
4.630000E+03	6.393395E-15	9.161367E-17
4.640000E+03	6.378097E-15	9.241643E-17
4.650000E+03	6.366079E-15	9.325712E-17
4.660000E+03	6.357276E-15	9.413576E-17
4.670000E+03	6.351707E-15	9.505365E-17
4.680000E+03	6.349467E-15	9.601337E-17
4.690000E+03	6.350427E-15	9.701415E-17
4.700000E+03	6.354628E-15	9.805768E-17
4.710000E+03	6.361787E-15	9.914042E-17
4.720000E+03	6.372076E-15	1.002655E-16
4.730000E+03	6.385048E-15	1.014257E-16
4.740000E+03	6.400802E-15	1.026219E-16
4.750000E+03	6.418910E-15	1.038454E-16
4.760000E+03	6.439098E-15	1.050890E-16
4.770000E+03	6.461141E-15	1.063451E-16
4.780000E+03	6.484773E-15	1.076041E-16
4.790000E+03	6.509392E-15	1.088496E-16
4.800000E+03	6.534643E-15	1.100676E-16
4.810000E+03	6.560037E-15	1.112408E-16
4.820000E+03	6.585148E-15	1.123517E-16
4.830000E+03	6.609332E-15	1.133779E-16
4.840000E+03	6.632028E-15	1.142978E-16
4.850000E+03	6.652864E-15	1.150927E-16
4.860000E+03	6.671098E-15	1.157378E-16
4.870000E+03	6.686408E-15	1.162160E-16
4.880000E+03	6.698140E-15	1.165059E-16
4.890000E+03	6.706094E-15	1.165956E-16
4.900000E+03	6.709861E-15	1.164722E-16
4.910000E+03	6.709313E-15	1.161304E-16
4.920000E+03	6.704322E-15	1.155679E-16
4.930000E+03	6.694953E-15	1.147885E-16
4.940000E+03	6.681082E-15	1.137961E-16
4.950000E+03	6.662961E-15	1.126033E-16
4.960000E+03	6.640924E-15	1.112260E-16
4.970000E+03	6.615279E-15	1.096812E-16
4.980000E+03	6.586391E-15	1.079877E-16
4.990000E+03	6.554658E-15	1.061656E-16
5.000000E+03	6.520496E-15	1.042354E-16
5.010000E+03	6.484332E-15	1.022172E-16
5.020000E+03	6.446587E-15	1.001306E-16
5.030000E+03	6.407853E-15	9.799654E-17
5.040000E+03	6.368265E-15	9.582764E-17
5.050000E+03	6.328470E-15	9.364265E-17
5.060000E+03	6.288740E-15	9.145286E-17
5.070000E+03	6.249332E-15	8.926763E-17
5.080000E+03	6.210736E-15	8.709801E-17
5.090000E+03	6.173162E-15	8.494941E-17
5.100000E+03	6.136967E-15	8.282794E-17
5.110000E+03	6.102234E-15	8.073481E-17
5.120000E+03	6.069352E-15	7.867434E-17
5.130000E+03	6.038515E-15	7.664742E-17
5.140000E+03	6.009802E-15	7.465292E-17
5.150000E+03	5.983419E-15	7.269091E-17
5.160000E+03	5.959371E-15	7.075875E-17
5.170000E+03	5.937703E-15	6.885427E-17
5.180000E+03	5.918574E-15	6.697660E-17
5.190000E+03	5.901789E-15	6.512099E-17
5.200000E+03	5.887273E-15	6.328446E-17
5.210000E+03	5.875003E-15	6.146490E-17
5.220000E+03	5.864774E-15	5.965870E-17
5.230000E+03	5.856524E-15	5.786408E-17
5.240000E+03	5.850025E-15	5.607769E-17
5.250000E+03	5.845203E-15	5.429749E-17
5.260000E+03	5.841828E-15	5.251921E-17
5.270000E+03	5.839748E-15	5.073798E-17
5.280000E+03	5.838810E-15	4.894713E-17
5.290000E+03	5.838861E-15	4.713771E-17
5.300000E+03	5.839739E-15	4.529830E-17
5.310000E+03	5.841279E-15	4.341559E-17
5.320000E+03	5.843302E-15	4.147519E-17
5.330000E+03	5.845544E-15	3.946264E-17
5.340000E+03	5.847880E-15	3.736760E-17
5.350000E+03	5.850089E-15	3.518629E-17
5.360000E+03	5.851845E-15	3.292854E-17
5.370000E+03	5.852868E-15	3.063049E-17
5.380000E+03	5.852831E-15	2.837156E-17
5.390000E+03	5.851433E-15	2.629780E-17
5.400000E+03	5.848097E-15	2.464193E-17
5.410000E+03	5.842529E-15	2.371557E-17
5.420000E+03	5.834168E-15	2.381435E-17
5.430000E+03	5.822921E-15	2.502419E-17
5.440000E+03	5.809095E-15	2.713051E-17
5.450000E+03	5.792907E-15	2.981294E-17
5.460000E+03	5.774759E-15	3.278956E-17
5.470000E+03	5.755190E-15	3.585855E-17
5.480000E+03	5.734417E-15	3.888728E-17
5.490000E+03	5.712846E-15	4.179609E-17
5.500000E+03	5.690780E-15	4.453975E-17
5.510000E+03	5.668492E-15	4.709592E-17
5.520000E+03	5.646226E-15	4.945722E-17
5.530000E+03	5.624202E-15	5.162591E-17
5.540000E+03	5.602618E-15	5.361032E-17
5.550000E+03	5.581651E-15	5.542255E-17
5.560000E+03	5.561467E-15	5.707683E-17
5.570000E+03	5.542290E-15	5.858916E-17
5.580000E+03	5.524263E-15	5.997517E-17
5.590000E+03	5.507455E-15	6.124954E-17
5.600000E+03	5.492073E-15	6.242795E-17
5.610000E+03	5.478182E-15	6.352375E-17
5.620000E+03	5.466061E-15	6.455186E-17
5.630000E+03	5.455772E-15	6.552366E-17
5.640000E+03	5.447517E-15	6.645109E-17
5.650000E+03	5.441353E-15	6.734318E-17
5.660000E+03	5.437467E-15	6.820940E-17
5.670000E+03	5.435896E-15	6.905617E-17
5.680000E+03	5.436869E-15	6.989127E-17
5.690000E+03	5.440386E-15	7.071835E-17
5.700000E+03	5.446489E-15	7.154055E-17
5.710000E+03	5.455197E-15	7.235956E-17
5.720000E+03	5.466566E-15	7.317652E-17
5.730000E+03	5.480547E-15	7.399016E-17
5.740000E+03	5.496984E-15	7.479679E-17
5.750000E+03	5.515826E-15	7.559324E-17
5.760000E+03	5.536912E-15	7.637410E-17
5.770000E+03	5.560119E-15	7.713393E-17
5.780000E+03	5.585070E-15	7.786343E-17
5.790000E+03	5.611651E-15	7.855702E-17
5.800000E+03	5.639507E-15	7.920621E-17
5.810000E+03	5.668340E-15	7.980412E-17
5.820000E+03	5.697918E-15	8.034601E-17
5.830000E+03	5.727862E-15	8.082639E-17
5.840000E+03	5.757948E-15	8.124335E-17
5.850000E+03	5.787894E-15	8.159527E-17
5.860000E+03	5.817365E-15	8.188048E-17
5.870000E+03	5.846129E-15	8.209902E-17
5.880000E+03	5.874074E-15	8.225259E-17
5.890000E+03	5.901057E-15	8.234222E-17
5.900000E+03	5.926912E-15	8.236822E-17
5.910000E+03	5.951694E-15	8.233356E-17
5.920000E+03	5.975372E-15	8.223952E-17
5.930000E+03	5.998151E-15	8.209016E-17
5.940000E+03	6.020162E-15	8.188796E-17
5.950000E+03	6.041695E-15	8.163718E-17
5.960000E+03	6.063206E-15	8.134370E-17
5.970000E+03	6.085147E-15	8.101273E-17
5.980000E+03	6.107881E-15	8.064751E-17
5.990000E+03	6.132154E-15	8.025544E-17
6.000000E+03	6.158436E-15	7.983915E-17
6.010000E+03	6.187563E-15	7.940470E-17
6.020000E+03	6.220145E-15	7.895363E-17
6.030000E+03	6.256879E-15	7.848691E-17
6.040000E+03	6.298365E-15	7.800234E-17
6.050000E+03	6.345427E-15	7.749840E-17
6.060000E+03	6.398498E-15	7.696639E-17
6.070000E+03	6.458106E-15	7.639637E-17
6.080000E+03	6.524768E-15	7.577558E-17
6.090000E+03	6.598785E-15	7.508592E-17
6.100000E+03	6.680209E-15	7.430365E-17
6.110000E+03	6.769068E-15	7.340204E-17
6.120000E+03	6.864878E-15	7.234626E-17
6.130000E+03	6.967228E-15	7.110040E-17
6.140000E+03	7.075187E-15	6.962187E-17
6.150000E+03	7.187231E-15	6.786256E-17
6.160000E+03	7.301670E-15	6.577524E-17
6.170000E+03	7.416313E-15	6.331313E-17
6.180000E+03	7.528122E-15	6.043131E-17
6.190000E+03	7.633786E-15	5.709764E-17
6.200000E+03	7.729325E-15	5.329706E-17
6.210000E+03	7.810233E-15	4.904384E-17
6.220000E+03	7.871584E-15	4.439757E-17
6.230000E+03	7.908213E-15	3.948669E-17
6.240000E+03	7.915010E-15	3.454301E-17
6.250000E+03	7.887230E-15	2.994653E-17
6.260000E+03	7.821434E-15	2.625460E-17
6.270000E+03	7.716093E-15	2.409386E-17
6.280000E+03	7.573545E-15	2.373852E-17
6.290000E+03	7.402369E-15	2.470512E-17
6.300000E+03	7.213901E-15	2.623878E-17
6.310000E+03	7.019795E-15	2.780264E-17
6.320000E+03	6.830059E-15	2.914832E-17
6.330000E+03	6.653202E-15	3.022910E-17
6.340000E+03	6.495769E-15	3.110632E-17
6.350000E+03	6.362162E-15	3.188601E-17
6.360000E+03	6.255462E-15	3.268476E-17
6.370000E+03	6.177457E-15	3.360684E-17
6.380000E+03	6.128689E-15	3.473234E-17
6.390000E+03	6.109352E-15	3.612086E-17
6.400000E+03	6.118925E-15	3.781351E-17
6.410000E+03	6.156691E-15	3.984045E-17
6.420000E+03	6.221827E-15	4.222617E-17
6.430000E+03	6.313181E-15	4.499144E-17
6.440000E+03	6.429629E-15	4.815726E-17
6.450000E+03	6.569695E-15	5.174292E-17
6.460000E+03	6.731880E-15	5.576822E-17
6.470000E+03	6.914350E-15	6.024937E-17
6.480000E+03	7.114999E-15	6.519706E-17
6.490000E+03	7.331432E-15	7.061311E-17
6.500000E+03	7.560963E-15	7.648707E-17
6.510000E+03	7.800629E-15	8.279350E-17
6.520000E+03	8.047225E-15	8.949022E-17
6.530000E+03	8.297466E-15	9.651884E-17
6.540000E+03	8.547798E-15	1.038030E-16
6.550000E+03	8.794416E-15	1.112497E-16
6.560000E+03	9.033700E-15	1.187566E-16
6.570000E+03	9.261770E-15	1.262095E-16
6.580000E+03	9.475233E-15	1.334940E-16
6.590000E+03	9.670473E-15	1.404894E-16
6.600000E+03	9.844308E-15	1.470800E-16
6.610000E+03	9.993983E-15	1.531570E-16
6.620000E+03	1.011743E-14	1.586257E-16
6.630000E+03	1.021301E-14	1.634042E-16
6.640000E+03	1.027956E-14	1.674260E-16
6.650000E+03	1.031681E-14	1.706498E-16
6.660000E+03	1.032494E-14	1.730530E-16
6.670000E+03	1.030465E-14	1.746345E-16
6.680000E+03	1.025730E-14	1.754162E-16
6.690000E+03	1.018420E-14	1.754310E-16
6.700000E+03	1.008777E-14	1.747410E-16
6.710000E+03	9.969780E-15	1.734055E-16
6.720000E+03	9.833082E-15	1.715094E-16
6.730000E+03	9.679883E-15	1.691297E-16
6.740000E+03	9.512883E-15	1.663534E-16
6.750000E+03	9.334609E-15	1.632635E-16
6.760000E+03	9.147517E-15	1.599389E-16
6.770000E+03	8.953953E-15	1.564521E-16
6.780000E+03	8.756116E-15	1.528679E-16
6.790000E+03	8.556166E-15	1.492453E-16
6.800000E+03	8.355801E-15	1.456300E-16
6.810000E+03	8.156787E-15	1.420643E-16
6.820000E+03	7.960425E-15	1.385783E-16
6.830000E+03	7.768071E-15	1.351995E-16
6.840000E+03	7.580638E-15	1.319449E-16
6.850000E+03	7.399103E-15	1.288307E-16
6.860000E+03	7.224147E-15	1.258661E-16
6.870000E+03	7.056182E-15	1.230546E-16
6.880000E+03	6.895713E-15	1.204006E-16
6.890000E+03	6.743107E-15	1.179060E-16
6.900000E+03	6.598297E-15	1.155649E-16
6.910000E+03	6.461446E-15	1.133755E-16
6.920000E+03	6.332424E-15	1.113312E-16
6.930000E+03	6.211330E-15	1.094299E-16
6.940000E+03	6.097899E-15	1.076633E-16
6.950000E+03	5.991913E-15	1.060244E-16
6.960000E+03	5.893018E-15	1.045041E-16
6.970000E+03	5.801110E-15	1.030983E-16
6.980000E+03	5.715676E-15	1.017957E-16
6.990000E+03	5.636466E-15	1.005901E-16
7.000000E+03	5.563115E-15	9.947346E-17
7.010000E+03	5.495249E-15	9.843782E-17
7.020000E+03	5.432397E-15	9.747360E-17
7.030000E+03	5.374263E-15	9.657449E-17
7.040000E+03	5.320462E-15	9.573267E-17
7.050000E+03	5.270610E-15	9.494044E-17
7.060000E+03	5.224247E-15	9.418872E-17
7.070000E+03	5.181005E-15	9.347020E-17
7.080000E+03	5.140614E-15	9.277929E-17
7.090000E+03	5.102647E-15	9.210761E-17
7.100000E+03	5.066777E-15	9.144862E-17
7.110000E+03	5.032779E-15	9.079761E-17
7.120000E+03	5.000200E-15	9.014582E-17
7.130000E+03	4.968939E-15	8.949088E-17
7.140000E+03	4.938592E-15	8.882502E-17
7.150000E+03	4.909025E-15	8.814545E-17
7.160000E+03	4.880048E-15	8.744845E-17
7.170000E+03	4.851415E-15	8.672945E-17
7.180000E+03	4.823065E-15	8.598722E-17
7.190000E+03	4.794800E-15	8.521815E-17
7.200000E+03	4.766522E-15	8.442040E-17
7.210000E+03	4.738151E-15	8.359246E-17
7.220000E+03	4.709622E-15	8.273307E-17
7.230000E+03	4.680885E-15	8.184116E-17
7.240000E+03	4.651903E-15	8.091583E-17
7.250000E+03	4.622570E-15	7.995497E-17
7.260000E+03	4.592870E-15	7.895797E-17
7.270000E+03	4.562869E-15	7.792560E-17
7.280000E+03	4.532487E-15	7.685606E-17
7.290000E+03	4.501727E-15	7.574898E-17
7.300000E+03	4.470596E-15	7.460408E-17
7.310000E+03	4.439105E-15	7.342116E-17
7.320000E+03	4.407272E-15	7.220014E-17
7.330000E+03	4.375041E-15	7.093994E-17
7.340000E+03	4.342441E-15	6.964091E-17
7.350000E+03	4.309573E-15	6.830478E-17
7.360000E+03	4.276403E-15	6.693134E-17
7.370000E+03	4.243046E-15	6.552300E-17
7.380000E+03	4.209415E-15	6.407939E-17
7.390000E+03	4.175715E-15	6.260505E-17
7.400000E+03	4.141880E-15	6.110089E-17
7.410000E+03	4.108133E-15	5.957259E-17
7.420000E+03	4.074434E-15	5.802239E-17
7.430000E+03	4.040956E-15	5.645607E-17
7.440000E+03	4.007746E-15	5.487782E-17
7.450000E+03	3.975059E-15	5.329483E-17
7.460000E+03	3.942887E-15	5.171057E-17
7.470000E+03	3.911360E-15	5.013018E-17
7.480000E+03	3.880739E-15	4.855999E-17
7.490000E+03	3.851024E-15	4.700237E-17
7.500000E+03	3.822343E-15	4.546057E-17
7.510000E+03	3.794890E-15	4.393756E-17
7.520000E+03	3.768789E-15	4.243423E-17
7.530000E+03	3.744100E-15	4.094926E-17
7.540000E+03	3.721006E-15	3.948096E-17
7.550000E+03	3.699556E-15	3.802415E-17
7.560000E+03	3.679921E-15	3.657264E-17
7.570000E+03	3.662198E-15	3.511712E-17
7.580000E+03	3.646476E-15	3.364601E-17
7.590000E+03	3.632771E-15	3.214567E-17
7.600000E+03	3.621212E-15	3.060316E-17
7.610000E+03	3.611788E-15	2.900537E-17
7.620000E+03	3.604652E-15	2.734332E-17
7.630000E+03	3.599685E-15	2.561099E-17
7.640000E+03	3.596912E-15	2.381156E-17
7.650000E+03	3.596239E-15	2.196014E-17
7.660000E+03	3.597499E-15	2.009239E-17
7.670000E+03	3.600435E-15	1.827917E-17
7.680000E+03	3.604641E-15	1.664931E-17
7.690000E+03	3.609822E-15	1.541370E-17
7.700000E+03	3.615387E-15	1.485186E-17
7.710000E+03	3.621003E-15	1.520995E-17
7.720000E+03	3.626230E-15	1.651030E-17
7.730000E+03	3.630988E-15	1.854388E-17
7.740000E+03	3.635203E-15	2.105278E-17
7.750000E+03	3.638831E-15	2.383062E-17
7.760000E+03	3.641845E-15	2.673698E-17
