#wls	flux	fluxerr
1.600000E+03	4.342854E-15	6.221838E-16
1.640000E+03	4.406451E-15	5.920656E-16
1.680000E+03	4.467253E-15	5.612826E-16
1.720000E+03	4.524427E-15	5.300374E-16
1.760000E+03	4.578807E-15	4.987788E-16
1.800000E+03	4.630618E-15	4.679105E-16
1.840000E+03	4.680266E-15	4.378973E-16
1.880000E+03	4.728363E-15	4.092678E-16
1.920000E+03	4.776550E-15	3.826769E-16
1.960000E+03	4.825115E-15	3.586919E-16
2.000000E+03	4.876182E-15	3.380292E-16
2.040000E+03	4.931307E-15	3.212967E-16
2.080000E+03	4.992224E-15	3.089614E-16
2.120000E+03	5.060752E-15	3.011908E-16
2.160000E+03	5.138680E-15	2.977285E-16
2.200000E+03	5.228652E-15	2.980758E-16
2.240000E+03	5.331736E-15	3.015293E-16
2.280000E+03	5.451494E-15	3.075291E-16
2.320000E+03	5.588804E-15	3.154061E-16
2.360000E+03	5.745239E-15	3.246474E-16
2.400000E+03	5.923376E-15	3.350105E-16
2.440000E+03	6.125216E-15	3.464877E-16
2.480000E+03	6.353105E-15	3.593832E-16
2.520000E+03	6.610694E-15	3.743629E-16
2.560000E+03	6.901023E-15	3.922974E-16
2.600000E+03	7.227122E-15	4.141777E-16
2.640000E+03	7.591355E-15	4.408442E-16
2.680000E+03	7.996298E-15	4.726718E-16
2.720000E+03	8.439152E-15	5.091338E-16
2.760000E+03	8.918536E-15	5.493259E-16
2.800000E+03	9.426737E-15	5.915929E-16
2.840000E+03	9.958832E-15	6.341672E-16
2.880000E+03	1.050702E-14	6.749060E-16
2.920000E+03	1.105903E-14	7.112703E-16
2.960000E+03	1.160467E-14	7.408490E-16
3.000000E+03	1.212955E-14	7.610807E-16
3.010000E+03	1.225540E-14	7.643736E-16
3.020000E+03	1.237916E-14	7.669253E-16
3.030000E+03	1.250057E-14	7.687032E-16
3.040000E+03	1.261795E-14	7.695895E-16
3.050000E+03	1.273390E-14	7.697296E-16
3.060000E+03	1.284531E-14	7.689240E-16
3.070000E+03	1.295191E-14	7.671504E-16
3.080000E+03	1.305632E-14	7.645584E-16
3.090000E+03	1.315540E-14	7.609605E-16
3.100000E+03	1.325181E-14	7.565090E-16
3.110000E+03	1.334240E-14	7.510262E-16
3.120000E+03	1.342694E-14	7.445070E-16
3.130000E+03	1.350810E-14	7.371079E-16
3.140000E+03	1.358420E-14	7.287466E-16
3.150000E+03	1.365360E-14	7.193500E-16
3.160000E+03	1.371755E-14	7.090041E-16
3.170000E+03	1.377728E-14	6.977927E-16
3.180000E+03	1.382976E-14	6.855845E-16
3.190000E+03	1.387626E-14	6.724736E-16
3.200000E+03	1.391664E-14	6.584841E-16
3.210000E+03	1.395078E-14	6.436449E-16
3.220000E+03	1.397716E-14	6.279259E-16
3.230000E+03	1.399851E-14	6.114929E-16
3.240000E+03	1.401335E-14	5.943228E-16
3.250000E+03	1.402162E-14	5.764621E-16
3.260000E+03	1.402194E-14	5.579069E-16
3.270000E+03	1.401704E-14	5.388238E-16
3.280000E+03	1.400556E-14	5.192154E-16
3.290000E+03	1.398621E-14	4.990979E-16
3.300000E+03	1.396174E-14	4.786372E-16
3.310000E+03	1.393088E-14	4.578558E-16
3.320000E+03	1.389375E-14	4.368309E-16
3.330000E+03	1.385047E-14	4.156444E-16
3.340000E+03	1.380120E-14	3.943835E-16
3.350000E+03	1.374613E-14	3.731407E-16
3.360000E+03	1.368544E-14	3.520151E-16
3.370000E+03	1.361937E-14	3.311127E-16
3.380000E+03	1.354936E-14	3.105758E-16
3.390000E+03	1.347323E-14	2.904711E-16
3.400000E+03	1.339367E-14	2.709879E-16
3.410000E+03	1.330976E-14	2.522473E-16
3.420000E+03	1.322179E-14	2.344128E-16
3.430000E+03	1.313010E-14	2.176631E-16
3.440000E+03	1.303610E-14	2.022073E-16
3.450000E+03	1.293789E-14	1.882101E-16
3.460000E+03	1.283799E-14	1.759029E-16
3.470000E+03	1.273563E-14	1.654469E-16
3.480000E+03	1.263112E-14	1.569753E-16
3.490000E+03	1.252583E-14	1.505553E-16
3.500000E+03	1.241911E-14	1.461097E-16
3.510000E+03	1.231152E-14	1.434375E-16
3.520000E+03	1.220366E-14	1.422534E-16
3.530000E+03	1.209615E-14	1.422383E-16
3.540000E+03	1.199050E-14	1.430910E-16
3.550000E+03	1.188632E-14	1.445215E-16
3.560000E+03	1.178504E-14	1.463095E-16
3.570000E+03	1.168529E-14	1.482513E-16
3.580000E+03	1.158931E-14	1.502353E-16
3.590000E+03	1.149745E-14	1.521674E-16
3.600000E+03	1.140827E-14	1.539631E-16
3.610000E+03	1.132378E-14	1.556091E-16
3.620000E+03	1.124415E-14	1.570887E-16
3.630000E+03	1.116788E-14	1.583760E-16
3.640000E+03	1.109674E-14	1.595011E-16
3.650000E+03	1.103073E-14	1.604771E-16
3.660000E+03	1.096903E-14	1.613089E-16
3.670000E+03	1.091157E-14	1.620136E-16
3.680000E+03	1.085820E-14	1.626079E-16
3.690000E+03	1.080948E-14	1.631171E-16
3.700000E+03	1.076438E-14	1.635411E-16
3.710000E+03	1.072330E-14	1.638990E-16
3.720000E+03	1.068514E-14	1.641840E-16
3.730000E+03	1.064951E-14	1.643974E-16
3.740000E+03	1.061667E-14	1.645491E-16
3.750000E+03	1.058548E-14	1.646244E-16
3.760000E+03	1.055547E-14	1.646185E-16
3.770000E+03	1.052688E-14	1.645361E-16
3.780000E+03	1.049855E-14	1.643600E-16
3.790000E+03	1.047069E-14	1.640950E-16
3.800000E+03	1.044152E-14	1.637151E-16
3.810000E+03	1.041257E-14	1.632484E-16
3.820000E+03	1.038144E-14	1.626636E-16
3.830000E+03	1.034901E-14	1.619833E-16
3.840000E+03	1.031421E-14	1.612027E-16
3.850000E+03	1.027729E-14	1.603386E-16
3.860000E+03	1.023723E-14	1.593895E-16
3.870000E+03	1.019372E-14	1.583638E-16
3.880000E+03	1.014645E-14	1.572689E-16
3.890000E+03	1.009576E-14	1.561191E-16
3.900000E+03	1.004086E-14	1.549079E-16
3.910000E+03	9.981605E-15	1.536354E-16
3.920000E+03	9.917928E-15	1.522995E-16
3.930000E+03	9.850375E-15	1.509042E-16
3.940000E+03	9.778438E-15	1.494346E-16
3.950000E+03	9.702246E-15	1.478831E-16
3.960000E+03	9.621992E-15	1.462416E-16
3.970000E+03	9.537928E-15	1.445020E-16
3.980000E+03	9.450870E-15	1.426649E-16
3.990000E+03	9.360141E-15	1.407091E-16
4.000000E+03	9.267136E-15	1.386467E-16
4.010000E+03	9.171760E-15	1.364694E-16
4.020000E+03	9.073968E-15	1.341726E-16
4.030000E+03	8.975152E-15	1.317748E-16
4.040000E+03	8.875260E-15	1.292749E-16
4.050000E+03	8.774266E-15	1.266731E-16
4.060000E+03	8.673463E-15	1.239885E-16
4.070000E+03	8.572334E-15	1.212130E-16
4.080000E+03	8.471656E-15	1.183561E-16
4.090000E+03	8.371731E-15	1.154186E-16
4.100000E+03	8.272835E-15	1.123993E-16
4.110000E+03	8.174837E-15	1.092903E-16
4.120000E+03	8.078788E-15	1.060988E-16
4.130000E+03	7.984174E-15	1.028104E-16
4.140000E+03	7.891293E-15	9.942215E-17
4.150000E+03	7.800826E-15	9.593648E-17
4.160000E+03	7.713083E-15	9.235211E-17
4.170000E+03	7.628032E-15	8.866540E-17
4.180000E+03	7.546356E-15	8.488305E-17
4.190000E+03	7.468017E-15	8.100585E-17
4.200000E+03	7.393300E-15	7.704184E-17
4.210000E+03	7.322752E-15	7.300673E-17
4.220000E+03	7.256180E-15	6.891614E-17
4.230000E+03	7.193945E-15	6.480275E-17
4.240000E+03	7.135342E-15	6.070649E-17
4.250000E+03	7.080795E-15	5.670217E-17
4.260000E+03	7.029656E-15	5.288950E-17
4.270000E+03	6.981444E-15	4.941459E-17
4.280000E+03	6.935546E-15	4.647363E-17
4.290000E+03	6.891223E-15	4.430529E-17
4.300000E+03	6.847650E-15	4.315330E-17
4.310000E+03	6.803980E-15	4.319083E-17
4.320000E+03	6.759492E-15	4.441113E-17
4.330000E+03	6.713390E-15	4.661019E-17
4.340000E+03	6.665528E-15	4.951113E-17
4.350000E+03	6.615563E-15	5.284122E-17
4.360000E+03	6.563250E-15	5.637331E-17
4.370000E+03	6.508196E-15	5.993245E-17
4.380000E+03	6.450396E-15	6.339486E-17
4.390000E+03	6.390459E-15	6.668188E-17
4.400000E+03	6.327855E-15	6.973324E-17
4.410000E+03	6.263397E-15	7.252519E-17
4.420000E+03	6.197466E-15	7.504711E-17
4.430000E+03	6.130031E-15	7.729606E-17
4.440000E+03	6.062031E-15	7.929053E-17
4.450000E+03	5.993927E-15	8.105034E-17
4.460000E+03	5.925727E-15	8.259341E-17
4.470000E+03	5.858085E-15	8.394872E-17
4.480000E+03	5.791598E-15	8.514557E-17
4.490000E+03	5.726387E-15	8.620590E-17
4.500000E+03	5.662540E-15	8.714952E-17
4.510000E+03	5.600721E-15	8.800331E-17
4.520000E+03	5.540740E-15	8.877900E-17
4.530000E+03	5.483179E-15	8.949852E-17
4.540000E+03	5.427803E-15	9.016888E-17
4.550000E+03	5.374945E-15	9.080461E-17
4.560000E+03	5.324720E-15	9.141532E-17
4.570000E+03	5.277046E-15	9.200596E-17
4.580000E+03	5.232378E-15	9.258985E-17
4.590000E+03	5.190424E-15	9.316649E-17
4.600000E+03	5.151253E-15	9.374098E-17
4.610000E+03	5.115094E-15	9.432089E-17
4.620000E+03	5.081985E-15	9.491006E-17
4.630000E+03	5.051784E-15	9.550858E-17
4.640000E+03	5.024678E-15	9.612254E-17
4.650000E+03	5.000506E-15	9.675117E-17
4.660000E+03	4.979428E-15	9.739973E-17
4.670000E+03	4.961257E-15	9.806660E-17
4.680000E+03	4.946127E-15	9.875617E-17
4.690000E+03	4.933825E-15	9.946586E-17
4.700000E+03	4.924451E-15	1.001990E-16
4.710000E+03	4.917606E-15	1.009486E-16
4.720000E+03	4.913514E-15	1.017199E-16
4.730000E+03	4.912060E-15	1.025109E-16
4.740000E+03	4.912954E-15	1.033153E-16
4.750000E+03	4.916045E-15	1.041294E-16
4.760000E+03	4.921160E-15	1.049481E-16
4.770000E+03	4.928262E-15	1.057689E-16
4.780000E+03	4.936980E-15	1.065814E-16
4.790000E+03	4.947081E-15	1.073773E-16
4.800000E+03	4.958309E-15	1.081474E-16
4.810000E+03	4.970548E-15	1.088849E-16
4.820000E+03	4.983356E-15	1.095752E-16
4.830000E+03	4.996439E-15	1.102066E-16
4.840000E+03	5.009493E-15	1.107668E-16
4.850000E+03	5.022373E-15	1.112469E-16
4.860000E+03	5.034632E-15	1.116313E-16
4.870000E+03	5.045998E-15	1.119088E-16
4.880000E+03	5.056225E-15	1.120691E-16
4.890000E+03	5.065252E-15	1.121071E-16
4.900000E+03	5.072601E-15	1.120094E-16
4.910000E+03	5.078451E-15	1.117784E-16
4.920000E+03	5.082567E-15	1.114089E-16
4.930000E+03	5.085071E-15	1.109047E-16
4.940000E+03	5.085676E-15	1.102620E-16
4.950000E+03	5.084748E-15	1.094924E-16
4.960000E+03	5.082244E-15	1.085994E-16
4.970000E+03	5.078454E-15	1.075947E-16
4.980000E+03	5.073254E-15	1.064811E-16
4.990000E+03	5.067136E-15	1.052751E-16
5.000000E+03	5.060155E-15	1.039839E-16
5.010000E+03	5.052673E-15	1.026207E-16
5.020000E+03	5.044610E-15	1.011896E-16
5.030000E+03	5.036476E-15	9.970594E-17
5.040000E+03	5.028481E-15	9.817827E-17
5.050000E+03	5.020539E-15	9.660873E-17
5.060000E+03	5.013141E-15	9.500986E-17
5.070000E+03	5.006332E-15	9.338473E-17
5.080000E+03	5.000437E-15	9.174091E-17
5.090000E+03	4.995483E-15	9.007964E-17
5.100000E+03	4.991631E-15	8.840401E-17
5.110000E+03	4.989169E-15	8.671872E-17
5.120000E+03	4.987946E-15	8.502021E-17
5.130000E+03	4.988504E-15	8.331644E-17
5.140000E+03	4.990512E-15	8.160018E-17
5.150000E+03	4.994469E-15	7.987776E-17
5.160000E+03	4.999999E-15	7.814108E-17
5.170000E+03	5.007406E-15	7.639293E-17
5.180000E+03	5.016540E-15	7.462896E-17
5.190000E+03	5.027505E-15	7.284884E-17
5.200000E+03	5.040094E-15	7.104782E-17
5.210000E+03	5.054357E-15	6.922518E-17
5.220000E+03	5.070035E-15	6.737623E-17
5.230000E+03	5.086990E-15	6.549836E-17
5.240000E+03	5.105208E-15	6.359074E-17
5.250000E+03	5.124514E-15	6.165046E-17
5.260000E+03	5.144578E-15	5.967257E-17
5.270000E+03	5.165338E-15	5.765492E-17
5.280000E+03	5.186427E-15	5.559122E-17
5.290000E+03	5.207604E-15	5.347589E-17
5.300000E+03	5.228745E-15	5.130390E-17
5.310000E+03	5.249560E-15	4.906805E-17
5.320000E+03	5.269582E-15	4.676023E-17
5.330000E+03	5.288601E-15	4.437714E-17
5.340000E+03	5.306081E-15	4.191797E-17
5.350000E+03	5.321740E-15	3.939431E-17
5.360000E+03	5.335111E-15	3.683367E-17
5.370000E+03	5.345543E-15	3.429068E-17
5.380000E+03	5.352495E-15	3.186341E-17
5.390000E+03	5.355692E-15	2.970930E-17
5.400000E+03	5.354263E-15	2.804714E-17
5.410000E+03	5.347663E-15	2.713934E-17
5.420000E+03	5.335760E-15	2.721272E-17
5.430000E+03	5.318188E-15	2.832180E-17
5.440000E+03	5.295400E-15	3.029701E-17
5.450000E+03	5.268346E-15	3.287743E-17
5.460000E+03	5.237457E-15	3.581107E-17
5.470000E+03	5.203445E-15	3.890263E-17
5.480000E+03	5.167264E-15	4.201724E-17
5.490000E+03	5.129249E-15	4.506251E-17
5.500000E+03	5.090097E-15	4.798330E-17
5.510000E+03	5.050307E-15	5.074703E-17
5.520000E+03	5.010318E-15	5.333733E-17
5.530000E+03	4.970383E-15	5.574719E-17
5.540000E+03	4.930978E-15	5.797982E-17
5.550000E+03	4.892399E-15	6.004180E-17
5.560000E+03	4.854904E-15	6.194270E-17
5.570000E+03	4.818718E-15	6.369388E-17
5.580000E+03	4.783907E-15	6.530587E-17
5.590000E+03	4.750906E-15	6.679484E-17
5.600000E+03	4.719609E-15	6.816975E-17
5.610000E+03	4.690283E-15	6.944462E-17
5.620000E+03	4.663052E-15	7.063113E-17
5.630000E+03	4.638154E-15	7.174222E-17
5.640000E+03	4.615436E-15	7.278421E-17
5.650000E+03	4.595116E-15	7.376841E-17
5.660000E+03	4.577276E-15	7.470330E-17
5.670000E+03	4.561983E-15	7.559649E-17
5.680000E+03	4.549296E-15	7.645462E-17
5.690000E+03	4.539260E-15	7.728343E-17
5.700000E+03	4.531906E-15	7.808766E-17
5.710000E+03	4.527250E-15	7.887110E-17
5.720000E+03	4.525417E-15	7.963871E-17
5.730000E+03	4.526145E-15	8.038797E-17
5.740000E+03	4.529648E-15	8.112413E-17
5.750000E+03	4.535633E-15	8.184274E-17
5.760000E+03	4.544282E-15	8.254743E-17
5.770000E+03	4.555395E-15	8.323443E-17
5.780000E+03	4.568881E-15	8.390166E-17
5.790000E+03	4.584637E-15	8.454664E-17
5.800000E+03	4.602681E-15	8.516905E-17
5.810000E+03	4.622773E-15	8.576392E-17
5.820000E+03	4.644800E-15	8.632877E-17
5.830000E+03	4.668648E-15	8.686148E-17
5.840000E+03	4.694210E-15	8.736028E-17
5.850000E+03	4.721518E-15	8.782622E-17
5.860000E+03	4.750357E-15	8.825583E-17
5.870000E+03	4.780659E-15	8.864820E-17
5.880000E+03	4.812505E-15	8.900501E-17
5.890000E+03	4.845737E-15	8.932314E-17
5.900000E+03	4.880358E-15	8.960202E-17
5.910000E+03	4.916531E-15	8.984368E-17
5.920000E+03	4.954188E-15	9.004538E-17
5.930000E+03	4.993432E-15	9.020701E-17
5.940000E+03	5.034542E-15	9.033115E-17
5.950000E+03	5.077562E-15	9.041554E-17
5.960000E+03	5.122855E-15	9.046294E-17
5.970000E+03	5.170538E-15	9.047107E-17
5.980000E+03	5.220903E-15	9.043989E-17
5.990000E+03	5.274415E-15	9.037137E-17
6.000000E+03	5.331273E-15	9.026179E-17
6.010000E+03	5.391982E-15	9.011137E-17
6.020000E+03	5.456755E-15	8.991403E-17
6.030000E+03	5.526102E-15	8.966702E-17
6.040000E+03	5.600208E-15	8.936064E-17
6.050000E+03	5.679538E-15	8.898784E-17
6.060000E+03	5.764197E-15	8.853396E-17
6.070000E+03	5.854543E-15	8.798634E-17
6.080000E+03	5.950527E-15	8.732411E-17
6.090000E+03	6.052319E-15	8.652777E-17
6.100000E+03	6.159626E-15	8.556930E-17
6.110000E+03	6.272326E-15	8.442179E-17
6.120000E+03	6.389940E-15	8.305232E-17
6.130000E+03	6.511572E-15	8.142250E-17
6.140000E+03	6.636231E-15	7.949401E-17
6.150000E+03	6.762999E-15	7.723184E-17
6.160000E+03	6.889676E-15	7.459080E-17
6.170000E+03	7.014829E-15	7.154242E-17
6.180000E+03	7.135666E-15	6.805533E-17
6.190000E+03	7.249579E-15	6.411766E-17
6.200000E+03	7.353173E-15	5.973475E-17
6.210000E+03	7.443122E-15	5.494740E-17
6.220000E+03	7.515655E-15	4.984167E-17
6.230000E+03	7.566674E-15	4.457164E-17
6.240000E+03	7.592612E-15	3.939440E-17
6.250000E+03	7.590080E-15	3.470147E-17
6.260000E+03	7.556290E-15	3.102835E-17
6.270000E+03	7.490319E-15	2.894377E-17
6.280000E+03	7.393655E-15	2.870644E-17
6.290000E+03	7.272066E-15	2.994909E-17
6.300000E+03	7.133244E-15	3.201741E-17
6.310000E+03	6.985633E-15	3.437043E-17
6.320000E+03	6.836923E-15	3.669443E-17
6.330000E+03	6.693602E-15	3.886103E-17
6.340000E+03	6.561506E-15	4.086128E-17
6.350000E+03	6.444429E-15	4.274240E-17
6.360000E+03	6.345532E-15	4.457888E-17
6.370000E+03	6.266719E-15	4.644550E-17
6.380000E+03	6.208997E-15	4.840720E-17
6.390000E+03	6.172505E-15	5.051491E-17
6.400000E+03	6.157234E-15	5.281190E-17
6.410000E+03	6.162827E-15	5.533447E-17
6.420000E+03	6.188139E-15	5.810956E-17
6.430000E+03	6.232370E-15	6.116562E-17
6.440000E+03	6.294372E-15	6.452643E-17
6.450000E+03	6.372834E-15	6.821185E-17
6.460000E+03	6.466090E-15	7.223418E-17
6.470000E+03	6.572860E-15	7.660466E-17
6.480000E+03	6.691134E-15	8.131961E-17
6.490000E+03	6.818722E-15	8.636471E-17
6.500000E+03	6.953888E-15	9.172203E-17
6.510000E+03	7.094188E-15	9.735487E-17
6.520000E+03	7.237077E-15	1.032145E-16
6.530000E+03	7.380598E-15	1.092502E-16
6.540000E+03	7.522147E-15	1.153931E-16
6.550000E+03	7.659117E-15	1.215655E-16
6.560000E+03	7.789617E-15	1.276944E-16
6.570000E+03	7.911164E-15	1.336930E-16
6.580000E+03	8.021618E-15	1.394767E-16
6.590000E+03	8.119005E-15	1.449629E-16
6.600000E+03	8.201580E-15	1.500733E-16
6.610000E+03	8.268136E-15	1.547412E-16
6.620000E+03	8.317066E-15	1.588959E-16
6.630000E+03	8.347857E-15	1.624913E-16
6.640000E+03	8.360367E-15	1.654946E-16
6.650000E+03	8.354300E-15	1.678771E-16
6.660000E+03	8.329936E-15	1.696288E-16
6.670000E+03	8.287850E-15	1.707533E-16
6.680000E+03	8.229126E-15	1.712724E-16
6.690000E+03	8.154322E-15	1.712043E-16
6.700000E+03	8.065162E-15	1.705977E-16
6.710000E+03	7.962765E-15	1.694938E-16
6.720000E+03	7.848825E-15	1.679502E-16
6.730000E+03	7.724380E-15	1.660127E-16
6.740000E+03	7.591437E-15	1.637491E-16
6.750000E+03	7.451289E-15	1.612116E-16
6.760000E+03	7.305434E-15	1.584554E-16
6.770000E+03	7.155533E-15	1.555372E-16
6.780000E+03	7.002732E-15	1.524999E-16
6.790000E+03	6.848312E-15	1.493865E-16
6.800000E+03	6.693451E-15	1.462352E-16
6.810000E+03	6.539417E-15	1.430832E-16
6.820000E+03	6.386955E-15	1.399543E-16
6.830000E+03	6.237093E-15	1.368761E-16
6.840000E+03	6.090168E-15	1.338596E-16
6.850000E+03	5.947168E-15	1.309284E-16
6.860000E+03	5.808410E-15	1.280902E-16
6.870000E+03	5.674476E-15	1.253579E-16
6.880000E+03	5.545502E-15	1.227337E-16
6.890000E+03	5.421724E-15	1.202217E-16
6.900000E+03	5.303304E-15	1.178240E-16
6.910000E+03	5.190498E-15	1.155447E-16
6.920000E+03	5.083177E-15	1.133792E-16
6.930000E+03	4.981481E-15	1.113292E-16
6.940000E+03	4.885041E-15	1.093847E-16
6.950000E+03	4.794068E-15	1.075492E-16
6.960000E+03	4.708425E-15	1.058182E-16
6.970000E+03	4.627663E-15	1.041806E-16
6.980000E+03	4.551895E-15	1.026378E-16
6.990000E+03	4.480778E-15	1.011812E-16
7.000000E+03	4.414243E-15	9.980842E-17
7.010000E+03	4.351792E-15	9.850756E-17
7.020000E+03	4.293472E-15	9.727905E-17
7.030000E+03	4.238916E-15	9.611399E-17
7.040000E+03	4.188020E-15	9.500957E-17
7.050000E+03	4.140420E-15	9.395703E-17
7.060000E+03	4.095757E-15	9.294780E-17
7.070000E+03	4.054189E-15	9.198507E-17
7.080000E+03	4.015111E-15	9.105472E-17
7.090000E+03	3.978435E-15	9.015444E-17
7.100000E+03	3.944081E-15	8.928201E-17
7.110000E+03	3.911726E-15	8.842980E-17
7.120000E+03	3.881183E-15	8.759330E-17
7.130000E+03	3.852281E-15	8.676830E-17
7.140000E+03	3.824977E-15	8.595364E-17
7.150000E+03	3.798882E-15	8.514034E-17
7.160000E+03	3.774102E-15	8.433062E-17
7.170000E+03	3.750276E-15	8.351629E-17
7.180000E+03	3.727532E-15	8.270016E-17
7.190000E+03	3.705655E-15	8.187734E-17
7.200000E+03	3.684557E-15	8.104586E-17
7.210000E+03	3.664163E-15	8.020399E-17
7.220000E+03	3.644402E-15	7.935021E-17
7.230000E+03	3.625217E-15	7.848315E-17
7.240000E+03	3.606552E-15	7.760160E-17
7.250000E+03	3.588361E-15	7.670449E-17
7.260000E+03	3.570603E-15	7.579084E-17
7.270000E+03	3.553241E-15	7.485979E-17
7.280000E+03	3.536130E-15	7.390818E-17
7.290000E+03	3.519470E-15	7.294007E-17
7.300000E+03	3.503125E-15	7.195246E-17
7.310000E+03	3.486966E-15	7.094253E-17
7.320000E+03	3.471202E-15	6.991441E-17
7.330000E+03	3.455602E-15	6.886322E-17
7.340000E+03	3.440272E-15	6.779102E-17
7.350000E+03	3.425213E-15	6.669769E-17
7.360000E+03	3.410432E-15	6.558331E-17
7.370000E+03	3.395941E-15	6.444811E-17
7.380000E+03	3.381653E-15	6.329049E-17
7.390000E+03	3.367702E-15	6.211325E-17
7.400000E+03	3.354125E-15	6.091731E-17
7.410000E+03	3.340964E-15	5.970388E-17
7.420000E+03	3.328159E-15	5.847245E-17
7.430000E+03	3.315877E-15	5.722663E-17
7.440000E+03	3.304179E-15	5.596814E-17
7.450000E+03	3.293026E-15	5.469694E-17
7.460000E+03	3.282702E-15	5.341829E-17
7.470000E+03	3.272960E-15	5.212836E-17
7.480000E+03	3.264194E-15	5.083338E-17
7.490000E+03	3.256261E-15	4.953046E-17
7.500000E+03	3.249340E-15	4.822110E-17
7.510000E+03	3.243390E-15	4.690270E-17
7.520000E+03	3.238577E-15	4.557485E-17
7.530000E+03	3.234852E-15	4.423287E-17
7.540000E+03	3.232365E-15	4.287378E-17
7.550000E+03	3.231154E-15	4.149151E-17
7.560000E+03	3.231136E-15	4.007709E-17
7.570000E+03	3.232426E-15	3.862270E-17
7.580000E+03	3.234909E-15	3.711663E-17
7.590000E+03	3.238660E-15	3.554925E-17
7.600000E+03	3.243514E-15	3.390910E-17
7.610000E+03	3.249377E-15	3.218811E-17
7.620000E+03	3.256332E-15	3.038415E-17
7.630000E+03	3.263872E-15	2.849621E-17
7.640000E+03	3.271968E-15	2.653818E-17
7.650000E+03	3.280310E-15	2.453672E-17
7.660000E+03	3.288393E-15	2.254078E-17
7.670000E+03	3.295850E-15	2.063603E-17
7.680000E+03	3.301909E-15	1.895616E-17
7.690000E+03	3.306299E-15	1.769709E-17
7.700000E+03	3.308192E-15	1.708799E-17
7.710000E+03	3.307071E-15	1.731376E-17
7.720000E+03	3.302733E-15	1.838935E-17
7.730000E+03	3.295440E-15	2.015333E-17
7.740000E+03	3.285362E-15	2.238798E-17
7.750000E+03	3.272935E-15	2.490316E-17
7.760000E+03	3.258380E-15	2.755738E-17
