#wls	flux	fluxerr
1.600000E+03	4.397094E-15	6.273316E-16
1.640000E+03	4.462449E-15	5.968569E-16
1.680000E+03	4.524164E-15	5.655808E-16
1.720000E+03	4.583708E-15	5.339983E-16
1.760000E+03	4.639552E-15	5.022677E-16
1.800000E+03	4.692675E-15	4.708943E-16
1.840000E+03	4.744265E-15	4.404245E-16
1.880000E+03	4.794122E-15	4.113125E-16
1.920000E+03	4.843891E-15	3.842296E-16
1.960000E+03	4.893853E-15	3.597650E-16
2.000000E+03	4.946167E-15	3.386632E-16
2.040000E+03	5.001605E-15	3.215117E-16
2.080000E+03	5.063586E-15	3.089163E-16
2.120000E+03	5.133989E-15	3.010539E-16
2.160000E+03	5.212980E-15	2.975548E-16
2.200000E+03	5.304896E-15	2.979866E-16
2.240000E+03	5.410840E-15	3.016136E-16
2.280000E+03	5.531883E-15	3.077064E-16
2.320000E+03	5.672287E-15	3.157548E-16
2.360000E+03	5.831008E-15	3.250723E-16
2.400000E+03	6.012346E-15	3.354938E-16
2.440000E+03	6.218327E-15	3.470079E-16
2.480000E+03	6.450424E-15	3.598799E-16
2.520000E+03	6.712342E-15	3.748055E-16
2.560000E+03	7.007202E-15	3.927050E-16
2.600000E+03	7.339178E-15	4.146931E-16
2.640000E+03	7.711913E-15	4.417449E-16
2.680000E+03	8.123808E-15	4.740225E-16
2.720000E+03	8.576140E-15	5.112243E-16
2.760000E+03	9.065154E-15	5.522769E-16
2.800000E+03	9.585215E-15	5.956145E-16
2.840000E+03	1.012875E-14	6.392611E-16
2.880000E+03	1.068879E-14	6.810767E-16
2.920000E+03	1.125263E-14	7.184472E-16
2.960000E+03	1.180955E-14	7.488805E-16
3.000000E+03	1.234450E-14	7.697335E-16
3.010000E+03	1.247342E-14	7.731881E-16
3.020000E+03	1.259862E-14	7.757878E-16
3.030000E+03	1.272266E-14	7.776736E-16
3.040000E+03	1.284242E-14	7.786397E-16
3.050000E+03	1.295905E-14	7.787438E-16
3.060000E+03	1.307230E-14	7.779587E-16
3.070000E+03	1.318187E-14	7.762598E-16
3.080000E+03	1.328608E-14	7.735414E-16
3.090000E+03	1.338752E-14	7.699532E-16
3.100000E+03	1.348451E-14	7.653950E-16
3.110000E+03	1.357534E-14	7.597739E-16
3.120000E+03	1.366120E-14	7.531645E-16
3.130000E+03	1.374330E-14	7.456405E-16
3.140000E+03	1.381852E-14	7.370436E-16
3.150000E+03	1.388808E-14	7.274570E-16
3.160000E+03	1.395322E-14	7.169622E-16
3.170000E+03	1.401085E-14	7.054226E-16
3.180000E+03	1.406224E-14	6.929301E-16
3.190000E+03	1.410723E-14	6.795062E-16
3.200000E+03	1.414708E-14	6.652430E-16
3.210000E+03	1.417883E-14	6.500364E-16
3.220000E+03	1.420518E-14	6.340522E-16
3.230000E+03	1.422326E-14	6.172035E-16
3.240000E+03	1.423577E-14	5.996572E-16
3.250000E+03	1.424129E-14	5.813998E-16
3.260000E+03	1.423978E-14	5.624847E-16
3.270000E+03	1.423126E-14	5.429697E-16
3.280000E+03	1.421576E-14	5.229170E-16
3.290000E+03	1.419334E-14	5.023934E-16
3.300000E+03	1.416538E-14	4.815142E-16
3.310000E+03	1.413067E-14	4.603058E-16
3.320000E+03	1.408933E-14	4.388478E-16
3.330000E+03	1.404154E-14	4.172248E-16
3.340000E+03	1.398872E-14	3.955618E-16
3.350000E+03	1.392857E-14	3.738802E-16
3.360000E+03	1.386382E-14	3.523498E-16
3.370000E+03	1.379468E-14	3.310720E-16
3.380000E+03	1.371900E-14	3.101024E-16
3.390000E+03	1.363948E-14	2.896225E-16
3.400000E+03	1.355523E-14	2.697399E-16
3.410000E+03	1.346775E-14	2.506257E-16
3.420000E+03	1.337619E-14	2.324197E-16
3.430000E+03	1.328095E-14	2.153027E-16
3.440000E+03	1.318349E-14	1.994861E-16
3.450000E+03	1.308306E-14	1.851545E-16
3.460000E+03	1.298004E-14	1.725084E-16
3.470000E+03	1.287585E-14	1.617385E-16
3.480000E+03	1.276977E-14	1.529608E-16
3.490000E+03	1.266317E-14	1.462386E-16
3.500000E+03	1.255545E-14	1.414919E-16
3.510000E+03	1.244811E-14	1.385290E-16
3.520000E+03	1.234076E-14	1.370511E-16
3.530000E+03	1.223493E-14	1.367469E-16
3.540000E+03	1.213022E-14	1.372913E-16
3.550000E+03	1.202811E-14	1.384151E-16
3.560000E+03	1.192904E-14	1.398872E-16
3.570000E+03	1.183170E-14	1.415075E-16
3.580000E+03	1.173914E-14	1.431758E-16
3.590000E+03	1.164993E-14	1.447797E-16
3.600000E+03	1.156439E-14	1.462603E-16
3.610000E+03	1.148444E-14	1.476059E-16
3.620000E+03	1.140778E-14	1.487707E-16
3.630000E+03	1.133701E-14	1.497866E-16
3.640000E+03	1.127059E-14	1.506427E-16
3.650000E+03	1.120858E-14	1.513551E-16
3.660000E+03	1.115249E-14	1.519639E-16
3.670000E+03	1.110066E-14	1.524682E-16
3.680000E+03	1.105295E-14	1.528856E-16
3.690000E+03	1.100985E-14	1.532409E-16
3.700000E+03	1.097104E-14	1.535451E-16
3.710000E+03	1.093612E-14	1.538044E-16
3.720000E+03	1.090397E-14	1.540112E-16
3.730000E+03	1.087481E-14	1.541746E-16
3.740000E+03	1.084749E-14	1.542803E-16
3.750000E+03	1.082217E-14	1.543317E-16
3.760000E+03	1.079836E-14	1.543207E-16
3.770000E+03	1.077552E-14	1.542379E-16
3.780000E+03	1.075250E-14	1.540647E-16
3.790000E+03	1.072945E-14	1.538016E-16
3.800000E+03	1.070525E-14	1.534314E-16
3.810000E+03	1.068070E-14	1.529669E-16
3.820000E+03	1.065343E-14	1.523793E-16
3.830000E+03	1.062486E-14	1.516985E-16
3.840000E+03	1.059331E-14	1.509140E-16
3.850000E+03	1.055896E-14	1.500451E-16
3.860000E+03	1.052080E-14	1.490953E-16
3.870000E+03	1.047905E-14	1.480857E-16
3.880000E+03	1.043338E-14	1.470269E-16
3.890000E+03	1.038292E-14	1.459177E-16
3.900000E+03	1.032803E-14	1.447697E-16
3.910000E+03	1.026797E-14	1.435755E-16
3.920000E+03	1.020324E-14	1.423398E-16
3.930000E+03	1.013380E-14	1.410567E-16
3.940000E+03	1.005920E-14	1.397109E-16
3.950000E+03	9.979586E-15	1.382925E-16
3.960000E+03	9.895712E-15	1.367980E-16
3.970000E+03	9.807351E-15	1.352094E-16
3.980000E+03	9.715357E-15	1.335233E-16
3.990000E+03	9.619638E-15	1.317247E-16
4.000000E+03	9.521119E-15	1.298154E-16
4.010000E+03	9.419795E-15	1.277879E-16
4.020000E+03	9.316170E-15	1.256454E-16
4.030000E+03	9.210753E-15	1.233947E-16
4.040000E+03	9.104482E-15	1.210502E-16
4.050000E+03	8.997394E-15	1.186158E-16
4.060000E+03	8.889943E-15	1.161004E-16
4.070000E+03	8.782541E-15	1.135103E-16
4.080000E+03	8.675952E-15	1.108542E-16
4.090000E+03	8.569694E-15	1.081227E-16
4.100000E+03	8.464457E-15	1.053190E-16
4.110000E+03	8.360877E-15	1.024434E-16
4.120000E+03	8.258459E-15	9.948138E-17
4.130000E+03	8.157863E-15	9.643152E-17
4.140000E+03	8.059390E-15	9.328825E-17
4.150000E+03	7.963373E-15	9.004775E-17
4.160000E+03	7.870180E-15	8.670810E-17
4.170000E+03	7.779873E-15	8.326619E-17
4.180000E+03	7.693198E-15	7.972831E-17
4.190000E+03	7.610551E-15	7.609840E-17
4.200000E+03	7.531988E-15	7.238014E-17
4.210000E+03	7.457827E-15	6.858462E-17
4.220000E+03	7.388592E-15	6.473111E-17
4.230000E+03	7.324382E-15	6.084582E-17
4.240000E+03	7.264870E-15	5.696818E-17
4.250000E+03	7.209595E-15	5.316099E-17
4.260000E+03	7.159079E-15	4.952965E-17
4.270000E+03	7.111955E-15	4.621263E-17
4.280000E+03	7.067823E-15	4.340993E-17
4.290000E+03	7.026104E-15	4.136916E-17
4.300000E+03	6.985276E-15	4.034215E-17
4.310000E+03	6.944562E-15	4.051021E-17
4.320000E+03	6.903326E-15	4.186594E-17
4.330000E+03	6.860410E-15	4.419578E-17
4.340000E+03	6.815286E-15	4.720807E-17
4.350000E+03	6.767753E-15	5.062190E-17
4.360000E+03	6.717469E-15	5.420557E-17
4.370000E+03	6.664243E-15	5.778560E-17
4.380000E+03	6.607796E-15	6.123778E-17
4.390000E+03	6.548250E-15	6.448098E-17
4.400000E+03	6.486098E-15	6.746817E-17
4.410000E+03	6.421485E-15	7.017213E-17
4.420000E+03	6.354878E-15	7.258647E-17
4.430000E+03	6.286805E-15	7.471878E-17
4.440000E+03	6.218032E-15	7.658964E-17
4.450000E+03	6.148681E-15	7.821892E-17
4.460000E+03	6.079697E-15	7.964102E-17
4.470000E+03	6.011146E-15	8.088144E-17
4.480000E+03	5.943660E-15	8.197295E-17
4.490000E+03	5.877788E-15	8.294561E-17
4.500000E+03	5.813440E-15	8.381823E-17
4.510000E+03	5.750875E-15	8.461191E-17
4.520000E+03	5.690685E-15	8.534991E-17
4.530000E+03	5.632677E-15	8.604159E-17
4.540000E+03	5.577014E-15	8.669939E-17
4.550000E+03	5.524011E-15	8.733615E-17
4.560000E+03	5.473781E-15	8.796015E-17
4.570000E+03	5.426252E-15	8.857546E-17
4.580000E+03	5.381518E-15	8.918762E-17
4.590000E+03	5.339826E-15	8.980407E-17
4.600000E+03	5.301073E-15	9.042600E-17
4.610000E+03	5.265481E-15	9.105953E-17
4.620000E+03	5.232770E-15	9.170195E-17
4.630000E+03	5.203297E-15	9.236149E-17
4.640000E+03	5.176924E-15	9.303749E-17
4.650000E+03	5.153661E-15	9.373189E-17
4.660000E+03	5.133662E-15	9.444917E-17
4.670000E+03	5.116600E-15	9.518496E-17
4.680000E+03	5.102601E-15	9.594301E-17
4.690000E+03	5.091771E-15	9.672677E-17
4.700000E+03	5.083744E-15	9.753052E-17
4.710000E+03	5.078742E-15	9.835944E-17
4.720000E+03	5.076516E-15	9.920945E-17
4.730000E+03	5.076802E-15	1.000756E-16
4.740000E+03	5.079609E-15	1.009577E-16
4.750000E+03	5.084923E-15	1.018547E-16
4.760000E+03	5.092268E-15	1.027557E-16
4.770000E+03	5.101581E-15	1.036574E-16
4.780000E+03	5.112631E-15	1.045521E-16
4.790000E+03	5.125158E-15	1.054311E-16
4.800000E+03	5.138881E-15	1.062844E-16
4.810000E+03	5.153496E-15	1.071006E-16
4.820000E+03	5.168538E-15	1.078645E-16
4.830000E+03	5.183958E-15	1.085689E-16
4.840000E+03	5.199122E-15	1.091940E-16
4.850000E+03	5.213826E-15	1.097286E-16
4.860000E+03	5.227728E-15	1.101586E-16
4.870000E+03	5.240506E-15	1.104709E-16
4.880000E+03	5.251875E-15	1.106537E-16
4.890000E+03	5.261587E-15	1.106971E-16
4.900000E+03	5.269301E-15	1.105904E-16
4.910000E+03	5.275158E-15	1.103347E-16
4.920000E+03	5.278785E-15	1.099222E-16
4.930000E+03	5.280293E-15	1.093569E-16
4.940000E+03	5.279850E-15	1.086453E-16
4.950000E+03	5.277256E-15	1.077881E-16
4.960000E+03	5.272786E-15	1.067966E-16
4.970000E+03	5.266621E-15	1.056809E-16
4.980000E+03	5.258975E-15	1.044524E-16
4.990000E+03	5.250081E-15	1.031230E-16
5.000000E+03	5.240045E-15	1.017020E-16
5.010000E+03	5.229388E-15	1.002067E-16
5.020000E+03	5.218216E-15	9.864597E-17
5.030000E+03	5.206770E-15	9.703044E-17
5.040000E+03	5.195287E-15	9.536993E-17
5.050000E+03	5.183996E-15	9.367326E-17
5.060000E+03	5.173116E-15	9.194795E-17
5.070000E+03	5.162724E-15	9.019810E-17
5.080000E+03	5.153285E-15	8.843381E-17
5.090000E+03	5.144987E-15	8.665915E-17
5.100000E+03	5.137741E-15	8.487290E-17
5.110000E+03	5.131841E-15	8.307982E-17
5.120000E+03	5.127570E-15	8.128355E-17
5.130000E+03	5.124797E-15	7.948077E-17
5.140000E+03	5.123895E-15	7.767588E-17
5.150000E+03	5.124820E-15	7.586639E-17
5.160000E+03	5.127632E-15	7.405145E-17
5.170000E+03	5.132357E-15	7.222982E-17
5.180000E+03	5.138990E-15	7.039973E-17
5.190000E+03	5.147620E-15	6.856104E-17
5.200000E+03	5.157916E-15	6.670841E-17
5.210000E+03	5.170036E-15	6.484341E-17
5.220000E+03	5.183721E-15	6.296289E-17
5.230000E+03	5.198956E-15	6.106751E-17
5.240000E+03	5.215444E-15	5.915498E-17
5.250000E+03	5.232876E-15	5.722361E-17
5.260000E+03	5.251452E-15	5.527740E-17
5.270000E+03	5.270579E-15	5.331088E-17
5.280000E+03	5.290304E-15	5.132500E-17
5.290000E+03	5.310262E-15	4.931551E-17
5.300000E+03	5.330195E-15	4.727779E-17
5.310000E+03	5.349955E-15	4.520756E-17
5.320000E+03	5.369094E-15	4.309766E-17
5.330000E+03	5.387399E-15	4.094337E-17
5.340000E+03	5.404217E-15	3.874080E-17
5.350000E+03	5.419391E-15	3.649838E-17
5.360000E+03	5.432458E-15	3.423670E-17
5.370000E+03	5.442779E-15	3.200178E-17
5.380000E+03	5.449807E-15	2.988091E-17
5.390000E+03	5.453097E-15	2.801604E-17
5.400000E+03	5.451916E-15	2.660974E-17
5.410000E+03	5.445677E-15	2.590526E-17
5.420000E+03	5.434028E-15	2.611009E-17
5.430000E+03	5.416870E-15	2.727203E-17
5.440000E+03	5.394562E-15	2.923107E-17
5.450000E+03	5.367808E-15	3.174156E-17
5.460000E+03	5.337485E-15	3.457123E-17
5.470000E+03	5.304188E-15	3.753802E-17
5.480000E+03	5.268721E-15	4.051553E-17
5.490000E+03	5.231696E-15	4.342037E-17
5.500000E+03	5.193536E-15	4.620009E-17
5.510000E+03	5.154857E-15	4.882637E-17
5.520000E+03	5.115961E-15	5.128394E-17
5.530000E+03	5.077348E-15	5.357030E-17
5.540000E+03	5.039221E-15	5.568693E-17
5.550000E+03	5.001986E-15	5.764236E-17
5.560000E+03	4.965885E-15	5.944666E-17
5.570000E+03	4.931010E-15	6.110974E-17
5.580000E+03	4.897787E-15	6.264678E-17
5.590000E+03	4.866019E-15	6.406569E-17
5.600000E+03	4.836213E-15	6.538329E-17
5.610000E+03	4.808261E-15	6.660823E-17
5.620000E+03	4.782404E-15	6.775340E-17
5.630000E+03	4.758753E-15	6.882924E-17
5.640000E+03	4.737412E-15	6.984541E-17
5.650000E+03	4.718360E-15	7.080907E-17
5.660000E+03	4.701915E-15	7.173157E-17
5.670000E+03	4.687922E-15	7.261641E-17
5.680000E+03	4.676560E-15	7.347152E-17
5.690000E+03	4.667879E-15	7.430199E-17
5.700000E+03	4.661916E-15	7.511200E-17
5.710000E+03	4.658688E-15	7.590477E-17
5.720000E+03	4.658082E-15	7.668049E-17
5.730000E+03	4.660309E-15	7.744400E-17
5.740000E+03	4.665219E-15	7.819355E-17
5.750000E+03	4.672753E-15	7.892818E-17
5.760000E+03	4.682719E-15	7.964413E-17
5.770000E+03	4.695255E-15	8.034281E-17
5.780000E+03	4.710134E-15	8.101907E-17
5.790000E+03	4.727230E-15	8.166938E-17
5.800000E+03	4.746408E-15	8.229011E-17
5.810000E+03	4.767529E-15	8.287767E-17
5.820000E+03	4.790567E-15	8.343094E-17
5.830000E+03	4.815144E-15	8.394330E-17
5.840000E+03	4.841363E-15	8.441711E-17
5.850000E+03	4.868979E-15	8.484919E-17
5.860000E+03	4.897879E-15	8.523883E-17
5.870000E+03	4.927968E-15	8.558540E-17
5.880000E+03	4.959171E-15	8.588837E-17
5.890000E+03	4.991564E-15	8.614951E-17
5.900000E+03	5.025005E-15	8.636629E-17
5.910000E+03	5.059509E-15	8.653853E-17
5.920000E+03	5.095255E-15	8.666850E-17
5.930000E+03	5.132218E-15	8.675436E-17
5.940000E+03	5.170541E-15	8.679679E-17
5.950000E+03	5.210414E-15	8.679680E-17
5.960000E+03	5.252209E-15	8.675769E-17
5.970000E+03	5.296080E-15	8.667860E-17
5.980000E+03	5.342486E-15	8.656295E-17
5.990000E+03	5.391654E-15	8.640936E-17
6.000000E+03	5.443973E-15	8.621811E-17
6.010000E+03	5.499848E-15	8.598859E-17
6.020000E+03	5.559831E-15	8.572093E-17
6.030000E+03	5.624339E-15	8.541158E-17
6.040000E+03	5.693631E-15	8.505302E-17
6.050000E+03	5.768072E-15	8.463745E-17
6.060000E+03	5.848131E-15	8.415671E-17
6.070000E+03	5.933923E-15	8.359551E-17
6.080000E+03	6.025770E-15	8.293934E-17
6.090000E+03	6.123590E-15	8.216604E-17
6.100000E+03	6.227466E-15	8.125400E-17
6.110000E+03	6.337003E-15	8.017335E-17
6.120000E+03	6.451755E-15	7.889274E-17
6.130000E+03	6.571368E-15	7.738145E-17
6.140000E+03	6.694371E-15	7.559578E-17
6.150000E+03	6.819796E-15	7.350058E-17
6.160000E+03	6.945973E-15	7.105708E-17
6.170000E+03	7.070633E-15	6.822750E-17
6.180000E+03	7.191416E-15	6.498484E-17
6.190000E+03	7.305333E-15	6.131282E-17
6.200000E+03	7.408548E-15	5.721196E-17
6.210000E+03	7.497769E-15	5.272130E-17
6.220000E+03	7.568446E-15	4.791795E-17
6.230000E+03	7.616428E-15	4.294861E-17
6.240000E+03	7.637258E-15	3.805042E-17
6.250000E+03	7.627276E-15	3.358390E-17
6.260000E+03	7.583480E-15	3.002923E-17
6.270000E+03	7.504306E-15	2.788001E-17
6.280000E+03	7.391695E-15	2.734631E-17
6.290000E+03	7.252441E-15	2.808827E-17
6.300000E+03	7.095633E-15	2.951804E-17
6.310000E+03	6.930965E-15	3.115688E-17
6.320000E+03	6.767115E-15	3.273854E-17
6.330000E+03	6.611314E-15	3.417319E-17
6.340000E+03	6.469654E-15	3.548237E-17
6.350000E+03	6.346486E-15	3.674057E-17
6.360000E+03	6.244777E-15	3.804015E-17
6.370000E+03	6.166116E-15	3.946265E-17
6.380000E+03	6.111506E-15	4.106718E-17
6.390000E+03	6.080547E-15	4.288876E-17
6.400000E+03	6.072889E-15	4.495592E-17
6.410000E+03	6.087594E-15	4.729035E-17
6.420000E+03	6.124032E-15	4.991746E-17
6.430000E+03	6.180800E-15	5.285920E-17
6.440000E+03	6.257003E-15	5.614250E-17
6.450000E+03	6.350942E-15	5.978742E-17
6.460000E+03	6.461231E-15	6.381418E-17
6.470000E+03	6.586112E-15	6.823338E-17
6.480000E+03	6.723615E-15	7.304613E-17
6.490000E+03	6.871577E-15	7.824276E-17
6.500000E+03	7.027666E-15	8.380067E-17
6.510000E+03	7.189408E-15	8.968409E-17
6.520000E+03	7.354236E-15	9.584449E-17
6.530000E+03	7.519551E-15	1.022205E-16
6.540000E+03	7.682739E-15	1.087397E-16
6.550000E+03	7.841404E-15	1.153235E-16
6.560000E+03	7.992561E-15	1.218773E-16
6.570000E+03	8.133915E-15	1.283112E-16
6.580000E+03	8.263282E-15	1.345350E-16
6.590000E+03	8.377964E-15	1.404494E-16
6.600000E+03	8.476386E-15	1.459743E-16
6.610000E+03	8.556642E-15	1.510264E-16
6.620000E+03	8.617477E-15	1.555365E-16
6.630000E+03	8.658077E-15	1.594480E-16
6.640000E+03	8.678271E-15	1.627232E-16
6.650000E+03	8.677581E-15	1.653265E-16
6.660000E+03	8.656827E-15	1.672556E-16
6.670000E+03	8.616689E-15	1.685152E-16
6.680000E+03	8.557666E-15	1.691151E-16
6.690000E+03	8.481441E-15	1.690965E-16
6.700000E+03	8.389180E-15	1.684984E-16
6.710000E+03	8.282426E-15	1.673733E-16
6.720000E+03	8.163037E-15	1.657848E-16
6.730000E+03	8.032472E-15	1.637913E-16
6.740000E+03	7.892650E-15	1.614611E-16
6.750000E+03	7.744824E-15	1.588487E-16
6.760000E+03	7.591075E-15	1.560230E-16
6.770000E+03	7.432980E-15	1.530399E-16
6.780000E+03	7.271830E-15	1.499456E-16
6.790000E+03	7.109026E-15	1.467854E-16
6.800000E+03	6.946046E-15	1.436024E-16
6.810000E+03	6.783846E-15	1.404263E-16
6.820000E+03	6.623454E-15	1.372852E-16
6.830000E+03	6.465945E-15	1.342062E-16
6.840000E+03	6.312076E-15	1.312075E-16
6.850000E+03	6.162135E-15	1.282963E-16
6.860000E+03	6.017169E-15	1.254943E-16
6.870000E+03	5.877084E-15	1.227985E-16
6.880000E+03	5.742537E-15	1.202210E-16
6.890000E+03	5.613753E-15	1.177645E-16
6.900000E+03	5.490723E-15	1.154266E-16
6.910000E+03	5.373535E-15	1.132068E-16
6.920000E+03	5.262360E-15	1.111066E-16
6.930000E+03	5.157017E-15	1.091199E-16
6.940000E+03	5.057571E-15	1.072462E-16
6.950000E+03	4.963759E-15	1.054783E-16
6.960000E+03	4.875432E-15	1.038112E-16
6.970000E+03	4.792548E-15	1.022428E-16
6.980000E+03	4.714900E-15	1.007674E-16
6.990000E+03	4.642131E-15	9.937645E-17
7.000000E+03	4.574009E-15	9.806398E-17
7.010000E+03	4.510292E-15	9.682402E-17
7.020000E+03	4.450855E-15	9.565321E-17
7.030000E+03	4.395315E-15	9.454278E-17
7.040000E+03	4.343542E-15	9.348932E-17
7.050000E+03	4.295154E-15	9.248416E-17
7.060000E+03	4.249901E-15	9.152150E-17
7.070000E+03	4.207657E-15	9.059816E-17
7.080000E+03	4.168059E-15	8.970594E-17
7.090000E+03	4.130875E-15	8.883950E-17
7.100000E+03	4.095998E-15	8.799617E-17
7.110000E+03	4.063096E-15	8.716847E-17
7.120000E+03	4.031970E-15	8.635181E-17
7.130000E+03	4.002433E-15	8.554189E-17
7.140000E+03	3.974313E-15	8.473476E-17
7.150000E+03	3.947566E-15	8.392937E-17
7.160000E+03	3.921938E-15	8.312011E-17
7.170000E+03	3.897303E-15	8.230428E-17
7.180000E+03	3.873547E-15	8.147956E-17
7.190000E+03	3.850686E-15	8.064620E-17
7.200000E+03	3.828408E-15	7.979777E-17
7.210000E+03	3.806862E-15	7.893740E-17
7.220000E+03	3.785758E-15	7.805913E-17
7.230000E+03	3.765259E-15	7.716635E-17
7.240000E+03	3.745203E-15	7.625580E-17
7.250000E+03	3.725544E-15	7.532655E-17
7.260000E+03	3.706134E-15	7.437566E-17
7.270000E+03	3.687155E-15	7.340682E-17
7.280000E+03	3.668469E-15	7.241722E-17
7.290000E+03	3.649943E-15	7.140423E-17
7.300000E+03	3.631769E-15	7.037164E-17
7.310000E+03	3.613718E-15	6.931488E-17
7.320000E+03	3.595987E-15	6.823777E-17
7.330000E+03	3.578358E-15	6.713612E-17
7.340000E+03	3.560930E-15	6.601186E-17
7.350000E+03	3.543706E-15	6.486508E-17
7.360000E+03	3.526588E-15	6.369422E-17
7.370000E+03	3.509798E-15	6.250349E-17
7.380000E+03	3.493150E-15	6.128991E-17
7.390000E+03	3.476777E-15	6.005639E-17
7.400000E+03	3.460718E-15	5.880427E-17
7.410000E+03	3.444917E-15	5.753355E-17
7.420000E+03	3.429535E-15	5.624809E-17
7.430000E+03	3.414633E-15	5.495024E-17
7.440000E+03	3.400185E-15	5.364104E-17
7.450000E+03	3.386368E-15	5.232494E-17
7.460000E+03	3.373263E-15	5.100459E-17
7.470000E+03	3.360857E-15	4.968105E-17
7.480000E+03	3.349335E-15	4.835806E-17
7.490000E+03	3.338680E-15	4.703578E-17
7.500000E+03	3.329074E-15	4.571663E-17
7.510000E+03	3.320596E-15	4.440073E-17
7.520000E+03	3.313219E-15	4.308579E-17
7.530000E+03	3.307013E-15	4.176982E-17
7.540000E+03	3.302136E-15	4.045064E-17
7.550000E+03	3.298639E-15	3.912297E-17
7.560000E+03	3.296462E-15	3.777846E-17
7.570000E+03	3.295631E-15	3.640777E-17
7.580000E+03	3.296254E-15	3.500023E-17
7.590000E+03	3.298323E-15	3.354292E-17
7.600000E+03	3.301602E-15	3.202162E-17
7.610000E+03	3.306320E-15	3.042930E-17
7.620000E+03	3.312068E-15	2.875755E-17
7.630000E+03	3.318892E-15	2.700956E-17
7.640000E+03	3.326474E-15	2.519581E-17
7.650000E+03	3.334628E-15	2.334338E-17
7.660000E+03	3.342868E-15	2.149948E-17
7.670000E+03	3.350698E-15	1.974471E-17
7.680000E+03	3.357633E-15	1.820845E-17
7.690000E+03	3.362913E-15	1.707626E-17
7.700000E+03	3.365857E-15	1.656907E-17
7.710000E+03	3.365972E-15	1.686306E-17
7.720000E+03	3.362914E-15	1.797039E-17
7.730000E+03	3.356835E-15	1.973573E-17
7.740000E+03	3.348125E-15	2.195259E-17
7.750000E+03	3.336912E-15	2.443784E-17
7.760000E+03	3.323836E-15	2.705937E-17
