#wls	flux	fluxerr
1.600000E+03	3.916266E-15	5.814635E-16
1.640000E+03	3.972618E-15	5.534710E-16
1.680000E+03	4.026610E-15	5.248829E-16
1.720000E+03	4.079758E-15	4.961815E-16
1.760000E+03	4.130876E-15	4.675304E-16
1.800000E+03	4.180968E-15	4.394080E-16
1.840000E+03	4.231171E-15	4.123216E-16
1.880000E+03	4.280569E-15	3.866114E-16
1.920000E+03	4.330523E-15	3.628813E-16
1.960000E+03	4.381803E-15	3.416865E-16
2.000000E+03	4.436050E-15	3.236317E-16
2.040000E+03	4.492801E-15	3.090952E-16
2.080000E+03	4.554704E-15	2.985337E-16
2.120000E+03	4.622264E-15	2.919866E-16
2.160000E+03	4.696808E-15	2.891985E-16
2.200000E+03	4.779749E-15	2.896809E-16
2.240000E+03	4.873375E-15	2.929052E-16
2.280000E+03	4.979235E-15	2.983012E-16
2.320000E+03	5.097128E-15	3.052329E-16
2.360000E+03	5.230854E-15	3.134072E-16
2.400000E+03	5.380144E-15	3.224729E-16
2.440000E+03	5.546424E-15	3.324064E-16
2.480000E+03	5.732108E-15	3.434850E-16
2.520000E+03	5.938844E-15	3.561709E-16
2.560000E+03	6.167332E-15	3.710547E-16
2.600000E+03	6.421009E-15	3.889793E-16
2.640000E+03	6.699051E-15	4.104370E-16
2.680000E+03	7.002543E-15	4.356501E-16
2.720000E+03	7.330473E-15	4.642552E-16
2.760000E+03	7.680914E-15	4.954863E-16
2.800000E+03	8.051064E-15	5.282538E-16
2.840000E+03	8.435991E-15	5.611270E-16
2.880000E+03	8.834863E-15	5.928098E-16
2.920000E+03	9.238479E-15	6.213739E-16
2.960000E+03	9.641765E-15	6.451571E-16
3.000000E+03	1.003903E-14	6.625213E-16
3.010000E+03	1.013512E-14	6.655733E-16
3.020000E+03	1.023139E-14	6.681741E-16
3.030000E+03	1.032626E-14	6.702061E-16
3.040000E+03	1.041961E-14	6.716473E-16
3.050000E+03	1.051129E-14	6.724768E-16
3.060000E+03	1.060266E-14	6.727694E-16
3.070000E+03	1.069060E-14	6.723175E-16
3.080000E+03	1.077794E-14	6.712929E-16
3.090000E+03	1.086307E-14	6.695856E-16
3.100000E+03	1.094582E-14	6.671818E-16
3.110000E+03	1.102606E-14	6.640695E-16
3.120000E+03	1.110363E-14	6.602389E-16
3.130000E+03	1.117992E-14	6.557723E-16
3.140000E+03	1.125171E-14	6.504821E-16
3.150000E+03	1.132193E-14	6.445446E-16
3.160000E+03	1.138888E-14	6.378677E-16
3.170000E+03	1.145242E-14	6.304527E-16
3.180000E+03	1.151239E-14	6.223031E-16
3.190000E+03	1.156863E-14	6.134253E-16
3.200000E+03	1.162099E-14	6.038287E-16
3.210000E+03	1.167089E-14	5.936059E-16
3.220000E+03	1.171503E-14	5.826100E-16
3.230000E+03	1.175641E-14	5.710185E-16
3.240000E+03	1.179329E-14	5.587730E-16
3.250000E+03	1.182552E-14	5.458993E-16
3.260000E+03	1.185295E-14	5.324268E-16
3.270000E+03	1.187700E-14	5.184580E-16
3.280000E+03	1.189436E-14	5.038909E-16
3.290000E+03	1.190804E-14	4.889037E-16
3.300000E+03	1.191630E-14	4.734750E-16
3.310000E+03	1.191901E-14	4.576577E-16
3.320000E+03	1.191600E-14	4.415106E-16
3.330000E+03	1.190715E-14	4.250990E-16
3.340000E+03	1.189231E-14	4.084953E-16
3.350000E+03	1.187291E-14	3.918305E-16
3.360000E+03	1.184571E-14	3.750892E-16
3.370000E+03	1.181367E-14	3.584691E-16
3.380000E+03	1.177516E-14	3.420278E-16
3.390000E+03	1.173006E-14	3.258848E-16
3.400000E+03	1.167830E-14	3.101712E-16
3.410000E+03	1.161981E-14	2.950301E-16
3.420000E+03	1.155453E-14	2.806152E-16
3.430000E+03	1.148391E-14	2.671232E-16
3.440000E+03	1.140646E-14	2.546843E-16
3.450000E+03	1.132079E-14	2.434337E-16
3.460000E+03	1.122986E-14	2.335886E-16
3.470000E+03	1.113233E-14	2.252462E-16
3.480000E+03	1.102841E-14	2.184951E-16
3.490000E+03	1.091971E-14	2.133928E-16
3.500000E+03	1.080389E-14	2.098395E-16
3.510000E+03	1.068426E-14	2.077588E-16
3.520000E+03	1.055883E-14	2.069126E-16
3.530000E+03	1.043099E-14	2.071359E-16
3.540000E+03	1.030018E-14	2.081775E-16
3.550000E+03	1.016715E-14	2.098196E-16
3.560000E+03	1.003268E-14	2.118635E-16
3.570000E+03	9.897469E-15	2.141370E-16
3.580000E+03	9.763413E-15	2.165223E-16
3.590000E+03	9.628763E-15	2.188514E-16
3.600000E+03	9.496484E-15	2.210876E-16
3.610000E+03	9.364814E-15	2.231113E-16
3.620000E+03	9.236542E-15	2.249298E-16
3.630000E+03	9.110974E-15	2.264865E-16
3.640000E+03	8.988516E-15	2.277648E-16
3.650000E+03	8.869519E-15	2.287589E-16
3.660000E+03	8.754287E-15	2.294712E-16
3.670000E+03	8.644096E-15	2.299376E-16
3.680000E+03	8.537084E-15	2.301167E-16
3.690000E+03	8.435445E-15	2.300791E-16
3.700000E+03	8.337291E-15	2.297885E-16
3.710000E+03	8.244668E-15	2.293181E-16
3.720000E+03	8.156621E-15	2.286600E-16
3.730000E+03	8.073150E-15	2.278335E-16
3.740000E+03	7.994222E-15	2.268568E-16
3.750000E+03	7.919779E-15	2.257474E-16
3.760000E+03	7.849733E-15	2.245215E-16
3.770000E+03	7.783972E-15	2.231939E-16
3.780000E+03	7.723251E-15	2.218037E-16
3.790000E+03	7.665641E-15	2.203117E-16
3.800000E+03	7.611871E-15	2.187544E-16
3.810000E+03	7.562623E-15	2.171656E-16
3.820000E+03	7.515980E-15	2.155035E-16
3.830000E+03	7.473458E-15	2.138239E-16
3.840000E+03	7.433991E-15	2.121073E-16
3.850000E+03	7.397372E-15	2.103578E-16
3.860000E+03	7.363387E-15	2.085783E-16
3.870000E+03	7.331822E-15	2.067708E-16
3.880000E+03	7.302464E-15	2.049361E-16
3.890000E+03	7.275100E-15	2.030743E-16
3.900000E+03	7.249524E-15	2.011845E-16
3.910000E+03	7.225531E-15	1.992649E-16
3.920000E+03	7.202926E-15	1.973133E-16
3.930000E+03	7.181522E-15	1.953263E-16
3.940000E+03	7.161142E-15	1.933003E-16
3.950000E+03	7.142398E-15	1.912513E-16
3.960000E+03	7.123575E-15	1.891324E-16
3.970000E+03	7.105316E-15	1.869588E-16
3.980000E+03	7.088259E-15	1.847440E-16
3.990000E+03	7.070758E-15	1.824408E-16
4.000000E+03	7.054240E-15	1.800810E-16
4.010000E+03	7.037106E-15	1.776176E-16
4.020000E+03	7.020794E-15	1.750802E-16
4.030000E+03	7.003748E-15	1.724218E-16
4.040000E+03	6.987419E-15	1.696700E-16
4.050000E+03	6.970287E-15	1.667784E-16
4.060000E+03	6.953811E-15	1.637725E-16
4.070000E+03	6.936508E-15	1.606069E-16
4.080000E+03	6.919838E-15	1.573055E-16
4.090000E+03	6.902348E-15	1.538244E-16
4.100000E+03	6.885494E-15	1.501863E-16
4.110000E+03	6.867851E-15	1.463498E-16
4.120000E+03	6.850867E-15	1.423370E-16
4.130000E+03	6.833135E-15	1.381099E-16
4.140000E+03	6.816091E-15	1.336910E-16
4.150000E+03	6.798341E-15	1.290476E-16
4.160000E+03	6.781301E-15	1.242044E-16
4.170000E+03	6.763585E-15	1.191358E-16
4.180000E+03	6.746581E-15	1.138716E-16
4.190000E+03	6.728899E-15	1.083978E-16
4.200000E+03	6.711213E-15	1.027436E-16
4.210000E+03	6.693488E-15	9.693521E-17
4.220000E+03	6.676350E-15	9.102043E-17
4.230000E+03	6.658383E-15	8.503587E-17
4.240000E+03	6.640184E-15	7.906983E-17
4.250000E+03	6.621654E-15	7.323174E-17
4.260000E+03	6.602677E-15	6.767181E-17
4.270000E+03	6.583124E-15	6.259111E-17
4.280000E+03	6.562852E-15	5.824643E-17
4.290000E+03	6.541711E-15	5.493827E-17
4.300000E+03	6.518906E-15	5.295959E-17
4.310000E+03	6.495587E-15	5.252919E-17
4.320000E+03	6.471001E-15	5.364653E-17
4.330000E+03	6.444460E-15	5.608993E-17
4.340000E+03	6.417198E-15	5.954832E-17
4.350000E+03	6.387940E-15	6.368124E-17
4.360000E+03	6.357316E-15	6.821179E-17
4.370000E+03	6.325341E-15	7.292014E-17
4.380000E+03	6.292045E-15	7.764438E-17
4.390000E+03	6.257474E-15	8.226945E-17
4.400000E+03	6.221695E-15	8.671604E-17
4.410000E+03	6.184787E-15	9.093148E-17
4.420000E+03	6.146851E-15	9.488288E-17
4.430000E+03	6.107415E-15	9.854264E-17
4.440000E+03	6.067776E-15	1.019220E-16
4.450000E+03	6.026911E-15	1.050029E-16
4.460000E+03	5.985546E-15	1.078018E-16
4.470000E+03	5.943831E-15	1.103300E-16
4.480000E+03	5.901920E-15	1.126022E-16
4.490000E+03	5.859967E-15	1.146349E-16
4.500000E+03	5.818126E-15	1.164461E-16
4.510000E+03	5.776549E-15	1.180544E-16
4.520000E+03	5.734848E-15	1.194673E-16
4.530000E+03	5.693715E-15	1.207145E-16
4.540000E+03	5.653817E-15	1.218253E-16
4.550000E+03	5.614232E-15	1.227947E-16
4.560000E+03	5.575105E-15	1.236392E-16
4.570000E+03	5.537599E-15	1.243973E-16
4.580000E+03	5.501312E-15	1.250726E-16
4.590000E+03	5.465855E-15	1.256676E-16
4.600000E+03	5.432344E-15	1.262182E-16
4.610000E+03	5.399878E-15	1.267135E-16
4.620000E+03	5.369051E-15	1.271763E-16
4.630000E+03	5.339948E-15	1.276167E-16
4.640000E+03	5.312159E-15	1.280327E-16
4.650000E+03	5.286723E-15	1.284559E-16
4.660000E+03	5.262729E-15	1.288706E-16
4.670000E+03	5.240704E-15	1.292951E-16
4.680000E+03	5.220682E-15	1.297352E-16
4.690000E+03	5.202682E-15	1.301956E-16
4.700000E+03	5.186710E-15	1.306800E-16
4.710000E+03	5.172295E-15	1.311793E-16
4.720000E+03	5.159883E-15	1.317069E-16
4.730000E+03	5.149898E-15	1.322750E-16
4.740000E+03	5.141367E-15	1.328593E-16
4.750000E+03	5.134226E-15	1.334578E-16
4.760000E+03	5.129311E-15	1.340912E-16
4.770000E+03	5.125611E-15	1.347315E-16
4.780000E+03	5.123474E-15	1.353850E-16
4.790000E+03	5.122777E-15	1.360453E-16
4.800000E+03	5.123384E-15	1.367049E-16
4.810000E+03	5.125152E-15	1.373553E-16
4.820000E+03	5.127477E-15	1.379752E-16
4.830000E+03	5.131105E-15	1.385794E-16
4.840000E+03	5.134973E-15	1.391334E-16
4.850000E+03	5.138922E-15	1.396271E-16
4.860000E+03	5.143696E-15	1.400750E-16
4.870000E+03	5.148690E-15	1.404553E-16
4.880000E+03	5.153314E-15	1.407470E-16
4.890000E+03	5.157884E-15	1.409542E-16
4.900000E+03	5.162280E-15	1.410700E-16
4.910000E+03	5.165950E-15	1.410763E-16
4.920000E+03	5.169703E-15	1.409934E-16
4.930000E+03	5.172572E-15	1.407938E-16
4.940000E+03	5.174953E-15	1.404884E-16
4.950000E+03	5.176812E-15	1.400770E-16
4.960000E+03	5.177687E-15	1.395491E-16
4.970000E+03	5.178471E-15	1.389315E-16
4.980000E+03	5.178290E-15	1.382040E-16
4.990000E+03	5.177623E-15	1.373835E-16
5.000000E+03	5.176514E-15	1.364757E-16
5.010000E+03	5.174579E-15	1.354752E-16
5.020000E+03	5.172770E-15	1.344118E-16
5.030000E+03	5.170278E-15	1.332691E-16
5.040000E+03	5.167626E-15	1.320654E-16
5.050000E+03	5.164898E-15	1.308067E-16
5.060000E+03	5.161742E-15	1.294877E-16
5.070000E+03	5.159123E-15	1.281354E-16
5.080000E+03	5.156248E-15	1.267318E-16
5.090000E+03	5.153635E-15	1.252906E-16
5.100000E+03	5.150921E-15	1.238031E-16
5.110000E+03	5.149043E-15	1.222903E-16
5.120000E+03	5.147186E-15	1.207305E-16
5.130000E+03	5.145829E-15	1.191316E-16
5.140000E+03	5.145001E-15	1.174896E-16
5.150000E+03	5.144719E-15	1.157991E-16
5.160000E+03	5.144549E-15	1.140440E-16
5.170000E+03	5.144908E-15	1.122264E-16
5.180000E+03	5.145764E-15	1.103374E-16
5.190000E+03	5.147067E-15	1.083670E-16
5.200000E+03	5.148751E-15	1.063047E-16
5.210000E+03	5.150305E-15	1.041304E-16
5.220000E+03	5.152493E-15	1.018501E-16
5.230000E+03	5.154345E-15	9.943475E-17
5.240000E+03	5.155739E-15	9.687333E-17
5.250000E+03	5.157404E-15	9.417109E-17
5.260000E+03	5.158339E-15	9.130185E-17
5.270000E+03	5.158825E-15	8.826493E-17
5.280000E+03	5.158711E-15	8.505360E-17
5.290000E+03	5.157840E-15	8.166401E-17
5.300000E+03	5.156056E-15	7.809629E-17
5.310000E+03	5.152777E-15	7.434965E-17
5.320000E+03	5.148280E-15	7.044345E-17
5.330000E+03	5.142421E-15	6.639983E-17
5.340000E+03	5.135062E-15	6.225379E-17
5.350000E+03	5.126077E-15	5.805775E-17
5.360000E+03	5.114930E-15	5.388310E-17
5.370000E+03	5.101949E-15	4.984193E-17
5.380000E+03	5.087054E-15	4.608071E-17
5.390000E+03	5.070187E-15	4.279132E-17
5.400000E+03	5.051313E-15	4.020605E-17
5.410000E+03	5.030011E-15	3.856455E-17
5.420000E+03	5.007144E-15	3.806184E-17
5.430000E+03	4.981971E-15	3.873413E-17
5.440000E+03	4.954652E-15	4.043990E-17
5.450000E+03	4.926197E-15	4.294578E-17
5.460000E+03	4.896412E-15	4.599445E-17
5.470000E+03	4.865126E-15	4.936194E-17
5.480000E+03	4.832982E-15	5.288134E-17
5.490000E+03	4.800222E-15	5.642884E-17
5.500000E+03	4.767087E-15	5.991823E-17
5.510000E+03	4.733429E-15	6.328644E-17
5.520000E+03	4.700258E-15	6.650647E-17
5.530000E+03	4.667027E-15	6.954563E-17
5.540000E+03	4.634340E-15	7.239790E-17
5.550000E+03	4.602401E-15	7.505992E-17
5.560000E+03	4.571404E-15	7.753391E-17
5.570000E+03	4.541162E-15	7.981956E-17
5.580000E+03	4.512589E-15	8.193874E-17
5.590000E+03	4.485104E-15	8.388910E-17
5.600000E+03	4.459225E-15	8.568923E-17
5.610000E+03	4.435085E-15	8.735181E-17
5.620000E+03	4.412447E-15	8.888251E-17
5.630000E+03	4.392145E-15	9.030853E-17
5.640000E+03	4.373560E-15	9.162774E-17
5.650000E+03	4.357496E-15	9.286691E-17
5.660000E+03	4.343317E-15	9.402225E-17
5.670000E+03	4.331447E-15	9.511165E-17
5.680000E+03	4.321588E-15	9.613684E-17
5.690000E+03	4.314489E-15	9.712196E-17
5.700000E+03	4.309477E-15	9.805886E-17
5.710000E+03	4.307278E-15	9.897000E-17
5.720000E+03	4.307198E-15	9.984490E-17
5.730000E+03	4.309589E-15	1.006961E-16
5.740000E+03	4.314437E-15	1.015272E-16
5.750000E+03	4.321371E-15	1.023326E-16
5.760000E+03	4.331062E-15	1.031308E-16
5.770000E+03	4.342766E-15	1.039062E-16
5.780000E+03	4.357143E-15	1.046761E-16
5.790000E+03	4.373432E-15	1.054235E-16
5.800000E+03	4.391930E-15	1.061561E-16
5.810000E+03	4.412575E-15	1.068731E-16
5.820000E+03	4.434947E-15	1.075643E-16
5.830000E+03	4.459704E-15	1.082457E-16
5.840000E+03	4.486432E-15	1.089067E-16
5.850000E+03	4.514712E-15	1.095366E-16
5.860000E+03	4.544865E-15	1.101422E-16
5.870000E+03	4.576858E-15	1.107212E-16
5.880000E+03	4.610671E-15	1.112716E-16
5.890000E+03	4.646299E-15	1.117910E-16
5.900000E+03	4.683754E-15	1.122771E-16
5.910000E+03	4.722684E-15	1.127182E-16
5.920000E+03	4.763902E-15	1.131303E-16
5.930000E+03	4.806708E-15	1.134923E-16
5.940000E+03	4.851577E-15	1.138107E-16
5.950000E+03	4.898622E-15	1.140825E-16
5.960000E+03	4.947972E-15	1.143047E-16
5.970000E+03	4.999777E-15	1.144735E-16
5.980000E+03	5.054201E-15	1.145849E-16
5.990000E+03	5.111423E-15	1.146340E-16
6.000000E+03	5.171207E-15	1.146059E-16
6.010000E+03	5.234580E-15	1.145123E-16
6.020000E+03	5.300885E-15	1.143264E-16
6.030000E+03	5.371162E-15	1.140571E-16
6.040000E+03	5.444711E-15	1.136741E-16
6.050000E+03	5.522109E-15	1.131731E-16
6.060000E+03	5.603473E-15	1.125381E-16
6.070000E+03	5.688880E-15	1.117506E-16
6.080000E+03	5.777888E-15	1.107805E-16
6.090000E+03	5.871396E-15	1.096223E-16
6.100000E+03	5.968838E-15	1.082408E-16
6.110000E+03	6.069530E-15	1.065990E-16
6.120000E+03	6.174168E-15	1.046841E-16
6.130000E+03	6.281362E-15	1.024479E-16
6.140000E+03	6.391094E-15	9.986798E-17
6.150000E+03	6.502723E-15	9.691495E-17
6.160000E+03	6.615468E-15	9.356324E-17
6.170000E+03	6.728406E-15	8.979414E-17
6.180000E+03	6.840467E-15	8.560000E-17
6.190000E+03	6.950440E-15	8.099011E-17
6.200000E+03	7.056980E-15	7.599906E-17
6.210000E+03	7.158043E-15	7.069286E-17
6.220000E+03	7.253248E-15	6.520983E-17
6.230000E+03	7.339830E-15	5.974395E-17
6.240000E+03	7.417408E-15	5.461980E-17
6.250000E+03	7.483286E-15	5.027758E-17
6.260000E+03	7.536768E-15	4.729063E-17
6.270000E+03	7.577511E-15	4.622437E-17
6.280000E+03	7.603928E-15	4.736417E-17
6.290000E+03	7.617277E-15	5.052308E-17
6.300000E+03	7.618865E-15	5.519501E-17
6.310000E+03	7.610347E-15	6.082907E-17
6.320000E+03	7.593561E-15	6.697591E-17
6.330000E+03	7.570402E-15	7.331739E-17
6.340000E+03	7.542124E-15	7.963927E-17
6.350000E+03	7.511742E-15	8.582716E-17
6.360000E+03	7.480268E-15	9.180422E-17
6.370000E+03	7.448549E-15	9.752970E-17
6.380000E+03	7.419069E-15	1.030119E-16
6.390000E+03	7.391659E-15	1.082437E-16
6.400000E+03	7.368373E-15	1.132619E-16
6.410000E+03	7.348627E-15	1.180735E-16
6.420000E+03	7.333453E-15	1.227147E-16
6.430000E+03	7.323079E-15	1.272125E-16
6.440000E+03	7.318152E-15	1.316026E-16
6.450000E+03	7.317340E-15	1.358848E-16
6.460000E+03	7.320961E-15	1.400862E-16
6.470000E+03	7.328587E-15	1.442181E-16
6.480000E+03	7.339659E-15	1.482858E-16
6.490000E+03	7.353512E-15	1.522890E-16
6.500000E+03	7.369383E-15	1.562212E-16
6.510000E+03	7.385826E-15	1.600570E-16
6.520000E+03	7.403166E-15	1.638053E-16
6.530000E+03	7.419866E-15	1.674313E-16
6.540000E+03	7.434982E-15	1.709091E-16
6.550000E+03	7.446957E-15	1.741957E-16
6.560000E+03	7.456104E-15	1.772891E-16
6.570000E+03	7.460934E-15	1.801437E-16
6.580000E+03	7.460014E-15	1.827134E-16
6.590000E+03	7.453844E-15	1.849986E-16
6.600000E+03	7.440541E-15	1.869419E-16
6.610000E+03	7.420178E-15	1.885348E-16
6.620000E+03	7.392937E-15	1.897738E-16
6.630000E+03	7.357274E-15	1.906132E-16
6.640000E+03	7.313610E-15	1.910598E-16
6.650000E+03	7.262474E-15	1.911263E-16
6.660000E+03	7.202701E-15	1.907837E-16
6.670000E+03	7.135058E-15	1.900565E-16
6.680000E+03	7.059810E-15	1.889585E-16
6.690000E+03	6.977321E-15	1.875086E-16
6.700000E+03	6.888043E-15	1.857302E-16
6.710000E+03	6.792503E-15	1.836503E-16
6.720000E+03	6.691293E-15	1.812987E-16
6.730000E+03	6.585057E-15	1.787074E-16
6.740000E+03	6.474477E-15	1.759097E-16
6.750000E+03	6.360262E-15	1.729392E-16
6.760000E+03	6.243135E-15	1.698295E-16
6.770000E+03	6.123820E-15	1.666131E-16
6.780000E+03	6.003033E-15	1.633212E-16
6.790000E+03	5.881470E-15	1.599830E-16
6.800000E+03	5.759317E-15	1.566125E-16
6.810000E+03	5.638180E-15	1.532608E-16
6.820000E+03	5.518156E-15	1.499364E-16
6.830000E+03	5.399335E-15	1.466466E-16
6.840000E+03	5.283121E-15	1.434329E-16
6.850000E+03	5.169054E-15	1.402853E-16
6.860000E+03	5.058393E-15	1.372395E-16
6.870000E+03	4.950604E-15	1.342818E-16
6.880000E+03	4.846799E-15	1.314427E-16
6.890000E+03	4.746376E-15	1.287055E-16
6.900000E+03	4.650311E-15	1.260962E-16
6.910000E+03	4.557936E-15	1.235958E-16
6.920000E+03	4.469730E-15	1.212163E-16
6.930000E+03	4.386102E-15	1.189678E-16
6.940000E+03	4.306308E-15	1.168289E-16
6.950000E+03	4.230696E-15	1.148080E-16
6.960000E+03	4.159209E-15	1.129023E-16
6.970000E+03	4.092108E-15	1.111177E-16
6.980000E+03	4.028593E-15	1.094314E-16
6.990000E+03	3.968892E-15	1.078484E-16
7.000000E+03	3.912866E-15	1.063639E-16
7.010000E+03	3.860367E-15	1.049726E-16
7.020000E+03	3.811235E-15	1.036691E-16
7.030000E+03	3.765305E-15	1.024477E-16
7.040000E+03	3.722407E-15	1.013028E-16
7.050000E+03	3.682369E-15	1.002285E-16
7.060000E+03	3.644710E-15	9.921051E-17
7.070000E+03	3.609882E-15	9.826002E-17
7.080000E+03	3.577405E-15	9.736284E-17
7.090000E+03	3.547118E-15	9.651342E-17
7.100000E+03	3.518564E-15	9.569827E-17
7.110000E+03	3.492196E-15	9.492866E-17
7.120000E+03	3.467570E-15	9.419153E-17
7.130000E+03	3.444256E-15	9.347440E-17
7.140000E+03	3.422721E-15	9.278909E-17
7.150000E+03	3.402259E-15	9.211586E-17
7.160000E+03	3.383346E-15	9.146707E-17
7.170000E+03	3.365300E-15	9.082389E-17
7.180000E+03	3.348320E-15	9.019145E-17
7.190000E+03	3.332608E-15	8.957499E-17
7.200000E+03	3.317513E-15	8.895698E-17
7.210000E+03	3.303252E-15	8.834326E-17
7.220000E+03	3.289760E-15	8.773215E-17
7.230000E+03	3.276980E-15	8.712216E-17
7.240000E+03	3.264858E-15	8.651191E-17
7.250000E+03	3.253346E-15	8.590008E-17
7.260000E+03	3.242400E-15	8.528539E-17
7.270000E+03	3.231982E-15	8.466655E-17
7.280000E+03	3.222056E-15	8.404223E-17
7.290000E+03	3.212590E-15	8.341104E-17
7.300000E+03	3.203556E-15	8.277148E-17
7.310000E+03	3.194653E-15	8.211488E-17
7.320000E+03	3.186413E-15	8.145379E-17
7.330000E+03	3.178540E-15	8.077924E-17
7.340000E+03	3.170745E-15	8.008239E-17
7.350000E+03	3.163564E-15	7.937515E-17
7.360000E+03	3.156441E-15	7.864155E-17
7.370000E+03	3.149642E-15	7.788628E-17
7.380000E+03	3.143437E-15	7.711368E-17
7.390000E+03	3.137276E-15	7.630778E-17
7.400000E+03	3.131434E-15	7.547265E-17
7.410000E+03	3.125911E-15	7.460543E-17
7.420000E+03	3.120709E-15	7.370301E-17
7.430000E+03	3.115833E-15	7.276198E-17
7.440000E+03	3.111283E-15	7.177862E-17
7.450000E+03	3.107063E-15	7.074881E-17
7.460000E+03	3.103172E-15	6.966797E-17
7.470000E+03	3.099610E-15	6.853112E-17
7.480000E+03	3.096102E-15	6.732687E-17
7.490000E+03	3.093183E-15	6.606116E-17
7.500000E+03	3.090299E-15	6.471597E-17
7.510000E+03	3.087978E-15	6.329607E-17
7.520000E+03	3.085656E-15	6.178331E-17
7.530000E+03	3.083851E-15	6.018170E-17
7.540000E+03	3.081990E-15	5.847370E-17
7.550000E+03	3.080306E-15	5.665836E-17
7.560000E+03	3.078757E-15	5.473007E-17
7.570000E+03	3.077294E-15	5.268444E-17
7.580000E+03	3.075863E-15	5.051886E-17
7.590000E+03	3.074404E-15	4.823319E-17
7.600000E+03	3.072851E-15	4.583072E-17
7.610000E+03	3.071134E-15	4.331936E-17
7.620000E+03	3.068906E-15	4.070980E-17
7.630000E+03	3.066634E-15	3.803247E-17
7.640000E+03	3.063691E-15	3.531542E-17
7.650000E+03	3.060540E-15	3.261679E-17
7.660000E+03	3.056552E-15	3.000492E-17
7.670000E+03	3.051917E-15	2.758722E-17
7.680000E+03	3.046824E-15	2.550571E-17
7.690000E+03	3.040652E-15	2.392737E-17
7.700000E+03	3.033605E-15	2.303303E-17
7.710000E+03	3.025624E-15	2.295232E-17
7.720000E+03	3.016684E-15	2.369482E-17
7.730000E+03	3.006524E-15	2.514102E-17
7.740000E+03	2.995704E-15	2.711994E-17
7.750000E+03	2.983987E-15	2.945487E-17
7.760000E+03	2.971143E-15	3.199825E-17
