#wls	flux	fluxerr
1.600000E+03	3.861353E-15	5.744976E-16
1.640000E+03	3.919226E-15	5.467375E-16
1.680000E+03	3.975127E-15	5.183439E-16
1.720000E+03	4.029861E-15	4.897037E-16
1.760000E+03	4.082929E-15	4.610710E-16
1.800000E+03	4.135311E-15	4.329194E-16
1.840000E+03	4.188104E-15	4.057562E-16
1.880000E+03	4.239631E-15	3.798645E-16
1.920000E+03	4.292632E-15	3.559952E-16
1.960000E+03	4.347081E-15	3.346548E-16
2.000000E+03	4.403792E-15	3.164205E-16
2.040000E+03	4.462941E-15	3.017605E-16
2.080000E+03	4.527081E-15	2.911518E-16
2.120000E+03	4.595854E-15	2.845931E-16
2.160000E+03	4.672033E-15	2.819071E-16
2.200000E+03	4.756193E-15	2.825214E-16
2.240000E+03	4.849748E-15	2.858191E-16
2.280000E+03	4.954135E-15	2.911887E-16
2.320000E+03	5.070670E-15	2.980513E-16
2.360000E+03	5.200566E-15	3.059301E-16
2.400000E+03	5.345910E-15	3.145966E-16
2.440000E+03	5.507151E-15	3.239662E-16
2.480000E+03	5.685631E-15	3.342648E-16
2.520000E+03	5.883672E-15	3.460248E-16
2.560000E+03	6.101764E-15	3.598726E-16
2.600000E+03	6.342159E-15	3.766362E-16
2.640000E+03	6.604782E-15	3.969099E-16
2.680000E+03	6.890604E-15	4.209422E-16
2.720000E+03	7.197461E-15	4.483104E-16
2.760000E+03	7.523356E-15	4.782418E-16
2.800000E+03	7.866707E-15	5.097235E-16
2.840000E+03	8.224093E-15	5.414340E-16
2.880000E+03	8.591302E-15	5.718747E-16
2.920000E+03	8.962003E-15	5.993441E-16
2.960000E+03	9.330285E-15	6.221729E-16
3.000000E+03	9.692352E-15	6.389086E-16
3.010000E+03	9.780770E-15	6.419379E-16
3.020000E+03	9.866528E-15	6.443561E-16
3.030000E+03	9.953824E-15	6.464239E-16
3.040000E+03	1.003821E-14	6.478386E-16
3.050000E+03	1.012099E-14	6.486749E-16
3.060000E+03	1.020205E-14	6.489146E-16
3.070000E+03	1.028273E-14	6.486346E-16
3.080000E+03	1.035994E-14	6.476315E-16
3.090000E+03	1.043652E-14	6.460786E-16
3.100000E+03	1.051084E-14	6.438693E-16
3.110000E+03	1.058278E-14	6.409929E-16
3.120000E+03	1.065218E-14	6.374403E-16
3.130000E+03	1.071891E-14	6.332043E-16
3.140000E+03	1.078282E-14	6.282799E-16
3.150000E+03	1.084378E-14	6.226642E-16
3.160000E+03	1.090318E-14	6.164439E-16
3.170000E+03	1.095779E-14	6.094448E-16
3.180000E+03	1.101056E-14	6.018444E-16
3.190000E+03	1.105980E-14	5.935619E-16
3.200000E+03	1.110536E-14	5.846066E-16
3.210000E+03	1.114554E-14	5.749100E-16
3.220000E+03	1.118487E-14	5.647290E-16
3.230000E+03	1.121851E-14	5.538400E-16
3.240000E+03	1.124789E-14	5.423454E-16
3.250000E+03	1.127287E-14	5.302701E-16
3.260000E+03	1.129485E-14	5.177146E-16
3.270000E+03	1.131056E-14	5.045660E-16
3.280000E+03	1.132300E-14	4.910025E-16
3.290000E+03	1.133045E-14	4.769932E-16
3.300000E+03	1.133277E-14	4.625837E-16
3.310000E+03	1.132828E-14	4.477633E-16
3.320000E+03	1.132149E-14	4.327722E-16
3.330000E+03	1.130763E-14	4.174880E-16
3.340000E+03	1.128812E-14	4.020402E-16
3.350000E+03	1.126284E-14	3.865038E-16
3.360000E+03	1.123321E-14	3.710111E-16
3.370000E+03	1.119607E-14	3.555495E-16
3.380000E+03	1.115435E-14	3.403154E-16
3.390000E+03	1.110647E-14	3.253654E-16
3.400000E+03	1.105085E-14	3.107732E-16
3.410000E+03	1.099043E-14	2.967475E-16
3.420000E+03	1.092367E-14	2.833749E-16
3.430000E+03	1.085202E-14	2.708261E-16
3.440000E+03	1.077258E-14	2.591627E-16
3.450000E+03	1.068686E-14	2.485531E-16
3.460000E+03	1.059493E-14	2.391153E-16
3.470000E+03	1.049834E-14	2.309754E-16
3.480000E+03	1.039446E-14	2.241342E-16
3.490000E+03	1.028633E-14	2.186697E-16
3.500000E+03	1.017294E-14	2.145130E-16
3.510000E+03	1.005484E-14	2.115647E-16
3.520000E+03	9.932700E-15	2.096828E-16
3.530000E+03	9.807204E-15	2.087003E-16
3.540000E+03	9.679081E-15	2.084402E-16
3.550000E+03	9.549055E-15	2.087284E-16
3.560000E+03	9.417841E-15	2.094030E-16
3.570000E+03	9.286132E-15	2.103199E-16
3.580000E+03	9.155764E-15	2.113838E-16
3.590000E+03	9.024997E-15	2.124395E-16
3.600000E+03	8.896747E-15	2.134618E-16
3.610000E+03	8.769268E-15	2.143360E-16
3.620000E+03	8.645313E-15	2.150734E-16
3.630000E+03	8.524200E-15	2.156178E-16
3.640000E+03	8.406333E-15	2.159526E-16
3.650000E+03	8.292072E-15	2.160707E-16
3.660000E+03	8.181723E-15	2.159726E-16
3.670000E+03	8.075546E-15	2.156648E-16
3.680000E+03	7.973755E-15	2.151576E-16
3.690000E+03	7.876513E-15	2.144644E-16
3.700000E+03	7.783941E-15	2.136002E-16
3.710000E+03	7.697072E-15	2.126076E-16
3.720000E+03	7.614018E-15	2.114495E-16
3.730000E+03	7.535750E-15	2.101685E-16
3.740000E+03	7.463155E-15	2.088055E-16
3.750000E+03	7.394318E-15	2.073233E-16
3.760000E+03	7.330982E-15	2.057864E-16
3.770000E+03	7.272114E-15	2.041812E-16
3.780000E+03	7.216704E-15	2.024941E-16
3.790000E+03	7.166374E-15	2.007846E-16
3.800000E+03	7.120070E-15	1.990365E-16
3.810000E+03	7.077615E-15	1.972573E-16
3.820000E+03	7.038823E-15	1.954534E-16
3.830000E+03	7.002652E-15	1.936067E-16
3.840000E+03	6.970590E-15	1.917683E-16
3.850000E+03	6.941575E-15	1.899178E-16
3.860000E+03	6.915389E-15	1.880574E-16
3.870000E+03	6.892634E-15	1.862107E-16
3.880000E+03	6.871437E-15	1.843336E-16
3.890000E+03	6.852404E-15	1.824486E-16
3.900000E+03	6.835313E-15	1.805550E-16
3.910000E+03	6.819946E-15	1.786515E-16
3.920000E+03	6.806092E-15	1.767365E-16
3.930000E+03	6.794343E-15	1.748281E-16
3.940000E+03	6.782903E-15	1.728823E-16
3.950000E+03	6.772390E-15	1.709167E-16
3.960000E+03	6.762631E-15	1.689273E-16
3.970000E+03	6.754252E-15	1.669294E-16
3.980000E+03	6.745535E-15	1.648786E-16
3.990000E+03	6.737141E-15	1.627893E-16
4.000000E+03	6.729737E-15	1.606737E-16
4.010000E+03	6.721668E-15	1.584875E-16
4.020000E+03	6.713638E-15	1.562422E-16
4.030000E+03	6.706349E-15	1.539474E-16
4.040000E+03	6.698213E-15	1.515588E-16
4.050000E+03	6.689963E-15	1.490853E-16
4.060000E+03	6.682334E-15	1.465342E-16
4.070000E+03	6.673784E-15	1.438619E-16
4.080000E+03	6.665825E-15	1.410914E-16
4.090000E+03	6.656942E-15	1.381805E-16
4.100000E+03	6.647899E-15	1.351359E-16
4.110000E+03	6.638709E-15	1.319484E-16
4.120000E+03	6.630134E-15	1.286238E-16
4.130000E+03	6.620707E-15	1.251257E-16
4.140000E+03	6.611202E-15	1.214629E-16
4.150000E+03	6.601652E-15	1.176316E-16
4.160000E+03	6.592823E-15	1.136429E-16
4.170000E+03	6.583278E-15	1.094729E-16
4.180000E+03	6.573782E-15	1.051409E-16
4.190000E+03	6.564358E-15	1.006583E-16
4.200000E+03	6.555015E-15	9.604352E-17
4.210000E+03	6.545752E-15	9.132431E-17
4.220000E+03	6.536545E-15	8.654002E-17
4.230000E+03	6.527352E-15	8.174529E-17
4.240000E+03	6.518108E-15	7.701412E-17
4.250000E+03	6.508721E-15	7.244456E-17
4.260000E+03	6.499076E-15	6.816305E-17
4.270000E+03	6.488329E-15	6.431944E-17
4.280000E+03	6.477729E-15	6.111114E-17
4.290000E+03	6.466394E-15	5.872447E-17
4.300000E+03	6.453445E-15	5.732616E-17
4.310000E+03	6.440094E-15	5.703566E-17
4.320000E+03	6.424793E-15	5.783262E-17
4.330000E+03	6.408794E-15	5.960070E-17
4.340000E+03	6.390615E-15	6.212973E-17
4.350000E+03	6.370861E-15	6.520848E-17
4.360000E+03	6.350147E-15	6.864132E-17
4.370000E+03	6.327085E-15	7.224242E-17
4.380000E+03	6.302345E-15	7.588274E-17
4.390000E+03	6.275950E-15	7.945965E-17
4.400000E+03	6.247950E-15	8.289898E-17
4.410000E+03	6.217769E-15	8.614076E-17
4.420000E+03	6.186824E-15	8.917044E-17
4.430000E+03	6.154583E-15	9.196145E-17
4.440000E+03	6.120549E-15	9.449731E-17
4.450000E+03	6.086164E-15	9.679950E-17
4.460000E+03	6.050318E-15	9.885635E-17
4.470000E+03	6.014443E-15	1.007009E-16
4.480000E+03	5.977453E-15	1.023282E-16
4.490000E+03	5.940143E-15	1.037660E-16
4.500000E+03	5.902674E-15	1.050323E-16
4.510000E+03	5.865199E-15	1.061457E-16
4.520000E+03	5.827869E-15	1.071238E-16
4.530000E+03	5.790231E-15	1.079728E-16
4.540000E+03	5.753619E-15	1.087309E-16
4.550000E+03	5.716982E-15	1.093911E-16
4.560000E+03	5.681627E-15	1.099897E-16
4.570000E+03	5.646516E-15	1.105176E-16
4.580000E+03	5.612361E-15	1.109979E-16
4.590000E+03	5.579285E-15	1.114421E-16
4.600000E+03	5.547409E-15	1.118607E-16
4.610000E+03	5.516849E-15	1.122633E-16
4.620000E+03	5.487163E-15	1.126479E-16
4.630000E+03	5.459572E-15	1.130457E-16
4.640000E+03	5.433070E-15	1.134417E-16
4.650000E+03	5.408848E-15	1.138660E-16
4.660000E+03	5.385898E-15	1.143025E-16
4.670000E+03	5.364838E-15	1.147685E-16
4.680000E+03	5.345730E-15	1.152691E-16
4.690000E+03	5.328618E-15	1.158089E-16
4.700000E+03	5.313007E-15	1.163795E-16
4.710000E+03	5.299973E-15	1.170068E-16
4.720000E+03	5.288458E-15	1.176687E-16
4.730000E+03	5.279495E-15	1.183888E-16
4.740000E+03	5.271997E-15	1.191425E-16
4.750000E+03	5.266430E-15	1.199387E-16
4.760000E+03	5.262715E-15	1.207734E-16
4.770000E+03	5.260231E-15	1.216286E-16
4.780000E+03	5.259896E-15	1.225209E-16
4.790000E+03	5.260532E-15	1.234171E-16
4.800000E+03	5.263012E-15	1.243309E-16
4.810000E+03	5.266127E-15	1.252259E-16
4.820000E+03	5.270202E-15	1.261012E-16
4.830000E+03	5.275035E-15	1.269425E-16
4.840000E+03	5.280419E-15	1.277353E-16
4.850000E+03	5.285630E-15	1.284523E-16
4.860000E+03	5.291489E-15	1.291036E-16
4.870000E+03	5.296770E-15	1.296504E-16
4.880000E+03	5.301799E-15	1.300922E-16
4.890000E+03	5.306404E-15	1.304175E-16
4.900000E+03	5.310434E-15	1.306166E-16
4.910000E+03	5.313245E-15	1.306691E-16
4.920000E+03	5.315756E-15	1.305948E-16
4.930000E+03	5.316862E-15	1.303653E-16
4.940000E+03	5.317528E-15	1.300049E-16
4.950000E+03	5.316702E-15	1.294901E-16
4.960000E+03	5.314888E-15	1.288370E-16
4.970000E+03	5.311591E-15	1.280392E-16
4.980000E+03	5.307867E-15	1.271288E-16
4.990000E+03	5.302751E-15	1.260903E-16
5.000000E+03	5.297329E-15	1.249582E-16
5.010000E+03	5.290670E-15	1.237197E-16
5.020000E+03	5.283377E-15	1.223985E-16
5.030000E+03	5.275551E-15	1.210065E-16
5.040000E+03	5.266801E-15	1.195441E-16
5.050000E+03	5.258243E-15	1.180457E-16
5.060000E+03	5.248994E-15	1.164990E-16
5.070000E+03	5.240167E-15	1.149360E-16
5.080000E+03	5.230881E-15	1.133427E-16
5.090000E+03	5.221744E-15	1.117369E-16
5.100000E+03	5.212368E-15	1.101131E-16
5.110000E+03	5.203832E-15	1.084953E-16
5.120000E+03	5.195237E-15	1.068642E-16
5.130000E+03	5.187632E-15	1.052397E-16
5.140000E+03	5.180092E-15	1.035994E-16
5.150000E+03	5.173143E-15	1.019495E-16
5.160000E+03	5.166801E-15	1.002844E-16
5.170000E+03	5.160579E-15	9.858820E-17
5.180000E+03	5.155422E-15	9.687156E-17
5.190000E+03	5.150317E-15	9.510725E-17
5.200000E+03	5.145687E-15	9.329494E-17
5.210000E+03	5.141450E-15	9.142452E-17
5.220000E+03	5.137511E-15	8.948565E-17
5.230000E+03	5.133758E-15	8.746794E-17
5.240000E+03	5.130072E-15	8.536123E-17
5.250000E+03	5.125843E-15	8.314816E-17
5.260000E+03	5.121416E-15	8.082814E-17
5.270000E+03	5.116648E-15	7.839374E-17
5.280000E+03	5.111397E-15	7.583937E-17
5.290000E+03	5.105520E-15	7.316200E-17
5.300000E+03	5.098876E-15	7.036213E-17
5.310000E+03	5.090854E-15	6.743871E-17
5.320000E+03	5.082267E-15	6.441615E-17
5.330000E+03	5.072046E-15	6.130225E-17
5.340000E+03	5.060545E-15	5.813438E-17
5.350000E+03	5.047658E-15	5.495794E-17
5.360000E+03	5.033290E-15	5.183631E-17
5.370000E+03	5.016897E-15	4.885005E-17
5.380000E+03	4.999343E-15	4.611778E-17
5.390000E+03	4.979659E-15	4.376300E-17
5.400000E+03	4.958286E-15	4.193665E-17
5.410000E+03	4.935232E-15	4.077849E-17
5.420000E+03	4.910539E-15	4.038863E-17
5.430000E+03	4.884302E-15	4.078706E-17
5.440000E+03	4.856682E-15	4.189764E-17
5.450000E+03	4.827429E-15	4.358168E-17
5.460000E+03	4.797652E-15	4.569313E-17
5.470000E+03	4.766692E-15	4.807835E-17
5.480000E+03	4.735226E-15	5.061859E-17
5.490000E+03	4.703484E-15	5.321759E-17
5.500000E+03	4.671693E-15	5.580375E-17
5.510000E+03	4.639646E-15	5.832083E-17
5.520000E+03	4.608405E-15	6.074487E-17
5.530000E+03	4.577322E-15	6.304314E-17
5.540000E+03	4.547008E-15	6.520878E-17
5.550000E+03	4.518054E-15	6.724279E-17
5.560000E+03	4.489792E-15	6.913313E-17
5.570000E+03	4.462383E-15	7.088311E-17
5.580000E+03	4.436788E-15	7.251207E-17
5.590000E+03	4.412728E-15	7.402203E-17
5.600000E+03	4.389924E-15	7.541562E-17
5.610000E+03	4.369295E-15	7.671671E-17
5.620000E+03	4.350145E-15	7.792194E-17
5.630000E+03	4.332973E-15	7.904869E-17
5.640000E+03	4.317866E-15	8.010723E-17
5.650000E+03	4.304906E-15	8.110731E-17
5.660000E+03	4.293771E-15	8.205058E-17
5.670000E+03	4.285309E-15	8.296029E-17
5.680000E+03	4.279178E-15	8.383650E-17
5.690000E+03	4.275029E-15	8.467795E-17
5.700000E+03	4.273279E-15	8.549765E-17
5.710000E+03	4.273944E-15	8.629992E-17
5.720000E+03	4.277025E-15	8.708800E-17
5.730000E+03	4.282508E-15	8.786403E-17
5.740000E+03	4.290365E-15	8.862909E-17
5.750000E+03	4.300553E-15	8.938330E-17
5.760000E+03	4.312623E-15	9.011768E-17
5.770000E+03	4.327290E-15	9.084710E-17
5.780000E+03	4.343681E-15	9.155298E-17
5.790000E+03	4.362095E-15	9.224101E-17
5.800000E+03	4.382825E-15	9.291685E-17
5.810000E+03	4.404964E-15	9.356075E-17
5.820000E+03	4.428791E-15	9.417820E-17
5.830000E+03	4.453780E-15	9.475776E-17
5.840000E+03	4.480622E-15	9.531396E-17
5.850000E+03	4.508797E-15	9.583571E-17
5.860000E+03	4.537788E-15	9.631184E-17
5.870000E+03	4.568321E-15	9.675756E-17
5.880000E+03	4.599487E-15	9.715308E-17
5.890000E+03	4.631638E-15	9.750502E-17
5.900000E+03	4.664737E-15	9.781129E-17
5.910000E+03	4.699197E-15	9.807884E-17
5.920000E+03	4.733752E-15	9.827909E-17
5.930000E+03	4.769731E-15	9.843722E-17
5.940000E+03	4.806784E-15	9.854300E-17
5.950000E+03	4.845019E-15	9.859541E-17
5.960000E+03	4.884133E-15	9.858478E-17
5.970000E+03	4.925182E-15	9.852859E-17
5.980000E+03	4.967471E-15	9.840853E-17
5.990000E+03	5.012124E-15	9.824211E-17
6.000000E+03	5.058477E-15	9.801073E-17
6.010000E+03	5.107242E-15	9.772207E-17
6.020000E+03	5.158691E-15	9.737403E-17
6.030000E+03	5.213100E-15	9.696333E-17
6.040000E+03	5.270743E-15	9.648522E-17
6.050000E+03	5.331884E-15	9.593316E-17
6.060000E+03	5.396767E-15	9.529854E-17
6.070000E+03	5.465111E-15	9.456184E-17
6.080000E+03	5.538081E-15	9.372695E-17
6.090000E+03	5.614798E-15	9.276070E-17
6.100000E+03	5.696339E-15	9.166145E-17
6.110000E+03	5.781655E-15	9.039127E-17
6.120000E+03	5.871682E-15	8.894343E-17
6.130000E+03	5.965140E-15	8.727666E-17
6.140000E+03	6.062212E-15	8.537357E-17
6.150000E+03	6.162415E-15	8.320911E-17
6.160000E+03	6.265109E-15	8.076079E-17
6.170000E+03	6.369482E-15	7.801129E-17
6.180000E+03	6.474535E-15	7.495234E-17
6.190000E+03	6.579079E-15	7.158988E-17
6.200000E+03	6.681723E-15	6.795130E-17
6.210000E+03	6.780267E-15	6.408931E-17
6.220000E+03	6.874186E-15	6.011856E-17
6.230000E+03	6.960340E-15	5.618986E-17
6.240000E+03	7.038021E-15	5.255077E-17
6.250000E+03	7.103999E-15	4.950809E-17
6.260000E+03	7.157776E-15	4.744181E-17
6.270000E+03	7.196651E-15	4.668546E-17
6.280000E+03	7.220710E-15	4.741958E-17
6.290000E+03	7.231461E-15	4.954820E-17
6.300000E+03	7.229347E-15	5.276757E-17
6.310000E+03	7.217216E-15	5.673239E-17
6.320000E+03	7.197421E-15	6.113176E-17
6.330000E+03	7.172307E-15	6.572943E-17
6.340000E+03	7.144104E-15	7.036381E-17
6.350000E+03	7.114850E-15	7.493438E-17
6.360000E+03	7.086346E-15	7.938619E-17
6.370000E+03	7.059492E-15	8.368900E-17
6.380000E+03	7.036868E-15	8.785731E-17
6.390000E+03	7.018844E-15	9.189783E-17
6.400000E+03	7.005547E-15	9.582452E-17
6.410000E+03	6.998793E-15	9.968198E-17
6.420000E+03	6.998237E-15	1.034905E-16
6.430000E+03	7.003324E-15	1.072680E-16
6.440000E+03	7.015225E-15	1.110584E-16
6.450000E+03	7.032349E-15	1.148619E-16
6.460000E+03	7.054861E-15	1.187028E-16
6.470000E+03	7.082779E-15	1.225999E-16
6.480000E+03	7.114026E-15	1.265315E-16
6.490000E+03	7.148355E-15	1.305011E-16
6.500000E+03	7.184772E-15	1.344938E-16
6.510000E+03	7.222869E-15	1.384998E-16
6.520000E+03	7.260200E-15	1.424651E-16
6.530000E+03	7.296278E-15	1.463669E-16
6.540000E+03	7.329958E-15	1.501656E-16
6.550000E+03	7.360117E-15	1.538185E-16
6.560000E+03	7.385682E-15	1.572806E-16
6.570000E+03	7.405646E-15	1.605070E-16
6.580000E+03	7.418411E-15	1.634387E-16
6.590000E+03	7.424536E-15	1.660645E-16
6.600000E+03	7.422650E-15	1.683328E-16
6.610000E+03	7.412199E-15	1.702118E-16
6.620000E+03	7.392768E-15	1.716763E-16
6.630000E+03	7.363404E-15	1.726921E-16
6.640000E+03	7.325347E-15	1.732805E-16
6.650000E+03	7.277924E-15	1.734228E-16
6.660000E+03	7.220609E-15	1.731078E-16
6.670000E+03	7.155009E-15	1.723802E-16
6.680000E+03	7.080169E-15	1.712274E-16
6.690000E+03	6.997881E-15	1.697067E-16
6.700000E+03	6.907401E-15	1.678173E-16
6.710000E+03	6.810650E-15	1.656256E-16
6.720000E+03	6.707046E-15	1.631388E-16
6.730000E+03	6.597971E-15	1.604125E-16
6.740000E+03	6.484803E-15	1.575022E-16
6.750000E+03	6.367127E-15	1.544191E-16
6.760000E+03	6.246363E-15	1.512173E-16
6.770000E+03	6.123324E-15	1.479343E-16
6.780000E+03	5.999364E-15	1.446182E-16
6.790000E+03	5.874128E-15	1.412734E-16
6.800000E+03	5.748926E-15	1.379419E-16
6.810000E+03	5.624456E-15	1.346483E-16
6.820000E+03	5.501362E-15	1.314139E-16
6.830000E+03	5.380235E-15	1.282565E-16
6.840000E+03	5.261603E-15	1.251908E-16
6.850000E+03	5.145932E-15	1.222284E-16
6.860000E+03	5.033622E-15	1.193785E-16
6.870000E+03	4.925012E-15	1.166477E-16
6.880000E+03	4.820378E-15	1.140408E-16
6.890000E+03	4.719935E-15	1.115607E-16
6.900000E+03	4.623413E-15	1.091985E-16
6.910000E+03	4.531794E-15	1.069751E-16
6.920000E+03	4.444697E-15	1.048790E-16
6.930000E+03	4.362139E-15	1.029083E-16
6.940000E+03	4.283695E-15	1.010508E-16
6.950000E+03	4.210117E-15	9.932198E-17
6.960000E+03	4.140907E-15	9.770819E-17
6.970000E+03	4.075567E-15	9.619571E-17
6.980000E+03	4.014727E-15	9.479765E-17
6.990000E+03	3.957470E-15	9.349056E-17
7.000000E+03	3.904371E-15	9.228633E-17
7.010000E+03	3.854503E-15	9.116143E-17
7.020000E+03	3.808043E-15	9.011840E-17
7.030000E+03	3.765147E-15	8.915925E-17
7.040000E+03	3.724896E-15	8.826062E-17
7.050000E+03	3.687794E-15	8.743275E-17
7.060000E+03	3.652939E-15	8.665259E-17
7.070000E+03	3.620486E-15	8.592205E-17
7.080000E+03	3.590244E-15	8.523482E-17
7.090000E+03	3.562028E-15	8.458479E-17
7.100000E+03	3.535999E-15	8.397405E-17
7.110000E+03	3.511324E-15	8.338111E-17
7.120000E+03	3.488184E-15	8.280878E-17
7.130000E+03	3.466441E-15	8.225235E-17
7.140000E+03	3.445965E-15	8.170761E-17
7.150000E+03	3.426640E-15	8.117087E-17
7.160000E+03	3.408360E-15	8.063902E-17
7.170000E+03	3.391030E-15	8.010953E-17
7.180000E+03	3.374246E-15	7.957282E-17
7.190000E+03	3.358575E-15	7.904256E-17
7.200000E+03	3.343627E-15	7.851007E-17
7.210000E+03	3.329343E-15	7.797464E-17
7.220000E+03	3.315352E-15	7.742844E-17
7.230000E+03	3.302240E-15	7.688604E-17
7.240000E+03	3.289643E-15	7.633984E-17
7.250000E+03	3.277210E-15	7.578247E-17
7.260000E+03	3.265531E-15	7.522826E-17
7.270000E+03	3.253945E-15	7.466247E-17
7.280000E+03	3.243045E-15	7.409894E-17
7.290000E+03	3.232181E-15	7.352280E-17
7.300000E+03	3.221638E-15	7.294031E-17
7.310000E+03	3.211699E-15	7.235732E-17
7.320000E+03	3.201727E-15	7.175866E-17
7.330000E+03	3.192012E-15	7.114987E-17
7.340000E+03	3.182540E-15	7.052942E-17
7.350000E+03	3.173297E-15	6.989565E-17
7.360000E+03	3.164275E-15	6.924691E-17
7.370000E+03	3.155469E-15	6.858151E-17
7.380000E+03	3.146877E-15	6.789784E-17
7.390000E+03	3.138500E-15	6.719432E-17
7.400000E+03	3.130344E-15	6.646942E-17
7.410000E+03	3.122415E-15	6.572163E-17
7.420000E+03	3.114724E-15	6.494938E-17
7.430000E+03	3.106982E-15	6.414478E-17
7.440000E+03	3.099803E-15	6.331832E-17
7.450000E+03	3.092900E-15	6.246138E-17
7.460000E+03	3.085985E-15	6.156516E-17
7.470000E+03	3.079670E-15	6.063820E-17
7.480000E+03	3.073365E-15	5.966452E-17
7.490000E+03	3.067675E-15	5.865090E-17
7.500000E+03	3.062007E-15	5.758030E-17
7.510000E+03	3.056659E-15	5.645230E-17
7.520000E+03	3.051921E-15	5.526556E-17
7.530000E+03	3.047191E-15	5.400220E-17
7.540000E+03	3.042748E-15	5.266062E-17
7.550000E+03	3.038572E-15	5.123404E-17
7.560000E+03	3.034635E-15	4.971635E-17
7.570000E+03	3.030903E-15	4.810263E-17
7.580000E+03	3.027337E-15	4.638978E-17
7.590000E+03	3.023890E-15	4.457729E-17
7.600000E+03	3.020510E-15	4.266820E-17
7.610000E+03	3.016844E-15	4.066632E-17
7.620000E+03	3.013417E-15	3.859398E-17
7.630000E+03	3.009866E-15	3.646948E-17
7.640000E+03	3.005821E-15	3.432285E-17
7.650000E+03	3.001794E-15	3.220835E-17
7.660000E+03	2.997113E-15	3.018414E-17
7.670000E+03	2.991990E-15	2.833830E-17
7.680000E+03	2.986633E-15	2.677808E-17
7.690000E+03	2.980373E-15	2.561560E-17
7.700000E+03	2.973429E-15	2.496578E-17
7.710000E+03	2.965740E-15	2.490566E-17
7.720000E+03	2.957278E-15	2.544314E-17
7.730000E+03	2.948049E-15	2.651340E-17
7.740000E+03	2.938075E-15	2.801080E-17
7.750000E+03	2.927387E-15	2.981943E-17
7.760000E+03	2.916018E-15	3.183335E-17
