#wls	flux	fluxerr
1.600000E+03	3.705070E-15	5.552819E-16
1.640000E+03	3.769154E-15	5.278563E-16
1.680000E+03	3.832523E-15	4.995334E-16
1.720000E+03	3.895955E-15	4.706459E-16
1.760000E+03	3.958924E-15	4.414043E-16
1.800000E+03	4.022311E-15	4.122473E-16
1.840000E+03	4.085663E-15	3.835351E-16
1.880000E+03	4.149978E-15	3.558602E-16
1.920000E+03	4.214886E-15	3.297784E-16
1.960000E+03	4.280776E-15	3.060105E-16
2.000000E+03	4.348862E-15	2.853867E-16
2.040000E+03	4.419717E-15	2.686595E-16
2.080000E+03	4.493248E-15	2.563796E-16
2.120000E+03	4.571000E-15	2.488210E-16
2.160000E+03	4.653096E-15	2.456408E-16
2.200000E+03	4.741344E-15	2.461940E-16
2.240000E+03	4.836863E-15	2.496278E-16
2.280000E+03	4.939945E-15	2.550338E-16
2.320000E+03	5.051526E-15	2.615815E-16
2.360000E+03	5.174125E-15	2.686598E-16
2.400000E+03	5.306784E-15	2.757358E-16
2.440000E+03	5.450175E-15	2.826931E-16
2.480000E+03	5.606796E-15	2.898848E-16
2.520000E+03	5.775438E-15	2.978532E-16
2.560000E+03	5.956586E-15	3.075529E-16
2.600000E+03	6.151585E-15	3.201428E-16
2.640000E+03	6.360516E-15	3.365691E-16
2.680000E+03	6.582717E-15	3.571574E-16
2.720000E+03	6.815627E-15	3.814449E-16
2.760000E+03	7.059429E-15	4.086313E-16
2.800000E+03	7.308165E-15	4.372608E-16
2.840000E+03	7.562241E-15	4.660895E-16
2.880000E+03	7.815688E-15	4.934504E-16
2.920000E+03	8.065573E-15	5.178923E-16
2.960000E+03	8.305927E-15	5.378667E-16
3.000000E+03	8.534196E-15	5.521940E-16
3.010000E+03	8.587635E-15	5.546806E-16
3.020000E+03	8.641066E-15	5.568003E-16
3.030000E+03	8.691675E-15	5.583625E-16
3.040000E+03	8.742101E-15	5.595286E-16
3.050000E+03	8.789500E-15	5.601099E-16
3.060000E+03	8.836534E-15	5.602706E-16
3.070000E+03	8.881728E-15	5.599121E-16
3.080000E+03	8.923583E-15	5.589379E-16
3.090000E+03	8.964793E-15	5.575157E-16
3.100000E+03	9.003864E-15	5.555517E-16
3.110000E+03	9.040696E-15	5.530414E-16
3.120000E+03	9.075189E-15	5.499823E-16
3.130000E+03	9.107242E-15	5.463735E-16
3.140000E+03	9.136758E-15	5.422160E-16
3.150000E+03	9.163636E-15	5.375127E-16
3.160000E+03	9.187780E-15	5.322689E-16
3.170000E+03	9.209094E-15	5.264916E-16
3.180000E+03	9.227482E-15	5.201902E-16
3.190000E+03	9.242852E-15	5.133765E-16
3.200000E+03	9.255112E-15	5.060644E-16
3.210000E+03	9.265603E-15	4.983474E-16
3.220000E+03	9.271383E-15	4.900893E-16
3.230000E+03	9.273797E-15	4.813899E-16
3.240000E+03	9.274191E-15	4.723458E-16
3.250000E+03	9.269640E-15	4.628374E-16
3.260000E+03	9.261501E-15	4.529684E-16
3.270000E+03	9.251121E-15	4.428390E-16
3.280000E+03	9.235609E-15	4.323472E-16
3.290000E+03	9.217736E-15	4.216649E-16
3.300000E+03	9.196036E-15	4.107652E-16
3.310000E+03	9.169074E-15	3.996313E-16
3.320000E+03	9.139612E-15	3.884330E-16
3.330000E+03	9.106223E-15	3.771571E-16
3.340000E+03	9.067516E-15	3.658001E-16
3.350000E+03	9.026240E-15	3.545291E-16
3.360000E+03	8.981016E-15	3.433434E-16
3.370000E+03	8.931860E-15	3.323013E-16
3.380000E+03	8.878796E-15	3.214624E-16
3.390000E+03	8.820536E-15	3.108401E-16
3.400000E+03	8.759798E-15	3.005896E-16
3.410000E+03	8.695312E-15	2.907214E-16
3.420000E+03	8.627160E-15	2.812918E-16
3.430000E+03	8.555442E-15	2.723531E-16
3.440000E+03	8.480274E-15	2.639522E-16
3.450000E+03	8.403048E-15	2.561665E-16
3.460000E+03	8.321401E-15	2.489483E-16
3.470000E+03	8.236783E-15	2.423555E-16
3.480000E+03	8.149401E-15	2.363928E-16
3.490000E+03	8.059491E-15	2.310505E-16
3.500000E+03	7.967326E-15	2.263036E-16
3.510000E+03	7.874387E-15	2.221469E-16
3.520000E+03	7.778676E-15	2.184648E-16
3.530000E+03	7.681748E-15	2.152340E-16
3.540000E+03	7.585115E-15	2.124248E-16
3.550000E+03	7.486923E-15	2.099118E-16
3.560000E+03	7.388706E-15	2.076658E-16
3.570000E+03	7.291935E-15	2.056598E-16
3.580000E+03	7.194842E-15	2.037811E-16
3.590000E+03	7.099937E-15	2.020439E-16
3.600000E+03	7.005494E-15	2.003498E-16
3.610000E+03	6.913936E-15	1.987258E-16
3.620000E+03	6.823571E-15	1.970885E-16
3.630000E+03	6.736733E-15	1.954773E-16
3.640000E+03	6.651752E-15	1.938224E-16
3.650000E+03	6.570867E-15	1.921731E-16
3.660000E+03	6.492415E-15	1.904700E-16
3.670000E+03	6.418521E-15	1.887681E-16
3.680000E+03	6.348420E-15	1.870414E-16
3.690000E+03	6.281354E-15	1.852659E-16
3.700000E+03	6.219259E-15	1.834991E-16
3.710000E+03	6.161288E-15	1.817175E-16
3.720000E+03	6.106596E-15	1.798987E-16
3.730000E+03	6.056947E-15	1.780979E-16
3.740000E+03	6.011420E-15	1.762913E-16
3.750000E+03	5.969957E-15	1.744808E-16
3.760000E+03	5.931634E-15	1.726435E-16
3.770000E+03	5.898062E-15	1.708309E-16
3.780000E+03	5.868289E-15	1.690201E-16
3.790000E+03	5.842206E-15	1.672131E-16
3.800000E+03	5.818870E-15	1.653884E-16
3.810000E+03	5.799818E-15	1.635954E-16
3.820000E+03	5.784086E-15	1.618116E-16
3.830000E+03	5.771530E-15	1.600376E-16
3.840000E+03	5.761995E-15	1.582733E-16
3.850000E+03	5.755315E-15	1.565179E-16
3.860000E+03	5.750503E-15	1.547482E-16
3.870000E+03	5.749001E-15	1.530065E-16
3.880000E+03	5.749804E-15	1.512687E-16
3.890000E+03	5.752718E-15	1.495332E-16
3.900000E+03	5.757547E-15	1.477985E-16
3.910000E+03	5.764093E-15	1.460635E-16
3.920000E+03	5.771350E-15	1.443071E-16
3.930000E+03	5.780738E-15	1.425699E-16
3.940000E+03	5.791255E-15	1.408313E-16
3.950000E+03	5.802716E-15	1.390915E-16
3.960000E+03	5.814941E-15	1.373508E-16
3.970000E+03	5.827764E-15	1.356091E-16
3.980000E+03	5.841033E-15	1.338660E-16
3.990000E+03	5.853802E-15	1.321022E-16
4.000000E+03	5.867579E-15	1.303531E-16
4.010000E+03	5.881460E-15	1.285984E-16
4.020000E+03	5.895374E-15	1.268354E-16
4.030000E+03	5.909266E-15	1.250614E-16
4.040000E+03	5.922286E-15	1.232561E-16
4.050000E+03	5.936035E-15	1.214498E-16
4.060000E+03	5.949683E-15	1.196204E-16
4.070000E+03	5.963210E-15	1.177623E-16
4.080000E+03	5.975781E-15	1.158529E-16
4.090000E+03	5.989013E-15	1.139173E-16
4.100000E+03	6.002065E-15	1.119325E-16
4.110000E+03	6.014919E-15	1.098921E-16
4.120000E+03	6.026739E-15	1.077760E-16
4.130000E+03	6.039166E-15	1.056095E-16
4.140000E+03	6.051394E-15	1.033750E-16
4.150000E+03	6.062640E-15	1.010577E-16
4.160000E+03	6.074607E-15	9.868601E-17
4.170000E+03	6.085729E-15	9.623632E-17
4.180000E+03	6.097748E-15	9.374155E-17
4.190000E+03	6.109941E-15	9.119904E-17
4.200000E+03	6.121580E-15	8.861274E-17
4.210000E+03	6.134399E-15	8.602905E-17
4.220000E+03	6.146812E-15	8.345391E-17
4.230000E+03	6.160506E-15	8.094785E-17
4.240000E+03	6.173833E-15	7.853550E-17
4.250000E+03	6.187583E-15	7.628389E-17
4.260000E+03	6.202512E-15	7.426728E-17
4.270000E+03	6.216845E-15	7.253636E-17
4.280000E+03	6.232081E-15	7.118400E-17
4.290000E+03	6.246352E-15	7.026021E-17
4.300000E+03	6.260242E-15	6.983038E-17
4.310000E+03	6.273465E-15	6.992238E-17
4.320000E+03	6.286556E-15	7.052611E-17
4.330000E+03	6.297540E-15	7.155442E-17
4.340000E+03	6.306957E-15	7.292112E-17
4.350000E+03	6.314532E-15	7.452266E-17
4.360000E+03	6.320025E-15	7.625868E-17
4.370000E+03	6.323242E-15	7.803901E-17
4.380000E+03	6.324050E-15	7.978739E-17
4.390000E+03	6.322376E-15	8.144317E-17
4.400000E+03	6.318218E-15	8.296138E-17
4.410000E+03	6.311639E-15	8.431209E-17
4.420000E+03	6.302760E-15	8.547915E-17
4.430000E+03	6.291751E-15	8.645873E-17
4.440000E+03	6.277995E-15	8.724620E-17
4.450000E+03	6.263360E-15	8.787981E-17
4.460000E+03	6.247247E-15	8.837011E-17
4.470000E+03	6.229867E-15	8.874263E-17
4.480000E+03	6.210600E-15	8.901205E-17
4.490000E+03	6.191227E-15	8.922634E-17
4.500000E+03	6.170267E-15	8.938457E-17
4.510000E+03	6.149440E-15	8.952934E-17
4.520000E+03	6.127246E-15	8.965380E-17
4.530000E+03	6.105370E-15	8.979487E-17
4.540000E+03	6.082320E-15	8.994042E-17
4.550000E+03	6.058989E-15	9.011095E-17
4.560000E+03	6.036261E-15	9.032513E-17
4.570000E+03	6.012689E-15	9.056525E-17
4.580000E+03	5.989181E-15	9.084745E-17
4.590000E+03	5.965869E-15	9.117555E-17
4.600000E+03	5.942897E-15	9.155304E-17
4.610000E+03	5.920413E-15	9.198320E-17
4.620000E+03	5.898570E-15	9.246932E-17
4.630000E+03	5.877520E-15	9.301473E-17
4.640000E+03	5.857418E-15	9.362268E-17
4.650000E+03	5.838409E-15	9.429640E-17
4.660000E+03	5.819891E-15	9.502682E-17
4.670000E+03	5.803485E-15	9.584095E-17
4.680000E+03	5.788560E-15	9.672920E-17
4.690000E+03	5.774483E-15	9.768116E-17
4.700000E+03	5.762813E-15	9.872306E-17
4.710000E+03	5.752146E-15	9.983053E-17
4.720000E+03	5.743997E-15	1.010286E-16
4.730000E+03	5.736927E-15	1.022901E-16
4.740000E+03	5.731670E-15	1.036249E-16
4.750000E+03	5.728928E-15	1.050413E-16
4.760000E+03	5.727191E-15	1.065060E-16
4.770000E+03	5.727098E-15	1.080227E-16
4.780000E+03	5.728521E-15	1.095792E-16
4.790000E+03	5.731290E-15	1.111600E-16
4.800000E+03	5.735196E-15	1.127470E-16
4.810000E+03	5.739990E-15	1.143188E-16
4.820000E+03	5.745391E-15	1.158517E-16
4.830000E+03	5.751091E-15	1.173199E-16
4.840000E+03	5.756039E-15	1.186812E-16
4.850000E+03	5.761347E-15	1.199377E-16
4.860000E+03	5.765962E-15	1.210474E-16
4.870000E+03	5.768848E-15	1.219694E-16
4.880000E+03	5.771174E-15	1.227114E-16
4.890000E+03	5.771248E-15	1.232231E-16
4.900000E+03	5.769591E-15	1.235043E-16
4.910000E+03	5.766761E-15	1.235596E-16
4.920000E+03	5.761197E-15	1.233513E-16
4.930000E+03	5.753543E-15	1.228932E-16
4.940000E+03	5.743766E-15	1.221877E-16
4.950000E+03	5.731871E-15	1.212418E-16
4.960000E+03	5.717907E-15	1.200662E-16
4.970000E+03	5.701955E-15	1.186750E-16
4.980000E+03	5.684126E-15	1.170852E-16
4.990000E+03	5.664551E-15	1.153163E-16
5.000000E+03	5.643371E-15	1.133895E-16
5.010000E+03	5.620037E-15	1.113137E-16
5.020000E+03	5.596104E-15	1.091407E-16
5.030000E+03	5.571034E-15	1.068809E-16
5.040000E+03	5.544308E-15	1.045461E-16
5.050000E+03	5.516792E-15	1.021742E-16
5.060000E+03	5.489339E-15	9.980083E-17
5.070000E+03	5.460766E-15	9.742266E-17
5.080000E+03	5.431933E-15	9.507152E-17
5.090000E+03	5.403685E-15	9.277512E-17
5.100000E+03	5.374861E-15	9.052340E-17
5.110000E+03	5.346303E-15	8.833808E-17
5.120000E+03	5.318170E-15	8.622602E-17
5.130000E+03	5.290611E-15	8.419114E-17
5.140000E+03	5.263100E-15	8.222436E-17
5.150000E+03	5.237036E-15	8.034458E-17
5.160000E+03	5.211833E-15	7.853764E-17
5.170000E+03	5.187526E-15	7.679805E-17
5.180000E+03	5.163481E-15	7.510984E-17
5.190000E+03	5.140935E-15	7.348430E-17
5.200000E+03	5.118566E-15	7.189565E-17
5.210000E+03	5.097549E-15	7.035437E-17
5.220000E+03	5.076536E-15	6.883612E-17
5.230000E+03	5.056046E-15	6.734335E-17
5.240000E+03	5.035966E-15	6.587029E-17
5.250000E+03	5.016185E-15	6.441181E-17
5.260000E+03	4.997203E-15	6.297122E-17
5.270000E+03	4.977691E-15	6.152913E-17
5.280000E+03	4.958164E-15	6.009017E-17
5.290000E+03	4.937926E-15	5.864433E-17
5.300000E+03	4.918103E-15	5.720373E-17
5.310000E+03	4.898007E-15	5.575980E-17
5.320000E+03	4.877569E-15	5.431330E-17
5.330000E+03	4.856132E-15	5.286166E-17
5.340000E+03	4.834824E-15	5.142648E-17
5.350000E+03	4.812415E-15	5.000977E-17
5.360000E+03	4.790041E-15	4.864609E-17
5.370000E+03	4.766503E-15	4.735402E-17
5.380000E+03	4.742946E-15	4.618430E-17
5.390000E+03	4.718212E-15	4.517176E-17
5.400000E+03	4.692893E-15	4.437228E-17
5.410000E+03	4.667022E-15	4.383430E-17
5.420000E+03	4.640660E-15	4.359469E-17
5.430000E+03	4.613906E-15	4.366398E-17
5.440000E+03	4.586910E-15	4.402023E-17
5.450000E+03	4.559847E-15	4.462151E-17
5.460000E+03	4.532898E-15	4.541852E-17
5.470000E+03	4.506246E-15	4.636174E-17
5.480000E+03	4.480065E-15	4.740556E-17
5.490000E+03	4.453983E-15	4.850478E-17
5.500000E+03	4.429237E-15	4.963886E-17
5.510000E+03	4.404895E-15	5.077088E-17
5.520000E+03	4.382156E-15	5.189447E-17
5.530000E+03	4.360073E-15	5.298424E-17
5.540000E+03	4.339807E-15	5.404446E-17
5.550000E+03	4.320395E-15	5.505744E-17
5.560000E+03	4.302444E-15	5.602764E-17
5.570000E+03	4.286538E-15	5.696217E-17
5.580000E+03	4.271700E-15	5.784930E-17
5.590000E+03	4.258506E-15	5.869912E-17
5.600000E+03	4.247008E-15	5.951598E-17
5.610000E+03	4.237260E-15	6.030503E-17
5.620000E+03	4.229317E-15	6.107191E-17
5.630000E+03	4.223237E-15	6.182246E-17
5.640000E+03	4.218571E-15	6.255495E-17
5.650000E+03	4.216399E-15	6.329002E-17
5.660000E+03	4.216270E-15	6.402538E-17
5.670000E+03	4.218242E-15	6.476559E-17
5.680000E+03	4.221853E-15	6.550649E-17
5.690000E+03	4.228160E-15	6.626647E-17
5.700000E+03	4.236171E-15	6.703110E-17
5.710000E+03	4.246913E-15	6.781651E-17
5.720000E+03	4.259356E-15	6.860499E-17
5.730000E+03	4.273980E-15	6.940160E-17
5.740000E+03	4.291250E-15	7.021036E-17
5.750000E+03	4.310056E-15	7.100854E-17
5.760000E+03	4.330814E-15	7.179737E-17
5.770000E+03	4.353397E-15	7.256863E-17
5.780000E+03	4.377652E-15	7.331331E-17
5.790000E+03	4.403407E-15	7.402217E-17
5.800000E+03	4.430468E-15	7.468634E-17
5.810000E+03	4.458626E-15	7.529797E-17
5.820000E+03	4.487661E-15	7.585090E-17
5.830000E+03	4.517341E-15	7.634111E-17
5.840000E+03	4.547432E-15	7.676676E-17
5.850000E+03	4.577697E-15	7.712767E-17
5.860000E+03	4.607351E-15	7.741514E-17
5.870000E+03	4.637278E-15	7.764831E-17
5.880000E+03	4.666727E-15	7.781782E-17
5.890000E+03	4.694959E-15	7.791342E-17
5.900000E+03	4.722960E-15	7.795208E-17
5.910000E+03	4.749499E-15	7.791273E-17
5.920000E+03	4.775669E-15	7.781169E-17
5.930000E+03	4.800332E-15	7.762824E-17
5.940000E+03	4.824122E-15	7.737086E-17
5.950000E+03	4.847740E-15	7.704956E-17
5.960000E+03	4.870187E-15	7.664857E-17
5.970000E+03	4.892258E-15	7.618203E-17
5.980000E+03	4.914213E-15	7.565655E-17
5.990000E+03	4.936946E-15	7.508913E-17
6.000000E+03	4.959612E-15	7.447035E-17
6.010000E+03	4.983171E-15	7.381816E-17
6.020000E+03	5.008015E-15	7.314084E-17
6.030000E+03	5.034553E-15	7.244567E-17
6.040000E+03	5.063201E-15	7.173846E-17
6.050000E+03	5.093760E-15	7.101456E-17
6.060000E+03	5.127852E-15	7.029285E-17
6.070000E+03	5.165246E-15	6.956404E-17
6.080000E+03	5.206285E-15	6.882483E-17
6.090000E+03	5.251262E-15	6.806918E-17
6.100000E+03	5.299771E-15	6.728022E-17
6.110000E+03	5.353237E-15	6.646273E-17
6.120000E+03	5.411094E-15	6.559466E-17
6.130000E+03	5.472647E-15	6.465249E-17
6.140000E+03	5.539047E-15	6.363491E-17
6.150000E+03	5.608678E-15	6.250937E-17
6.160000E+03	5.682441E-15	6.127505E-17
6.170000E+03	5.758373E-15	5.990398E-17
6.180000E+03	5.837065E-15	5.840285E-17
6.190000E+03	5.916149E-15	5.675787E-17
6.200000E+03	5.995143E-15	5.498863E-17
6.210000E+03	6.073407E-15	5.313055E-17
6.220000E+03	6.147931E-15	5.122127E-17
6.230000E+03	6.217709E-15	4.934425E-17
6.240000E+03	6.280890E-15	4.760495E-17
6.250000E+03	6.336331E-15	4.614008E-17
6.260000E+03	6.380672E-15	4.508256E-17
6.270000E+03	6.413166E-15	4.456800E-17
6.280000E+03	6.433290E-15	4.466708E-17
6.290000E+03	6.442077E-15	4.535754E-17
6.300000E+03	6.441628E-15	4.654633E-17
6.310000E+03	6.434393E-15	4.811343E-17
6.320000E+03	6.422843E-15	4.994250E-17
6.330000E+03	6.409312E-15	5.193751E-17
6.340000E+03	6.395912E-15	5.402839E-17
6.350000E+03	6.384482E-15	5.617027E-17
6.360000E+03	6.376583E-15	5.834037E-17
6.370000E+03	6.372742E-15	6.052678E-17
6.380000E+03	6.375543E-15	6.275345E-17
6.390000E+03	6.385032E-15	6.503389E-17
6.400000E+03	6.401808E-15	6.739656E-17
6.410000E+03	6.425488E-15	6.986663E-17
6.420000E+03	6.457805E-15	7.249706E-17
6.430000E+03	6.497977E-15	7.531657E-17
6.440000E+03	6.544996E-15	7.835015E-17
6.450000E+03	6.600000E-15	8.164537E-17
6.460000E+03	6.660738E-15	8.520322E-17
6.470000E+03	6.727916E-15	8.905246E-17
6.480000E+03	6.798804E-15	9.316706E-17
6.490000E+03	6.873742E-15	9.754941E-17
6.500000E+03	6.949642E-15	1.021421E-16
6.510000E+03	7.026653E-15	1.069212E-16
6.520000E+03	7.101539E-15	1.118022E-16
6.530000E+03	7.174491E-15	1.167436E-16
6.540000E+03	7.242334E-15	1.216438E-16
6.550000E+03	7.304560E-15	1.264394E-16
6.560000E+03	7.360798E-15	1.310690E-16
6.570000E+03	7.408121E-15	1.354264E-16
6.580000E+03	7.446377E-15	1.394561E-16
6.590000E+03	7.474665E-15	1.430937E-16
6.600000E+03	7.492252E-15	1.462826E-16
6.610000E+03	7.499513E-15	1.489940E-16
6.620000E+03	7.494321E-15	1.511557E-16
6.630000E+03	7.477491E-15	1.527604E-16
6.640000E+03	7.449117E-15	1.537950E-16
6.650000E+03	7.409453E-15	1.542577E-16
6.660000E+03	7.358882E-15	1.541577E-16
6.670000E+03	7.297896E-15	1.535151E-16
6.680000E+03	7.227072E-15	1.523594E-16
6.690000E+03	7.147053E-15	1.507289E-16
6.700000E+03	7.058538E-15	1.486694E-16
6.710000E+03	6.962266E-15	1.462328E-16
6.720000E+03	6.859013E-15	1.434754E-16
6.730000E+03	6.749583E-15	1.404562E-16
6.740000E+03	6.634810E-15	1.372348E-16
6.750000E+03	6.515557E-15	1.338690E-16
6.760000E+03	6.391944E-15	1.303969E-16
6.770000E+03	6.266457E-15	1.268993E-16
6.780000E+03	6.139227E-15	1.234026E-16
6.790000E+03	6.011165E-15	1.199431E-16
6.800000E+03	5.883139E-15	1.165515E-16
6.810000E+03	5.755267E-15	1.132388E-16
6.820000E+03	5.629715E-15	1.100530E-16
6.830000E+03	5.506443E-15	1.069949E-16
6.840000E+03	5.385392E-15	1.040624E-16
6.850000E+03	5.268399E-15	1.012879E-16
6.860000E+03	5.155224E-15	9.866203E-17
6.870000E+03	5.045606E-15	9.617385E-17
6.880000E+03	4.941065E-15	9.384636E-17
6.890000E+03	4.840595E-15	9.165447E-17
6.900000E+03	4.745536E-15	8.961821E-17
6.910000E+03	4.654809E-15	8.771240E-17
6.920000E+03	4.569599E-15	8.595510E-17
6.930000E+03	4.488769E-15	8.432108E-17
6.940000E+03	4.413366E-15	8.282647E-17
6.950000E+03	4.342204E-15	8.144552E-17
6.960000E+03	4.275693E-15	8.018255E-17
6.970000E+03	4.214179E-15	7.904072E-17
6.980000E+03	4.156425E-15	7.799366E-17
6.990000E+03	4.103236E-15	7.705333E-17
7.000000E+03	4.053366E-15	7.619331E-17
7.010000E+03	4.007072E-15	7.541552E-17
7.020000E+03	3.964097E-15	7.471224E-17
7.030000E+03	3.924657E-15	7.408481E-17
7.040000E+03	3.887525E-15	7.350721E-17
7.050000E+03	3.852924E-15	7.298079E-17
7.060000E+03	3.820600E-15	7.249771E-17
7.070000E+03	3.790304E-15	7.205009E-17
7.080000E+03	3.761802E-15	7.163004E-17
7.090000E+03	3.735326E-15	7.123841E-17
7.100000E+03	3.709750E-15	7.084990E-17
7.110000E+03	3.685346E-15	7.046571E-17
7.120000E+03	3.661946E-15	7.007868E-17
7.130000E+03	3.639404E-15	6.968227E-17
7.140000E+03	3.617595E-15	6.927087E-17
7.150000E+03	3.596417E-15	6.884015E-17
7.160000E+03	3.575783E-15	6.838717E-17
7.170000E+03	3.555624E-15	6.791043E-17
7.180000E+03	3.535883E-15	6.740971E-17
7.190000E+03	3.516083E-15	6.687758E-17
7.200000E+03	3.497059E-15	6.633228E-17
7.210000E+03	3.478345E-15	6.576783E-17
7.220000E+03	3.459916E-15	6.518695E-17
7.230000E+03	3.441748E-15	6.459258E-17
7.240000E+03	3.423395E-15	6.397980E-17
7.250000E+03	3.405683E-15	6.336725E-17
7.260000E+03	3.388165E-15	6.274941E-17
7.270000E+03	3.370819E-15	6.212823E-17
7.280000E+03	3.353209E-15	6.149745E-17
7.290000E+03	3.336145E-15	6.087311E-17
7.300000E+03	3.319189E-15	6.024776E-17
7.310000E+03	3.301914E-15	5.961372E-17
7.320000E+03	3.285118E-15	5.898512E-17
7.330000E+03	3.267969E-15	5.834620E-17
7.340000E+03	3.251264E-15	5.771007E-17
7.350000E+03	3.234185E-15	5.706078E-17
7.360000E+03	3.217528E-15	5.641096E-17
7.370000E+03	3.200495E-15	5.574516E-17
7.380000E+03	3.183888E-15	5.507635E-17
7.390000E+03	3.166927E-15	5.439060E-17
7.400000E+03	3.150031E-15	5.369556E-17
7.410000E+03	3.133615E-15	5.299961E-17
7.420000E+03	3.116930E-15	5.229224E-17
7.430000E+03	3.100404E-15	5.158360E-17
7.440000E+03	3.084460E-15	5.088376E-17
7.450000E+03	3.068372E-15	5.018336E-17
7.460000E+03	3.052568E-15	4.949129E-17
7.470000E+03	3.037092E-15	4.880868E-17
7.480000E+03	3.021982E-15	4.813495E-17
7.490000E+03	3.007653E-15	4.747359E-17
7.500000E+03	2.993383E-15	4.680838E-17
7.510000E+03	2.979578E-15	4.613938E-17
7.520000E+03	2.966261E-15	4.545924E-17
7.530000E+03	2.953452E-15	4.475972E-17
7.540000E+03	2.941164E-15	4.403227E-17
7.550000E+03	2.929406E-15	4.326843E-17
7.560000E+03	2.918181E-15	4.246027E-17
7.570000E+03	2.907486E-15	4.160069E-17
7.580000E+03	2.897310E-15	4.068400E-17
7.590000E+03	2.887273E-15	3.970167E-17
7.600000E+03	2.878078E-15	3.866346E-17
7.610000E+03	2.869333E-15	3.756821E-17
7.620000E+03	2.861004E-15	3.642525E-17
7.630000E+03	2.853055E-15	3.525038E-17
7.640000E+03	2.845085E-15	3.406255E-17
7.650000E+03	2.837767E-15	3.290189E-17
7.660000E+03	2.830696E-15	3.180385E-17
7.670000E+03	2.823464E-15	3.081229E-17
7.680000E+03	2.816731E-15	2.998867E-17
7.690000E+03	2.810084E-15	2.938431E-17
7.700000E+03	2.803115E-15	2.904587E-17
7.710000E+03	2.796482E-15	2.901588E-17
7.720000E+03	2.789447E-15	2.929466E-17
7.730000E+03	2.782699E-15	2.986843E-17
7.740000E+03	2.775530E-15	3.069069E-17
7.750000E+03	2.768287E-15	3.171828E-17
7.760000E+03	2.761320E-15	3.290749E-17
