#wls	flux	fluxerr
1.600000E+03	3.596062E-15	5.471310E-16
1.640000E+03	3.666561E-15	5.202384E-16
1.680000E+03	3.737284E-15	4.921302E-16
1.720000E+03	3.808987E-15	4.630647E-16
1.760000E+03	3.881120E-15	4.331744E-16
1.800000E+03	3.953804E-15	4.027475E-16
1.840000E+03	4.027881E-15	3.722201E-16
1.880000E+03	4.102092E-15	3.419352E-16
1.920000E+03	4.178020E-15	3.126384E-16
1.960000E+03	4.255858E-15	2.851064E-16
2.000000E+03	4.334293E-15	2.602123E-16
2.040000E+03	4.415017E-15	2.391655E-16
2.080000E+03	4.497531E-15	2.229850E-16
2.120000E+03	4.583012E-15	2.123517E-16
2.160000E+03	4.671263E-15	2.070750E-16
2.200000E+03	4.763004E-15	2.063755E-16
2.240000E+03	4.859032E-15	2.091842E-16
2.280000E+03	4.961006E-15	2.143938E-16
2.320000E+03	5.069632E-15	2.208132E-16
2.360000E+03	5.183679E-15	2.272677E-16
2.400000E+03	5.305309E-15	2.330649E-16
2.440000E+03	5.433914E-15	2.378730E-16
2.480000E+03	5.570540E-15	2.420088E-16
2.520000E+03	5.714168E-15	2.463301E-16
2.560000E+03	5.864474E-15	2.523150E-16
2.600000E+03	6.021957E-15	2.618080E-16
2.640000E+03	6.184908E-15	2.762903E-16
2.680000E+03	6.352177E-15	2.961576E-16
2.720000E+03	6.523320E-15	3.206333E-16
2.760000E+03	6.695459E-15	3.481597E-16
2.800000E+03	6.867587E-15	3.770449E-16
2.840000E+03	7.036064E-15	4.054899E-16
2.880000E+03	7.197959E-15	4.318717E-16
2.920000E+03	7.349966E-15	4.547312E-16
2.960000E+03	7.489686E-15	4.728699E-16
3.000000E+03	7.613268E-15	4.852187E-16
3.010000E+03	7.640341E-15	4.872439E-16
3.020000E+03	7.666006E-15	4.888371E-16
3.030000E+03	7.691467E-15	4.900697E-16
3.040000E+03	7.714123E-15	4.907713E-16
3.050000E+03	7.735177E-15	4.910155E-16
3.060000E+03	7.755842E-15	4.908773E-16
3.070000E+03	7.773503E-15	4.901899E-16
3.080000E+03	7.790654E-15	4.891115E-16
3.090000E+03	7.804672E-15	4.874789E-16
3.100000E+03	7.818061E-15	4.854519E-16
3.110000E+03	7.829481E-15	4.829509E-16
3.120000E+03	7.837586E-15	4.798994E-16
3.130000E+03	7.844894E-15	4.764595E-16
3.140000E+03	7.848778E-15	4.724801E-16
3.150000E+03	7.851760E-15	4.681239E-16
3.160000E+03	7.852504E-15	4.633221E-16
3.170000E+03	7.849682E-15	4.580104E-16
3.180000E+03	7.845819E-15	4.523524E-16
3.190000E+03	7.839592E-15	4.462869E-16
3.200000E+03	7.829688E-15	4.397585E-16
3.210000E+03	7.818632E-15	4.329305E-16
3.220000E+03	7.805118E-15	4.257504E-16
3.230000E+03	7.789125E-15	4.182408E-16
3.240000E+03	7.769373E-15	4.103594E-16
3.250000E+03	7.748380E-15	4.022678E-16
3.260000E+03	7.724874E-15	3.939265E-16
3.270000E+03	7.698855E-15	3.853662E-16
3.280000E+03	7.670331E-15	3.766197E-16
3.290000E+03	7.639316E-15	3.677219E-16
3.300000E+03	7.605830E-15	3.587095E-16
3.310000E+03	7.568678E-15	3.495645E-16
3.320000E+03	7.530352E-15	3.404420E-16
3.330000E+03	7.489665E-15	3.313260E-16
3.340000E+03	7.446672E-15	3.222597E-16
3.350000E+03	7.401433E-15	3.132878E-16
3.360000E+03	7.354021E-15	3.044557E-16
3.370000E+03	7.304516E-15	2.958091E-16
3.380000E+03	7.253007E-15	2.873935E-16
3.390000E+03	7.199594E-15	2.792540E-16
3.400000E+03	7.144386E-15	2.714339E-16
3.410000E+03	7.087503E-15	2.639741E-16
3.420000E+03	7.029072E-15	2.569125E-16
3.430000E+03	6.969230E-15	2.502825E-16
3.440000E+03	6.909228E-15	2.441511E-16
3.450000E+03	6.846997E-15	2.384610E-16
3.460000E+03	6.783813E-15	2.332663E-16
3.470000E+03	6.719838E-15	2.285730E-16
3.480000E+03	6.655236E-15	2.243778E-16
3.490000E+03	6.590164E-15	2.206673E-16
3.500000E+03	6.524776E-15	2.174198E-16
3.510000E+03	6.459233E-15	2.146067E-16
3.520000E+03	6.394712E-15	2.122277E-16
3.530000E+03	6.329338E-15	2.101775E-16
3.540000E+03	6.264308E-15	2.084502E-16
3.550000E+03	6.199797E-15	2.070051E-16
3.560000E+03	6.135980E-15	2.058021E-16
3.570000E+03	6.073996E-15	2.048349E-16
3.580000E+03	6.012087E-15	2.040021E-16
3.590000E+03	5.951398E-15	2.033031E-16
3.600000E+03	5.892100E-15	2.027079E-16
3.610000E+03	5.835277E-15	2.022223E-16
3.620000E+03	5.779237E-15	2.017596E-16
3.630000E+03	5.725059E-15	2.013327E-16
3.640000E+03	5.673777E-15	2.009575E-16
3.650000E+03	5.623728E-15	2.005579E-16
3.660000E+03	5.575930E-15	2.001556E-16
3.670000E+03	5.530490E-15	1.997431E-16
3.680000E+03	5.488362E-15	1.993461E-16
3.690000E+03	5.447898E-15	1.988980E-16
3.700000E+03	5.410032E-15	1.984277E-16
3.710000E+03	5.375658E-15	1.979646E-16
3.720000E+03	5.343126E-15	1.974461E-16
3.730000E+03	5.313309E-15	1.969031E-16
3.740000E+03	5.287046E-15	1.963666E-16
3.750000E+03	5.262682E-15	1.957755E-16
3.760000E+03	5.241035E-15	1.951611E-16
3.770000E+03	5.222896E-15	1.945541E-16
3.780000E+03	5.206604E-15	1.938943E-16
3.790000E+03	5.192931E-15	1.932119E-16
3.800000E+03	5.182632E-15	1.925369E-16
3.810000E+03	5.174035E-15	1.918086E-16
3.820000E+03	5.167880E-15	1.910564E-16
3.830000E+03	5.164891E-15	1.903085E-16
3.840000E+03	5.163387E-15	1.895043E-16
3.850000E+03	5.164081E-15	1.886715E-16
3.860000E+03	5.167681E-15	1.878368E-16
3.870000E+03	5.172492E-15	1.869396E-16
3.880000E+03	5.179213E-15	1.860061E-16
3.890000E+03	5.188539E-15	1.850618E-16
3.900000E+03	5.198767E-15	1.840460E-16
3.910000E+03	5.210589E-15	1.829839E-16
3.920000E+03	5.224699E-15	1.818998E-16
3.930000E+03	5.239387E-15	1.807335E-16
3.940000E+03	5.255346E-15	1.795092E-16
3.950000E+03	5.273282E-15	1.782501E-16
3.960000E+03	5.291478E-15	1.768971E-16
3.970000E+03	5.310643E-15	1.754735E-16
3.980000E+03	5.331498E-15	1.740015E-16
3.990000E+03	5.352326E-15	1.724232E-16
4.000000E+03	5.373856E-15	1.707612E-16
4.010000E+03	5.396834E-15	1.690368E-16
4.020000E+03	5.419542E-15	1.671938E-16
4.030000E+03	5.442734E-15	1.652541E-16
4.040000E+03	5.466349E-15	1.632134E-16
4.050000E+03	5.491168E-15	1.610923E-16
4.060000E+03	5.515473E-15	1.588377E-16
4.070000E+03	5.540050E-15	1.564711E-16
4.080000E+03	5.564860E-15	1.539897E-16
4.090000E+03	5.590715E-15	1.514142E-16
4.100000E+03	5.615892E-15	1.486967E-16
4.110000E+03	5.641207E-15	1.458603E-16
4.120000E+03	5.666637E-15	1.429057E-16
4.130000E+03	5.692159E-15	1.398354E-16
4.140000E+03	5.718618E-15	1.366745E-16
4.150000E+03	5.744271E-15	1.333879E-16
4.160000E+03	5.769960E-15	1.300064E-16
4.170000E+03	5.795665E-15	1.265432E-16
4.180000E+03	5.821365E-15	1.230155E-16
4.190000E+03	5.847032E-15	1.194457E-16
4.200000E+03	5.872636E-15	1.158616E-16
4.210000E+03	5.899023E-15	1.123151E-16
4.220000E+03	5.924377E-15	1.088140E-16
4.230000E+03	5.949524E-15	1.054266E-16
4.240000E+03	5.974398E-15	1.022120E-16
4.250000E+03	5.998920E-15	9.923829E-17
4.260000E+03	6.023002E-15	9.658034E-17
4.270000E+03	6.046546E-15	9.431781E-17
4.280000E+03	6.069444E-15	9.253050E-17
4.290000E+03	6.091584E-15	9.129212E-17
4.300000E+03	6.112849E-15	9.066256E-17
4.310000E+03	6.133120E-15	9.067961E-17
4.320000E+03	6.152286E-15	9.134899E-17
4.330000E+03	6.169324E-15	9.262786E-17
4.340000E+03	6.185977E-15	9.448945E-17
4.350000E+03	6.201242E-15	9.684923E-17
4.360000E+03	6.215045E-15	9.962739E-17
4.370000E+03	6.227326E-15	1.027421E-16
4.380000E+03	6.238037E-15	1.061145E-16
4.390000E+03	6.246219E-15	1.096560E-16
4.400000E+03	6.253706E-15	1.133348E-16
4.410000E+03	6.259571E-15	1.170805E-16
4.420000E+03	6.263830E-15	1.208476E-16
4.430000E+03	6.265585E-15	1.245807E-16
4.440000E+03	6.266733E-15	1.282868E-16
4.450000E+03	6.266402E-15	1.319253E-16
4.460000E+03	6.263733E-15	1.354594E-16
4.470000E+03	6.260650E-15	1.389165E-16
4.480000E+03	6.256310E-15	1.422690E-16
4.490000E+03	6.249878E-15	1.454905E-16
4.500000E+03	6.243288E-15	1.486209E-16
4.510000E+03	6.234795E-15	1.516163E-16
4.520000E+03	6.226330E-15	1.545220E-16
4.530000E+03	6.216161E-15	1.572950E-16
4.540000E+03	6.206213E-15	1.599839E-16
4.550000E+03	6.194764E-15	1.625456E-16
4.560000E+03	6.183733E-15	1.650315E-16
4.570000E+03	6.171405E-15	1.673977E-16
4.580000E+03	6.158790E-15	1.696724E-16
4.590000E+03	6.146887E-15	1.718853E-16
4.600000E+03	6.133993E-15	1.739912E-16
4.610000E+03	6.121106E-15	1.760194E-16
4.620000E+03	6.109210E-15	1.780005E-16
4.630000E+03	6.096608E-15	1.798874E-16
4.640000E+03	6.084279E-15	1.817099E-16
4.650000E+03	6.072300E-15	1.834721E-16
4.660000E+03	6.060742E-15	1.851778E-16
4.670000E+03	6.050547E-15	1.868574E-16
4.680000E+03	6.040002E-15	1.884595E-16
4.690000E+03	6.030032E-15	1.900132E-16
4.700000E+03	6.020664E-15	1.915199E-16
4.710000E+03	6.011912E-15	1.929802E-16
4.720000E+03	6.003779E-15	1.943938E-16
4.730000E+03	5.996248E-15	1.957594E-16
4.740000E+03	5.989292E-15	1.970747E-16
4.750000E+03	5.982862E-15	1.983361E-16
4.760000E+03	5.976034E-15	1.995102E-16
4.770000E+03	5.970462E-15	2.006488E-16
4.780000E+03	5.965187E-15	2.017163E-16
4.790000E+03	5.960104E-15	2.027046E-16
4.800000E+03	5.955097E-15	2.036050E-16
4.810000E+03	5.949176E-15	2.043782E-16
4.820000E+03	5.943927E-15	2.050728E-16
4.830000E+03	5.938348E-15	2.056487E-16
4.840000E+03	5.931438E-15	2.060652E-16
4.850000E+03	5.924766E-15	2.063709E-16
4.860000E+03	5.917335E-15	2.065258E-16
4.870000E+03	5.908160E-15	2.064904E-16
4.880000E+03	5.898819E-15	2.063153E-16
4.890000E+03	5.887501E-15	2.059335E-16
4.900000E+03	5.875802E-15	2.053980E-16
4.910000E+03	5.861949E-15	2.046450E-16
4.920000E+03	5.847564E-15	2.037305E-16
4.930000E+03	5.830918E-15	2.025944E-16
4.940000E+03	5.812827E-15	2.012669E-16
4.950000E+03	5.794113E-15	1.997789E-16
4.960000E+03	5.773123E-15	1.980769E-16
4.970000E+03	5.750718E-15	1.961953E-16
4.980000E+03	5.726943E-15	1.941412E-16
4.990000E+03	5.701860E-15	1.919227E-16
5.000000E+03	5.676353E-15	1.895763E-16
5.010000E+03	5.648880E-15	1.870573E-16
5.020000E+03	5.620354E-15	1.844038E-16
5.030000E+03	5.590878E-15	1.816266E-16
5.040000E+03	5.560564E-15	1.787367E-16
5.050000E+03	5.529527E-15	1.757447E-16
5.060000E+03	5.497883E-15	1.726611E-16
5.070000E+03	5.465752E-15	1.694958E-16
5.080000E+03	5.433251E-15	1.662578E-16
5.090000E+03	5.400494E-15	1.629555E-16
5.100000E+03	5.366828E-15	1.595733E-16
5.110000E+03	5.333890E-15	1.561636E-16
5.120000E+03	5.301010E-15	1.527085E-16
5.130000E+03	5.268275E-15	1.492120E-16
5.140000E+03	5.235022E-15	1.456566E-16
5.150000E+03	5.202814E-15	1.420865E-16
5.160000E+03	5.170961E-15	1.384817E-16
5.170000E+03	5.138783E-15	1.348235E-16
5.180000E+03	5.107782E-15	1.311506E-16
5.190000E+03	5.076531E-15	1.274246E-16
5.200000E+03	5.046494E-15	1.236811E-16
5.210000E+03	5.016245E-15	1.198833E-16
5.220000E+03	4.987214E-15	1.160647E-16
5.230000E+03	4.957978E-15	1.121910E-16
5.240000E+03	4.929935E-15	1.082942E-16
5.250000E+03	4.901671E-15	1.043436E-16
5.260000E+03	4.873871E-15	1.003570E-16
5.270000E+03	4.847202E-15	9.635146E-17
5.280000E+03	4.820266E-15	9.230475E-17
5.290000E+03	4.793733E-15	8.823963E-17
5.300000E+03	4.767584E-15	8.416831E-17
5.310000E+03	4.741799E-15	8.010771E-17
5.320000E+03	4.716363E-15	7.608073E-17
5.330000E+03	4.691923E-15	7.212786E-17
5.340000E+03	4.667141E-15	6.826765E-17
5.350000E+03	4.642674E-15	6.456127E-17
5.360000E+03	4.618519E-15	6.107172E-17
5.370000E+03	4.594677E-15	5.787537E-17
5.380000E+03	4.571153E-15	5.506110E-17
5.390000E+03	4.547316E-15	5.271871E-17
5.400000E+03	4.524471E-15	5.096030E-17
5.410000E+03	4.501998E-15	4.986098E-17
5.420000E+03	4.479933E-15	4.947301E-17
5.430000E+03	4.458328E-15	4.980058E-17
5.440000E+03	4.437257E-15	5.079298E-17
5.450000E+03	4.416179E-15	5.235552E-17
5.460000E+03	4.396428E-15	5.439734E-17
5.470000E+03	4.377468E-15	5.680387E-17
5.480000E+03	4.358772E-15	5.946802E-17
5.490000E+03	4.341656E-15	6.232147E-17
5.500000E+03	4.324978E-15	6.527790E-17
5.510000E+03	4.310034E-15	6.830077E-17
5.520000E+03	4.295684E-15	7.132954E-17
5.530000E+03	4.283208E-15	7.435275E-17
5.540000E+03	4.271462E-15	7.732732E-17
5.550000E+03	4.261708E-15	8.025872E-17
5.560000E+03	4.252802E-15	8.311420E-17
5.570000E+03	4.245393E-15	8.589810E-17
5.580000E+03	4.240123E-15	8.861935E-17
5.590000E+03	4.235841E-15	9.125224E-17
5.600000E+03	4.233179E-15	9.380930E-17
5.610000E+03	4.232767E-15	9.630572E-17
5.620000E+03	4.233444E-15	9.871726E-17
5.630000E+03	4.235829E-15	1.010600E-16
5.640000E+03	4.239945E-15	1.033372E-16
5.650000E+03	4.245807E-15	1.055521E-16
5.660000E+03	4.253427E-15	1.077076E-16
5.670000E+03	4.262810E-15	1.098065E-16
5.680000E+03	4.273956E-15	1.118513E-16
5.690000E+03	4.286858E-15	1.138438E-16
5.700000E+03	4.301503E-15	1.157854E-16
5.710000E+03	4.317868E-15	1.176766E-16
5.720000E+03	4.335923E-15	1.195176E-16
5.730000E+03	4.355631E-15	1.213077E-16
5.740000E+03	4.376943E-15	1.230455E-16
5.750000E+03	4.399804E-15	1.247292E-16
5.760000E+03	4.424151E-15	1.263562E-16
5.770000E+03	4.449912E-15	1.279234E-16
5.780000E+03	4.476380E-15	1.294090E-16
5.790000E+03	4.504722E-15	1.308452E-16
5.800000E+03	4.534226E-15	1.322095E-16
5.810000E+03	4.564161E-15	1.334789E-16
5.820000E+03	4.595708E-15	1.346858E-16
5.830000E+03	4.628142E-15	1.358071E-16
5.840000E+03	4.660723E-15	1.368188E-16
5.850000E+03	4.694669E-15	1.377546E-16
5.860000E+03	4.728598E-15	1.385716E-16
5.870000E+03	4.763770E-15	1.393045E-16
5.880000E+03	4.798809E-15	1.399107E-16
5.890000E+03	4.835024E-15	1.404256E-16
5.900000E+03	4.871055E-15	1.408072E-16
5.910000E+03	4.908272E-15	1.410921E-16
5.920000E+03	4.945338E-15	1.412388E-16
5.930000E+03	4.983690E-15	1.412851E-16
5.940000E+03	5.022018E-15	1.411902E-16
5.950000E+03	5.061121E-15	1.409729E-16
5.960000E+03	5.101839E-15	1.406523E-16
5.970000E+03	5.142904E-15	1.401885E-16
5.980000E+03	5.185195E-15	1.396007E-16
5.990000E+03	5.228901E-15	1.388883E-16
6.000000E+03	5.274964E-15	1.380697E-16
6.010000E+03	5.322130E-15	1.371046E-16
6.020000E+03	5.371352E-15	1.360101E-16
6.030000E+03	5.422852E-15	1.347829E-16
6.040000E+03	5.476847E-15	1.334183E-16
6.050000E+03	5.533542E-15	1.319102E-16
6.060000E+03	5.593124E-15	1.302511E-16
6.070000E+03	5.656546E-15	1.284493E-16
6.080000E+03	5.722360E-15	1.264575E-16
6.090000E+03	5.791432E-15	1.242808E-16
6.100000E+03	5.863790E-15	1.219045E-16
6.110000E+03	5.939403E-15	1.193127E-16
6.120000E+03	6.017321E-15	1.164724E-16
6.130000E+03	6.099026E-15	1.134000E-16
6.140000E+03	6.183404E-15	1.100632E-16
6.150000E+03	6.270068E-15	1.064495E-16
6.160000E+03	6.358520E-15	1.025511E-16
6.170000E+03	6.448143E-15	9.836865E-17
6.180000E+03	6.538196E-15	9.391461E-17
6.190000E+03	6.627821E-15	8.921924E-17
6.200000E+03	6.715098E-15	8.432581E-17
6.210000E+03	6.800813E-15	7.934802E-17
6.220000E+03	6.882874E-15	7.440871E-17
6.230000E+03	6.960064E-15	6.970186E-17
6.240000E+03	7.030178E-15	6.548063E-17
6.250000E+03	7.094007E-15	6.209128E-17
6.260000E+03	7.149549E-15	5.988421E-17
6.270000E+03	7.195007E-15	5.916919E-17
6.280000E+03	7.232015E-15	6.013223E-17
6.290000E+03	7.258885E-15	6.269211E-17
6.300000E+03	7.278437E-15	6.662326E-17
6.310000E+03	7.290724E-15	7.159831E-17
6.320000E+03	7.295952E-15	7.729444E-17
6.330000E+03	7.297466E-15	8.347143E-17
6.340000E+03	7.294529E-15	8.990812E-17
6.350000E+03	7.290439E-15	9.648719E-17
6.360000E+03	7.284317E-15	1.030871E-16
6.370000E+03	7.279243E-15	1.096753E-16
6.380000E+03	7.274078E-15	1.161872E-16
6.390000E+03	7.270587E-15	1.226202E-16
6.400000E+03	7.270376E-15	1.289876E-16
6.410000E+03	7.271837E-15	1.352572E-16
6.420000E+03	7.277279E-15	1.414727E-16
6.430000E+03	7.284785E-15	1.476039E-16
6.440000E+03	7.295350E-15	1.536776E-16
6.450000E+03	7.309841E-15	1.597219E-16
6.460000E+03	7.325932E-15	1.656952E-16
6.470000E+03	7.344254E-15	1.716174E-16
6.480000E+03	7.364317E-15	1.774822E-16
6.490000E+03	7.386583E-15	1.833039E-16
6.500000E+03	7.408343E-15	1.890161E-16
6.510000E+03	7.429934E-15	1.946227E-16
6.520000E+03	7.450627E-15	2.000988E-16
6.530000E+03	7.470722E-15	2.054447E-16
6.540000E+03	7.487374E-15	2.105720E-16
6.550000E+03	7.500892E-15	2.154754E-16
6.560000E+03	7.510569E-15	2.201207E-16
6.570000E+03	7.515746E-15	2.244735E-16
6.580000E+03	7.515816E-15	2.285006E-16
6.590000E+03	7.510246E-15	2.321709E-16
6.600000E+03	7.498579E-15	2.354562E-16
6.610000E+03	7.480446E-15	2.383322E-16
6.620000E+03	7.456613E-15	2.408129E-16
6.630000E+03	7.424797E-15	2.428163E-16
6.640000E+03	7.385958E-15	2.443664E-16
6.650000E+03	7.340097E-15	2.454597E-16
6.660000E+03	7.287306E-15	2.460981E-16
6.670000E+03	7.226746E-15	2.462547E-16
6.680000E+03	7.160710E-15	2.460113E-16
6.690000E+03	7.088501E-15	2.453510E-16
6.700000E+03	7.010507E-15	2.442956E-16
6.710000E+03	6.927170E-15	2.428706E-16
6.720000E+03	6.838980E-15	2.411046E-16
6.730000E+03	6.746459E-15	2.390281E-16
6.740000E+03	6.650161E-15	2.366737E-16
6.750000E+03	6.550656E-15	2.340744E-16
6.760000E+03	6.447619E-15	2.312313E-16
6.770000E+03	6.343461E-15	2.282430E-16
6.780000E+03	6.237836E-15	2.251089E-16
6.790000E+03	6.131308E-15	2.218600E-16
6.800000E+03	6.024419E-15	2.185256E-16
6.810000E+03	5.916854E-15	2.151029E-16
6.820000E+03	5.810778E-15	2.116784E-16
6.830000E+03	5.705794E-15	2.082444E-16
6.840000E+03	5.602313E-15	2.048215E-16
6.850000E+03	5.499930E-15	2.014000E-16
6.860000E+03	5.400539E-15	1.980531E-16
6.870000E+03	5.303633E-15	1.947658E-16
6.880000E+03	5.208721E-15	1.915229E-16
6.890000E+03	5.117485E-15	1.883885E-16
6.900000E+03	5.029335E-15	1.853429E-16
6.910000E+03	4.943693E-15	1.823662E-16
6.920000E+03	4.862050E-15	1.795147E-16
6.930000E+03	4.783067E-15	1.767399E-16
6.940000E+03	4.708123E-15	1.740934E-16
6.950000E+03	4.635863E-15	1.715258E-16
6.960000E+03	4.567567E-15	1.690846E-16
6.970000E+03	4.502508E-15	1.667432E-16
6.980000E+03	4.439974E-15	1.644753E-16
6.990000E+03	4.381128E-15	1.623238E-16
7.000000E+03	4.324606E-15	1.602379E-16
7.010000E+03	4.271509E-15	1.582581E-16
7.020000E+03	4.220484E-15	1.563337E-16
7.030000E+03	4.171997E-15	1.544814E-16
7.040000E+03	4.126479E-15	1.527164E-16
7.050000E+03	4.082604E-15	1.509890E-16
7.060000E+03	4.041380E-15	1.493355E-16
7.070000E+03	4.001505E-15	1.477068E-16
7.080000E+03	3.963406E-15	1.461179E-16
7.090000E+03	3.927494E-15	1.445829E-16
7.100000E+03	3.892513E-15	1.430546E-16
7.110000E+03	3.858890E-15	1.415477E-16
7.120000E+03	3.827042E-15	1.400767E-16
7.130000E+03	3.795761E-15	1.385966E-16
7.140000E+03	3.765487E-15	1.371227E-16
7.150000E+03	3.736646E-15	1.356699E-16
7.160000E+03	3.708085E-15	1.341959E-16
7.170000E+03	3.680252E-15	1.327167E-16
7.180000E+03	3.653072E-15	1.312294E-16
7.190000E+03	3.626992E-15	1.297498E-16
7.200000E+03	3.600918E-15	1.282389E-16
7.210000E+03	3.575313E-15	1.267134E-16
7.220000E+03	3.550131E-15	1.251720E-16
7.230000E+03	3.525328E-15	1.236133E-16
7.240000E+03	3.500868E-15	1.220363E-16
7.250000E+03	3.477212E-15	1.204575E-16
7.260000E+03	3.453341E-15	1.188414E-16
7.270000E+03	3.429727E-15	1.172050E-16
7.280000E+03	3.406351E-15	1.155476E-16
7.290000E+03	3.383196E-15	1.138688E-16
7.300000E+03	3.360248E-15	1.121681E-16
7.310000E+03	3.337497E-15	1.104451E-16
7.320000E+03	3.314937E-15	1.086995E-16
7.330000E+03	3.292563E-15	1.069307E-16
7.340000E+03	3.270375E-15	1.051386E-16
7.350000E+03	3.248375E-15	1.033228E-16
7.360000E+03	3.226569E-15	1.014830E-16
7.370000E+03	3.204965E-15	9.961915E-17
7.380000E+03	3.183575E-15	9.773092E-17
7.390000E+03	3.162413E-15	9.581822E-17
7.400000E+03	3.141496E-15	9.388093E-17
7.410000E+03	3.120842E-15	9.191890E-17
7.420000E+03	3.100472E-15	8.993196E-17
7.430000E+03	3.079968E-15	8.790729E-17
7.440000E+03	3.060238E-15	8.586994E-17
7.450000E+03	3.040861E-15	8.380655E-17
7.460000E+03	3.021863E-15	8.171646E-17
7.470000E+03	3.003268E-15	7.959878E-17
7.480000E+03	2.985101E-15	7.745246E-17
7.490000E+03	2.966958E-15	7.526547E-17
7.500000E+03	2.949714E-15	7.305834E-17
7.510000E+03	2.932962E-15	7.081855E-17
7.520000E+03	2.916719E-15	6.854473E-17
7.530000E+03	2.900585E-15	6.622626E-17
7.540000E+03	2.885406E-15	6.388170E-17
7.550000E+03	2.870774E-15	6.150116E-17
7.560000E+03	2.856287E-15	5.907706E-17
7.570000E+03	2.842770E-15	5.662902E-17
7.580000E+03	2.829813E-15	5.415240E-17
7.590000E+03	2.817007E-15	5.164651E-17
7.600000E+03	2.805158E-15	4.913656E-17
7.610000E+03	2.793450E-15	4.662237E-17
7.620000E+03	2.782674E-15	4.413745E-17
7.630000E+03	2.772411E-15	4.170134E-17
7.640000E+03	2.762246E-15	3.934344E-17
7.650000E+03	2.752955E-15	3.712050E-17
7.660000E+03	2.743718E-15	3.507774E-17
7.670000E+03	2.735303E-15	3.329280E-17
7.680000E+03	2.726893E-15	3.183133E-17
7.690000E+03	2.719247E-15	3.077969E-17
7.700000E+03	2.711553E-15	3.019564E-17
7.710000E+03	2.704177E-15	3.012597E-17
7.720000E+03	2.697490E-15	3.057775E-17
7.730000E+03	2.690699E-15	3.150401E-17
7.740000E+03	2.684572E-15	3.284900E-17
7.750000E+03	2.678321E-15	3.452659E-17
7.760000E+03	2.672329E-15	3.646440E-17
