#wls	flux	fluxerr
1.583061E+03	1.494278E-01	1.043728E-02
1.622638E+03	1.518794E-01	1.015072E-02
1.662214E+03	1.543299E-01	9.850960E-03
1.701791E+03	1.568299E-01	9.542449E-03
1.741367E+03	1.593560E-01	9.225024E-03
1.780944E+03	1.619100E-01	8.900509E-03
1.820520E+03	1.645702E-01	8.575106E-03
1.860097E+03	1.673058E-01	8.249214E-03
1.899673E+03	1.700953E-01	7.924584E-03
1.939250E+03	1.729892E-01	7.607018E-03
1.978827E+03	1.758120E-01	7.293178E-03
2.018403E+03	1.784142E-01	6.983236E-03
2.057980E+03	1.805051E-01	6.674125E-03
2.097556E+03	1.818629E-01	6.367877E-03
2.137133E+03	1.828237E-01	6.085711E-03
2.176709E+03	1.838183E-01	5.845377E-03
2.216286E+03	1.850315E-01	5.652975E-03
2.255862E+03	1.865261E-01	5.509847E-03
2.295439E+03	1.884429E-01	5.417753E-03
2.335015E+03	1.910655E-01	5.379469E-03
2.374592E+03	1.945566E-01	5.393948E-03
2.414168E+03	1.989423E-01	5.456990E-03
2.453745E+03	2.041904E-01	5.563907E-03
2.493321E+03	2.100825E-01	5.706188E-03
2.532898E+03	2.161970E-01	5.871084E-03
2.572475E+03	2.217885E-01	6.038111E-03
2.612051E+03	2.258820E-01	6.181047E-03
2.651628E+03	2.284260E-01	6.298770E-03
2.691204E+03	2.301843E-01	6.409431E-03
2.730781E+03	2.316323E-01	6.518968E-03
2.770357E+03	2.330716E-01	6.628901E-03
2.809934E+03	2.345309E-01	6.733954E-03
2.849510E+03	2.360222E-01	6.829208E-03
2.889087E+03	2.374458E-01	6.907377E-03
2.928663E+03	2.387594E-01	6.963698E-03
2.968240E+03	2.399293E-01	6.994607E-03
2.978134E+03	2.402162E-01	6.998648E-03
2.988028E+03	2.404740E-01	7.000393E-03
2.997922E+03	2.407381E-01	7.000865E-03
3.007816E+03	2.409910E-01	6.999543E-03
3.017710E+03	2.412328E-01	6.996431E-03
3.027605E+03	2.414810E-01	6.992035E-03
3.037499E+03	2.417188E-01	6.985869E-03
3.047393E+03	2.419640E-01	6.978462E-03
3.057287E+03	2.422001E-01	6.969342E-03
3.067181E+03	2.424447E-01	6.959036E-03
3.077075E+03	2.426984E-01	6.947575E-03
3.086969E+03	2.429625E-01	6.935016E-03
3.096864E+03	2.432379E-01	6.921411E-03
3.106758E+03	2.435103E-01	6.906377E-03
3.116652E+03	2.438129E-01	6.890894E-03
3.126546E+03	2.441315E-01	6.874586E-03
3.136440E+03	2.444686E-01	6.857562E-03
3.146334E+03	2.448414E-01	6.840343E-03
3.156228E+03	2.452375E-01	6.822619E-03
3.166122E+03	2.456742E-01	6.804919E-03
3.176017E+03	2.461547E-01	6.787373E-03
3.185911E+03	2.466823E-01	6.770118E-03
3.195805E+03	2.472451E-01	6.752875E-03
3.205699E+03	2.478768E-01	6.736621E-03
3.215593E+03	2.485806E-01	6.721490E-03
3.225487E+03	2.493462E-01	6.707255E-03
3.235381E+03	2.501921E-01	6.694465E-03
3.245276E+03	2.511080E-01	6.682909E-03
3.255170E+03	2.521262E-01	6.673503E-03
3.265064E+03	2.532364E-01	6.666034E-03
3.274958E+03	2.544555E-01	6.661008E-03
3.284852E+03	2.557720E-01	6.658192E-03
3.294746E+03	2.572148E-01	6.658408E-03
3.304640E+03	2.587698E-01	6.661364E-03
3.314534E+03	2.604345E-01	6.667077E-03
3.324429E+03	2.622315E-01	6.676210E-03
3.334323E+03	2.641391E-01	6.688305E-03
3.344217E+03	2.661450E-01	6.703157E-03
3.354111E+03	2.682598E-01	6.721145E-03
3.364005E+03	2.704475E-01	6.741499E-03
3.373899E+03	2.726784E-01	6.763619E-03
3.383793E+03	2.749553E-01	6.787738E-03
3.393688E+03	2.772040E-01	6.812190E-03
3.403582E+03	2.793922E-01	6.836381E-03
3.413476E+03	2.814351E-01	6.858445E-03
3.423370E+03	2.832849E-01	6.877445E-03
3.433264E+03	2.848240E-01	6.890764E-03
3.443158E+03	2.859506E-01	6.896194E-03
3.453052E+03	2.865029E-01	6.890002E-03
3.462946E+03	2.864196E-01	6.870746E-03
3.472841E+03	2.856995E-01	6.838357E-03
3.482735E+03	2.844382E-01	6.795036E-03
3.492629E+03	2.827294E-01	6.742888E-03
3.502523E+03	2.806848E-01	6.684426E-03
3.512417E+03	2.783935E-01	6.621588E-03
3.522311E+03	2.759607E-01	6.556690E-03
3.532205E+03	2.734613E-01	6.491318E-03
3.542100E+03	2.709621E-01	6.426858E-03
3.551994E+03	2.685407E-01	6.364957E-03
3.561888E+03	2.662335E-01	6.306294E-03
3.571782E+03	2.640889E-01	6.251834E-03
3.581676E+03	2.621366E-01	6.202108E-03
3.591570E+03	2.604078E-01	6.157692E-03
3.601464E+03	2.589172E-01	6.118772E-03
3.611358E+03	2.576827E-01	6.085625E-03
3.621253E+03	2.566990E-01	6.057975E-03
3.631147E+03	2.559892E-01	6.036231E-03
3.641041E+03	2.555305E-01	6.019712E-03
3.650935E+03	2.553276E-01	6.008393E-03
3.660829E+03	2.553583E-01	6.001618E-03
3.670723E+03	2.556196E-01	5.999184E-03
3.680617E+03	2.560911E-01	6.000472E-03
3.690512E+03	2.567434E-01	6.004670E-03
3.700406E+03	2.575769E-01	6.011653E-03
3.710300E+03	2.585705E-01	6.020797E-03
3.720194E+03	2.596965E-01	6.031329E-03
3.730088E+03	2.609422E-01	6.042830E-03
3.739982E+03	2.623026E-01	6.055063E-03
3.749876E+03	2.637529E-01	6.067330E-03
3.759770E+03	2.652894E-01	6.079432E-03
3.769665E+03	2.668895E-01	6.090737E-03
3.779559E+03	2.685512E-01	6.101093E-03
3.789453E+03	2.702606E-01	6.110079E-03
3.799347E+03	2.720044E-01	6.117298E-03
3.809241E+03	2.737765E-01	6.122524E-03
3.819135E+03	2.755702E-01	6.125522E-03
3.829029E+03	2.773794E-01	6.126083E-03
3.838924E+03	2.791856E-01	6.123729E-03
3.848818E+03	2.809886E-01	6.118401E-03
3.858712E+03	2.827761E-01	6.109787E-03
3.868606E+03	2.845421E-01	6.097725E-03
3.878500E+03	2.862808E-01	6.082065E-03
3.888394E+03	2.879740E-01	6.062416E-03
3.898288E+03	2.896209E-01	6.038775E-03
3.908182E+03	2.912092E-01	6.010904E-03
3.918077E+03	2.927258E-01	5.978585E-03
3.927971E+03	2.941756E-01	5.941979E-03
3.937865E+03	2.955353E-01	5.900697E-03
3.947759E+03	2.967987E-01	5.854727E-03
3.957653E+03	2.979678E-01	5.804233E-03
3.967547E+03	2.990347E-01	5.749214E-03
3.977441E+03	2.999890E-01	5.689639E-03
3.987336E+03	3.008433E-01	5.625945E-03
3.997230E+03	3.015968E-01	5.558325E-03
4.007124E+03	3.022445E-01	5.486921E-03
4.017018E+03	3.028040E-01	5.412304E-03
4.026912E+03	3.032717E-01	5.334678E-03
4.036806E+03	3.036548E-01	5.254463E-03
4.046700E+03	3.039532E-01	5.171972E-03
4.056594E+03	3.041756E-01	5.087687E-03
4.066489E+03	3.043191E-01	5.001925E-03
4.076383E+03	3.043813E-01	4.915038E-03
4.086277E+03	3.043719E-01	4.827608E-03
4.096171E+03	3.042885E-01	4.740044E-03
4.106065E+03	3.041527E-01	4.653159E-03
4.115959E+03	3.039676E-01	4.567496E-03
4.125853E+03	3.037655E-01	4.484060E-03
4.135748E+03	3.035626E-01	4.403622E-03
4.145642E+03	3.033970E-01	4.327279E-03
4.155536E+03	3.032840E-01	4.255809E-03
4.165430E+03	3.032583E-01	4.190272E-03
4.175324E+03	3.033403E-01	4.131538E-03
4.185218E+03	3.035368E-01	4.080304E-03
4.195112E+03	3.038466E-01	4.037182E-03
4.205006E+03	3.042521E-01	4.002580E-03
4.214901E+03	3.047279E-01	3.976815E-03
4.224795E+03	3.052115E-01	3.959722E-03
4.234689E+03	3.056352E-01	3.951046E-03
4.244583E+03	3.059148E-01	3.950264E-03
4.254477E+03	3.059548E-01	3.956450E-03
4.264371E+03	3.056548E-01	3.968065E-03
4.274265E+03	3.049700E-01	3.984079E-03
4.284159E+03	3.039066E-01	4.003982E-03
4.294054E+03	3.024883E-01	4.027382E-03
4.303948E+03	3.007385E-01	4.053789E-03
4.313842E+03	2.986982E-01	4.082829E-03
4.323736E+03	2.964021E-01	4.114022E-03
4.333630E+03	2.938864E-01	4.146914E-03
4.343524E+03	2.911929E-01	4.181175E-03
4.353418E+03	2.883631E-01	4.216526E-03
4.363313E+03	2.854453E-01	4.252863E-03
4.373207E+03	2.824864E-01	4.290163E-03
4.383101E+03	2.795344E-01	4.328515E-03
4.392995E+03	2.766301E-01	4.368011E-03
4.402889E+03	2.738230E-01	4.408977E-03
4.412783E+03	2.711406E-01	4.451497E-03
4.422677E+03	2.686215E-01	4.495922E-03
4.432571E+03	2.662771E-01	4.542232E-03
4.442466E+03	2.641148E-01	4.590396E-03
4.452360E+03	2.621386E-01	4.640364E-03
4.462254E+03	2.603318E-01	4.691753E-03
4.472148E+03	2.586823E-01	4.744270E-03
4.482042E+03	2.571715E-01	4.797504E-03
4.491936E+03	2.557764E-01	4.850963E-03
4.501830E+03	2.544804E-01	4.904262E-03
4.511725E+03	2.532623E-01	4.956925E-03
4.521619E+03	2.521086E-01	5.008619E-03
4.531513E+03	2.510038E-01	5.058964E-03
4.541407E+03	2.499411E-01	5.107752E-03
4.551301E+03	2.489141E-01	5.154788E-03
4.561195E+03	2.479202E-01	5.199959E-03
4.571089E+03	2.469625E-01	5.243276E-03
4.580983E+03	2.460411E-01	5.284701E-03
4.590878E+03	2.451635E-01	5.324362E-03
4.600772E+03	2.443375E-01	5.362404E-03
4.610666E+03	2.435733E-01	5.399042E-03
4.620560E+03	2.428829E-01	5.434537E-03
4.630454E+03	2.422752E-01	5.469100E-03
4.640348E+03	2.417654E-01	5.503086E-03
4.650242E+03	2.413651E-01	5.536778E-03
4.660137E+03	2.410860E-01	5.570476E-03
4.670031E+03	2.409417E-01	5.604518E-03
4.679925E+03	2.409417E-01	5.639158E-03
4.689819E+03	2.411020E-01	5.674798E-03
4.699713E+03	2.414275E-01	5.711580E-03
4.709607E+03	2.419277E-01	5.749750E-03
4.719501E+03	2.425992E-01	5.789240E-03
4.729395E+03	2.434418E-01	5.830049E-03
4.739290E+03	2.444408E-01	5.871820E-03
4.749184E+03	2.455716E-01	5.913938E-03
4.759078E+03	2.468097E-01	5.955784E-03
4.768972E+03	2.481290E-01	5.996686E-03
4.778866E+03	2.494937E-01	6.035733E-03
4.788760E+03	2.508628E-01	6.071877E-03
4.798654E+03	2.521998E-01	6.104185E-03
4.808549E+03	2.534623E-01	6.131579E-03
4.818443E+03	2.546114E-01	6.153081E-03
4.828337E+03	2.556127E-01	6.167832E-03
4.838231E+03	2.564277E-01	6.174895E-03
4.848125E+03	2.570307E-01	6.173659E-03
4.858019E+03	2.573955E-01	6.163531E-03
4.867913E+03	2.575109E-01	6.144298E-03
4.877807E+03	2.573609E-01	6.115663E-03
4.887702E+03	2.569426E-01	6.077661E-03
4.897596E+03	2.562662E-01	6.030665E-03
4.907490E+03	2.553436E-01	5.975102E-03
4.917384E+03	2.541971E-01	5.911649E-03
4.927278E+03	2.528558E-01	5.841153E-03
4.937172E+03	2.513542E-01	5.764585E-03
4.947066E+03	2.497212E-01	5.682775E-03
4.956961E+03	2.479869E-01	5.596574E-03
4.966855E+03	2.461812E-01	5.506815E-03
4.976749E+03	2.443305E-01	5.414240E-03
4.986643E+03	2.424491E-01	5.319308E-03
4.996537E+03	2.405551E-01	5.222555E-03
5.006431E+03	2.386601E-01	5.124361E-03
5.016325E+03	2.367732E-01	5.025052E-03
5.026219E+03	2.349057E-01	4.924991E-03
5.036114E+03	2.330672E-01	4.824492E-03
5.046008E+03	2.312656E-01	4.723838E-03
5.055902E+03	2.295146E-01	4.623414E-03
5.065796E+03	2.278301E-01	4.523642E-03
5.075690E+03	2.262279E-01	4.424920E-03
5.085584E+03	2.247213E-01	4.327589E-03
5.095478E+03	2.233201E-01	4.231905E-03
5.105373E+03	2.220367E-01	4.138168E-03
5.115267E+03	2.208699E-01	4.046419E-03
5.125161E+03	2.198199E-01	3.956727E-03
5.135055E+03	2.188802E-01	3.869056E-03
5.144949E+03	2.180430E-01	3.783364E-03
5.154843E+03	2.172921E-01	3.699484E-03
5.164737E+03	2.166166E-01	3.617380E-03
5.174631E+03	2.160042E-01	3.537016E-03
5.184526E+03	2.154465E-01	3.458456E-03
5.194420E+03	2.149298E-01	3.381710E-03
5.204314E+03	2.144491E-01	3.306959E-03
5.214208E+03	2.139989E-01	3.234403E-03
5.224102E+03	2.135738E-01	3.164276E-03
5.233996E+03	2.131670E-01	3.096815E-03
5.243890E+03	2.127773E-01	3.032370E-03
5.253785E+03	2.123936E-01	2.971169E-03
5.263679E+03	2.120074E-01	2.913510E-03
5.273573E+03	2.116106E-01	2.859709E-03
5.283467E+03	2.111906E-01	2.810042E-03
5.293361E+03	2.107315E-01	2.764747E-03
5.303255E+03	2.102175E-01	2.724062E-03
5.313149E+03	2.096324E-01	2.688202E-03
5.323043E+03	2.089614E-01	2.657375E-03
5.332938E+03	2.081849E-01	2.631674E-03
5.342832E+03	2.072918E-01	2.611239E-03
5.352726E+03	2.062749E-01	2.596052E-03
5.362620E+03	2.051377E-01	2.585851E-03
5.372514E+03	2.039019E-01	2.580470E-03
5.382408E+03	2.026155E-01	2.579997E-03
5.392302E+03	2.013193E-01	2.584404E-03
5.402196E+03	2.000504E-01	2.593615E-03
5.412091E+03	1.988412E-01	2.607511E-03
5.421985E+03	1.977195E-01	2.625946E-03
5.431879E+03	1.967021E-01	2.648669E-03
5.441773E+03	1.957992E-01	2.675379E-03
5.451667E+03	1.950136E-01	2.705714E-03
5.461561E+03	1.943339E-01	2.739154E-03
5.471455E+03	1.937507E-01	2.775227E-03
5.481350E+03	1.932458E-01	2.813357E-03
5.491244E+03	1.927960E-01	2.852914E-03
5.501138E+03	1.923795E-01	2.893287E-03
5.511032E+03	1.919793E-01	2.933947E-03
5.520926E+03	1.915730E-01	2.974291E-03
5.530820E+03	1.911505E-01	3.013911E-03
5.540714E+03	1.907018E-01	3.052410E-03
5.550608E+03	1.902254E-01	3.089543E-03
5.560503E+03	1.897290E-01	3.125232E-03
5.570397E+03	1.892254E-01	3.159513E-03
5.580291E+03	1.887333E-01	3.192544E-03
5.590185E+03	1.882740E-01	3.224566E-03
5.600079E+03	1.878701E-01	3.255870E-03
5.609973E+03	1.875437E-01	3.286763E-03
5.619867E+03	1.873146E-01	3.317542E-03
5.629762E+03	1.872013E-01	3.348495E-03
5.639656E+03	1.872167E-01	3.379832E-03
5.649550E+03	1.873691E-01	3.411678E-03
5.659444E+03	1.876674E-01	3.444182E-03
5.669338E+03	1.881166E-01	3.477420E-03
5.679232E+03	1.887206E-01	3.511445E-03
5.689126E+03	1.894828E-01	3.546297E-03
5.699020E+03	1.904043E-01	3.581969E-03
5.708915E+03	1.914913E-01	3.618542E-03
5.718809E+03	1.927433E-01	3.655965E-03
5.728703E+03	1.941601E-01	3.694183E-03
5.738597E+03	1.957387E-01	3.733080E-03
5.748491E+03	1.974747E-01	3.772501E-03
5.758385E+03	1.993536E-01	3.812091E-03
5.768279E+03	2.013646E-01	3.851552E-03
5.778174E+03	2.034837E-01	3.890327E-03
5.788068E+03	2.056900E-01	3.927917E-03
5.797962E+03	2.079515E-01	3.963605E-03
5.807856E+03	2.102309E-01	3.996575E-03
5.817750E+03	2.124926E-01	4.026061E-03
5.827644E+03	2.146894E-01	4.051079E-03
5.837538E+03	2.167777E-01	4.070745E-03
5.847432E+03	2.187114E-01	4.084158E-03
5.857327E+03	2.204444E-01	4.090443E-03
5.867221E+03	2.219392E-01	4.088937E-03
5.877115E+03	2.231597E-01	4.079041E-03
5.887009E+03	2.240775E-01	4.060345E-03
5.896903E+03	2.246803E-01	4.032776E-03
5.906797E+03	2.249596E-01	3.996368E-03
5.916691E+03	2.249170E-01	3.951371E-03
5.926586E+03	2.245792E-01	3.898497E-03
5.936480E+03	2.239700E-01	3.838427E-03
5.946374E+03	2.231346E-01	3.772201E-03
5.956268E+03	2.221154E-01	3.700801E-03
5.966162E+03	2.209666E-01	3.625383E-03
5.976056E+03	2.197399E-01	3.547025E-03
5.985950E+03	2.184919E-01	3.466849E-03
5.995844E+03	2.172735E-01	3.385836E-03
6.005739E+03	2.161372E-01	3.304950E-03
6.015633E+03	2.151250E-01	3.224945E-03
6.025527E+03	2.142852E-01	3.146634E-03
6.035421E+03	2.136496E-01	3.070542E-03
6.045315E+03	2.132486E-01	2.997154E-03
6.055209E+03	2.131140E-01	2.926958E-03
6.065103E+03	2.132609E-01	2.860203E-03
6.074998E+03	2.137087E-01	2.797210E-03
6.084892E+03	2.144671E-01	2.738192E-03
6.094786E+03	2.155422E-01	2.683363E-03
6.104680E+03	2.169333E-01	2.632912E-03
6.114574E+03	2.186315E-01	2.587007E-03
6.124468E+03	2.206116E-01	2.545736E-03
6.134362E+03	2.228415E-01	2.509239E-03
6.144256E+03	2.252619E-01	2.477504E-03
6.154151E+03	2.277933E-01	2.450483E-03
6.164045E+03	2.303350E-01	2.428083E-03
6.173939E+03	2.327533E-01	2.410039E-03
6.183833E+03	2.348853E-01	2.395936E-03
6.193727E+03	2.365465E-01	2.385219E-03
6.203621E+03	2.375670E-01	2.377451E-03
6.213515E+03	2.378418E-01	2.372687E-03
6.223410E+03	2.374527E-01	2.372552E-03
6.233304E+03	2.365699E-01	2.379111E-03
6.243198E+03	2.353854E-01	2.393850E-03
6.253092E+03	2.340807E-01	2.417803E-03
6.262986E+03	2.328125E-01	2.451694E-03
6.272880E+03	2.317162E-01	2.496063E-03
6.282774E+03	2.308930E-01	2.551200E-03
6.292668E+03	2.304248E-01	2.617332E-03
6.302563E+03	2.303648E-01	2.694536E-03
6.312457E+03	2.307566E-01	2.782946E-03
6.322351E+03	2.316219E-01	2.882594E-03
6.332245E+03	2.329788E-01	2.993604E-03
6.342139E+03	2.348295E-01	3.116021E-03
6.352033E+03	2.371665E-01	3.249845E-03
6.361927E+03	2.399716E-01	3.394987E-03
6.371822E+03	2.432151E-01	3.551226E-03
6.381716E+03	2.468555E-01	3.718153E-03
6.391610E+03	2.508425E-01	3.895189E-03
6.401504E+03	2.551069E-01	4.081392E-03
6.411398E+03	2.595883E-01	4.275852E-03
6.421292E+03	2.642065E-01	4.477227E-03
6.431186E+03	2.688794E-01	4.684005E-03
6.441080E+03	2.735335E-01	4.894673E-03
6.450975E+03	2.780757E-01	5.107238E-03
6.460869E+03	2.824326E-01	5.319898E-03
6.470763E+03	2.865278E-01	5.530674E-03
6.480657E+03	2.902838E-01	5.737431E-03
6.490551E+03	2.936260E-01	5.937962E-03
6.500445E+03	2.964867E-01	6.130084E-03
6.510339E+03	2.988036E-01	6.311623E-03
6.520234E+03	3.005145E-01	6.480328E-03
6.530128E+03	3.015794E-01	6.634349E-03
6.540022E+03	3.019597E-01	6.771831E-03
6.549916E+03	3.016379E-01	6.891373E-03
6.559810E+03	3.006201E-01	6.992130E-03
6.569704E+03	2.989139E-01	7.073342E-03
6.579598E+03	2.965575E-01	7.135045E-03
6.589492E+03	2.935911E-01	7.177421E-03
6.599387E+03	2.900729E-01	7.201204E-03
6.609281E+03	2.860653E-01	7.207355E-03
6.619175E+03	2.816319E-01	7.197005E-03
6.629069E+03	2.768511E-01	7.171782E-03
6.638963E+03	2.717859E-01	7.133058E-03
6.648857E+03	2.665130E-01	7.082672E-03
6.658751E+03	2.610951E-01	7.022216E-03
6.668645E+03	2.555967E-01	6.953429E-03
6.678540E+03	2.500672E-01	6.877715E-03
6.688434E+03	2.445670E-01	6.796869E-03
6.698328E+03	2.391343E-01	6.712126E-03
6.708222E+03	2.338079E-01	6.624785E-03
6.718116E+03	2.286279E-01	6.536220E-03
6.728010E+03	2.236130E-01	6.447228E-03
6.737904E+03	2.187957E-01	6.359020E-03
6.747799E+03	2.141893E-01	6.272261E-03
6.757693E+03	2.098152E-01	6.187858E-03
6.767587E+03	2.056767E-01	6.106182E-03
6.777481E+03	2.017905E-01	6.028004E-03
6.787375E+03	1.981588E-01	5.953642E-03
6.797269E+03	1.947807E-01	5.883320E-03
6.807163E+03	1.916589E-01	5.817344E-03
6.817057E+03	1.887914E-01	5.755865E-03
6.826952E+03	1.861716E-01	5.698879E-03
6.836846E+03	1.837990E-01	5.646540E-03
6.846740E+03	1.816600E-01	5.598592E-03
6.856634E+03	1.797470E-01	5.554939E-03
6.866528E+03	1.780460E-01	5.515259E-03
6.876422E+03	1.765465E-01	5.479336E-03
6.886316E+03	1.752350E-01	5.446824E-03
6.896211E+03	1.740967E-01	5.417340E-03
6.906105E+03	1.731140E-01	5.390386E-03
6.915999E+03	1.722711E-01	5.365510E-03
6.925893E+03	1.715538E-01	5.342300E-03
6.935787E+03	1.709446E-01	5.320235E-03
6.945681E+03	1.704232E-01	5.298691E-03
6.955575E+03	1.699712E-01	5.277113E-03
6.965469E+03	1.695730E-01	5.255018E-03
6.975364E+03	1.692080E-01	5.231775E-03
6.985258E+03	1.688584E-01	5.206843E-03
6.995152E+03	1.685071E-01	5.179699E-03
7.005046E+03	1.681372E-01	5.149848E-03
7.014940E+03	1.677355E-01	5.116908E-03
7.024834E+03	1.672826E-01	5.080316E-03
7.034728E+03	1.667685E-01	5.039820E-03
7.044623E+03	1.661845E-01	4.995200E-03
7.054517E+03	1.655255E-01	4.946377E-03
7.064411E+03	1.647910E-01	4.893400E-03
7.074305E+03	1.639817E-01	4.836378E-03
7.084199E+03	1.631076E-01	4.775680E-03
7.094093E+03	1.621762E-01	4.711622E-03
7.103987E+03	1.612028E-01	4.644721E-03
7.113881E+03	1.601984E-01	4.575382E-03
7.123776E+03	1.591775E-01	4.504085E-03
7.133670E+03	1.581537E-01	4.431288E-03
7.143564E+03	1.571424E-01	4.357473E-03
7.153458E+03	1.561499E-01	4.282865E-03
7.163352E+03	1.551906E-01	4.207895E-03
7.173246E+03	1.542670E-01	4.132663E-03
7.183140E+03	1.533869E-01	4.057402E-03
7.193035E+03	1.525511E-01	3.982153E-03
7.202929E+03	1.517632E-01	3.907027E-03
7.212823E+03	1.510220E-01	3.832011E-03
7.222717E+03	1.503198E-01	3.756927E-03
7.232611E+03	1.496560E-01	3.681788E-03
7.242505E+03	1.490235E-01	3.606451E-03
7.252399E+03	1.484090E-01	3.530643E-03
7.262293E+03	1.478052E-01	3.454255E-03
7.272188E+03	1.472023E-01	3.377138E-03
7.282082E+03	1.465908E-01	3.299178E-03
7.291976E+03	1.459604E-01	3.220263E-03
7.301870E+03	1.453069E-01	3.140444E-03
7.311764E+03	1.446254E-01	3.059777E-03
7.321658E+03	1.439107E-01	2.978329E-03
7.331552E+03	1.431614E-01	2.896269E-03
7.341447E+03	1.423772E-01	2.813811E-03
7.351341E+03	1.415568E-01	2.731158E-03
7.361235E+03	1.407041E-01	2.648640E-03
7.371129E+03	1.398195E-01	2.566528E-03
7.381023E+03	1.389108E-01	2.485254E-03
7.390917E+03	1.379773E-01	2.405105E-03
7.400811E+03	1.370278E-01	2.326559E-03
7.410705E+03	1.360620E-01	2.249957E-03
7.420600E+03	1.350888E-01	2.175813E-03
7.430494E+03	1.341118E-01	2.104578E-03
7.440388E+03	1.331317E-01	2.036684E-03
7.450282E+03	1.321513E-01	1.972618E-03
7.460176E+03	1.311754E-01	1.912926E-03
7.470070E+03	1.302052E-01	1.858113E-03
7.479964E+03	1.292462E-01	1.808760E-03
7.489859E+03	1.282997E-01	1.765384E-03
7.499753E+03	1.273711E-01	1.728545E-03
7.509647E+03	1.264617E-01	1.698710E-03
7.519541E+03	1.255794E-01	1.676386E-03
7.529435E+03	1.247243E-01	1.661900E-03
7.539329E+03	1.239036E-01	1.655587E-03
7.549223E+03	1.231208E-01	1.657605E-03
7.559117E+03	1.223861E-01	1.667913E-03
7.569012E+03	1.217012E-01	1.686183E-03
7.578906E+03	1.210753E-01	1.712128E-03
7.588800E+03	1.205075E-01	1.745285E-03
7.598694E+03	1.200019E-01	1.785246E-03
7.608588E+03	1.195592E-01	1.831556E-03
7.618482E+03	1.191810E-01	1.883794E-03
7.628376E+03	1.188616E-01	1.941456E-03
7.638271E+03	1.186010E-01	2.004154E-03
7.648165E+03	1.183967E-01	2.071504E-03
7.658059E+03	1.182464E-01	2.143156E-03
7.667953E+03	1.181496E-01	2.218836E-03
7.677847E+03	1.180993E-01	2.298185E-03
