#wls	flux	fluxerr
1.583061E+03	1.459094E-01	1.040181E-02
1.622638E+03	1.483693E-01	1.015592E-02
1.662214E+03	1.508476E-01	9.898868E-03
1.701791E+03	1.533714E-01	9.633464E-03
1.741367E+03	1.559443E-01	9.361012E-03
1.780944E+03	1.585950E-01	9.084527E-03
1.820520E+03	1.613239E-01	8.805517E-03
1.860097E+03	1.641228E-01	8.525438E-03
1.899673E+03	1.670441E-01	8.249303E-03
1.939250E+03	1.700234E-01	7.976673E-03
1.978827E+03	1.729281E-01	7.705307E-03
2.018403E+03	1.755800E-01	7.432845E-03
2.057980E+03	1.776834E-01	7.154200E-03
2.097556E+03	1.791253E-01	6.873785E-03
2.137133E+03	1.801226E-01	6.608059E-03
2.176709E+03	1.811318E-01	6.377149E-03
2.216286E+03	1.823253E-01	6.187527E-03
2.255862E+03	1.837852E-01	6.041699E-03
2.295439E+03	1.857121E-01	5.944448E-03
2.335015E+03	1.882993E-01	5.897751E-03
2.374592E+03	1.917380E-01	5.903189E-03
2.414168E+03	1.960843E-01	5.958498E-03
2.453745E+03	2.012528E-01	6.057917E-03
2.493321E+03	2.070288E-01	6.192794E-03
2.532898E+03	2.129582E-01	6.348320E-03
2.572475E+03	2.182767E-01	6.501304E-03
2.612051E+03	2.219889E-01	6.622127E-03
2.651628E+03	2.241218E-01	6.711507E-03
2.691204E+03	2.253708E-01	6.787601E-03
2.730781E+03	2.262980E-01	6.861155E-03
2.770357E+03	2.272347E-01	6.936319E-03
2.809934E+03	2.282945E-01	7.011424E-03
2.849510E+03	2.294784E-01	7.082103E-03
2.889087E+03	2.306894E-01	7.141672E-03
2.928663E+03	2.319447E-01	7.187673E-03
2.968240E+03	2.331882E-01	7.216137E-03
2.978134E+03	2.334822E-01	7.219857E-03
2.988028E+03	2.337978E-01	7.223062E-03
2.997922E+03	2.341165E-01	7.225165E-03
3.007816E+03	2.344387E-01	7.226165E-03
3.017710E+03	2.347649E-01	7.226075E-03
3.027605E+03	2.350955E-01	7.224900E-03
3.037499E+03	2.354315E-01	7.222674E-03
3.047393E+03	2.357737E-01	7.219414E-03
3.057287E+03	2.361407E-01	7.215701E-03
3.067181E+03	2.365160E-01	7.211031E-03
3.077075E+03	2.369009E-01	7.205452E-03
3.086969E+03	2.373142E-01	7.199549E-03
3.096864E+03	2.377402E-01	7.192856E-03
3.106758E+03	2.381979E-01	7.185960E-03
3.116652E+03	2.386890E-01	7.178930E-03
3.126546E+03	2.391992E-01	7.171354E-03
3.136440E+03	2.397472E-01	7.163814E-03
3.146334E+03	2.403523E-01	7.156903E-03
3.156228E+03	2.409844E-01	7.149746E-03
3.166122E+03	2.416792E-01	7.143429E-03
3.176017E+03	2.424072E-01	7.137100E-03
3.185911E+03	2.432209E-01	7.132330E-03
3.195805E+03	2.440908E-01	7.128281E-03
3.205699E+03	2.450210E-01	7.125100E-03
3.215593E+03	2.460475E-01	7.123859E-03
3.225487E+03	2.471422E-01	7.123768E-03
3.235381E+03	2.483405E-01	7.125881E-03
3.245276E+03	2.496298E-01	7.129864E-03
3.255170E+03	2.510298E-01	7.136307E-03
3.265064E+03	2.525270E-01	7.144857E-03
3.274958E+03	2.541396E-01	7.156065E-03
3.284852E+03	2.558834E-01	7.170413E-03
3.294746E+03	2.577426E-01	7.187487E-03
3.304640E+03	2.597301E-01	7.207696E-03
3.314534E+03	2.618410E-01	7.230944E-03
3.324429E+03	2.640671E-01	7.257064E-03
3.334323E+03	2.664127E-01	7.286232E-03
3.344217E+03	2.688608E-01	7.318049E-03
3.354111E+03	2.713904E-01	7.352029E-03
3.364005E+03	2.739879E-01	7.387897E-03
3.373899E+03	2.766175E-01	7.424795E-03
3.383793E+03	2.792640E-01	7.462440E-03
3.393688E+03	2.818419E-01	7.498689E-03
3.403582E+03	2.843131E-01	7.532695E-03
3.413476E+03	2.866108E-01	7.562877E-03
3.423370E+03	2.886391E-01	7.586905E-03
3.433264E+03	2.903002E-01	7.602443E-03
3.443158E+03	2.914800E-01	7.606745E-03
3.453052E+03	2.920248E-01	7.596011E-03
3.462946E+03	2.919020E-01	7.569494E-03
3.472841E+03	2.910972E-01	7.526854E-03
3.482735E+03	2.897073E-01	7.470601E-03
3.492629E+03	2.878268E-01	7.403127E-03
3.502523E+03	2.855831E-01	7.327639E-03
3.512417E+03	2.830653E-01	7.246323E-03
3.522311E+03	2.803700E-01	7.161531E-03
3.532205E+03	2.775747E-01	7.075113E-03
3.542100E+03	2.747702E-01	6.989242E-03
3.551994E+03	2.720037E-01	6.904969E-03
3.561888E+03	2.693456E-01	6.823935E-03
3.571782E+03	2.668349E-01	6.746973E-03
3.581676E+03	2.645120E-01	6.674961E-03
3.591570E+03	2.623892E-01	6.608057E-03
3.601464E+03	2.605115E-01	6.547254E-03
3.611358E+03	2.588681E-01	6.492136E-03
3.621253E+03	2.574817E-01	6.443129E-03
3.631147E+03	2.563502E-01	6.400046E-03
3.641041E+03	2.554764E-01	6.362818E-03
3.650935E+03	2.548416E-01	6.330846E-03
3.660829E+03	2.544579E-01	6.304296E-03
3.670723E+03	2.543003E-01	6.282418E-03
3.680617E+03	2.543587E-01	6.264833E-03
3.690512E+03	2.546140E-01	6.250940E-03
3.700406E+03	2.550541E-01	6.240320E-03
3.710300E+03	2.556597E-01	6.232376E-03
3.720194E+03	2.564270E-01	6.226898E-03
3.730088E+03	2.573296E-01	6.223123E-03
3.739982E+03	2.583571E-01	6.220690E-03
3.749876E+03	2.594994E-01	6.219243E-03
3.759770E+03	2.607468E-01	6.218447E-03
3.769665E+03	2.620768E-01	6.217657E-03
3.779559E+03	2.634949E-01	6.216911E-03
3.789453E+03	2.649735E-01	6.215462E-03
3.799347E+03	2.665120E-01	6.213217E-03
3.809241E+03	2.680979E-01	6.209798E-03
3.819135E+03	2.697243E-01	6.204977E-03
3.829029E+03	2.713849E-01	6.198543E-03
3.838924E+03	2.730673E-01	6.190156E-03
3.848818E+03	2.747587E-01	6.179478E-03
3.858712E+03	2.764592E-01	6.166477E-03
3.868606E+03	2.781566E-01	6.150852E-03
3.878500E+03	2.798383E-01	6.132315E-03
3.888394E+03	2.814980E-01	6.110725E-03
3.898288E+03	2.831294E-01	6.085961E-03
3.908182E+03	2.847200E-01	6.057782E-03
3.918077E+03	2.862574E-01	6.025976E-03
3.927971E+03	2.877418E-01	5.990607E-03
3.937865E+03	2.891609E-01	5.951506E-03
3.947759E+03	2.905109E-01	5.908692E-03
3.957653E+03	2.917820E-01	5.862086E-03
3.967547E+03	2.929672E-01	5.811687E-03
3.977441E+03	2.940664E-01	5.757660E-03
3.987336E+03	2.950872E-01	5.700326E-03
3.997230E+03	2.960219E-01	5.639730E-03
4.007124E+03	2.968697E-01	5.576074E-03
4.017018E+03	2.976476E-01	5.509905E-03
4.026912E+03	2.983508E-01	5.441382E-03
4.036806E+03	2.989801E-01	5.370783E-03
4.046700E+03	2.995459E-01	5.298583E-03
4.056594E+03	3.000480E-01	5.225079E-03
4.066489E+03	3.004904E-01	5.150666E-03
4.076383E+03	3.008782E-01	5.075781E-03
4.086277E+03	3.012078E-01	5.000729E-03
4.096171E+03	3.014934E-01	4.926141E-03
4.106065E+03	3.017476E-01	4.852631E-03
4.115959E+03	3.019812E-01	4.780800E-03
4.125853E+03	3.022095E-01	4.711331E-03
4.135748E+03	3.024638E-01	4.645168E-03
4.145642E+03	3.027572E-01	4.582975E-03
4.155536E+03	3.031163E-01	4.525633E-03
4.165430E+03	3.035547E-01	4.473832E-03
4.175324E+03	3.040885E-01	4.428313E-03
4.185218E+03	3.047106E-01	4.389493E-03
4.195112E+03	3.054245E-01	4.357954E-03
4.205006E+03	3.061952E-01	4.333749E-03
4.214901E+03	3.069845E-01	4.316890E-03
4.224795E+03	3.077258E-01	4.306992E-03
4.234689E+03	3.083530E-01	4.303659E-03
4.244583E+03	3.087608E-01	4.305897E-03
4.254477E+03	3.088526E-01	4.312618E-03
4.264371E+03	3.085292E-01	4.322211E-03
4.274265E+03	3.077508E-01	4.333685E-03
4.284159E+03	3.065218E-01	4.346551E-03
4.294054E+03	3.048956E-01	4.360914E-03
4.303948E+03	3.029129E-01	4.376631E-03
4.313842E+03	3.006162E-01	4.393509E-03
4.323736E+03	2.980599E-01	4.411517E-03
4.333630E+03	2.952886E-01	4.430490E-03
4.343524E+03	2.923433E-01	4.450250E-03
4.353418E+03	2.892778E-01	4.470865E-03
4.363313E+03	2.861345E-01	4.492299E-03
4.373207E+03	2.829611E-01	4.514673E-03
4.383101E+03	2.798121E-01	4.538305E-03
4.392995E+03	2.767249E-01	4.563337E-03
4.402889E+03	2.737419E-01	4.590073E-03
4.412783E+03	2.708925E-01	4.618687E-03
4.422677E+03	2.682005E-01	4.649328E-03
4.432571E+03	2.656819E-01	4.682079E-03
4.442466E+03	2.633436E-01	4.716909E-03
4.452360E+03	2.611850E-01	4.753691E-03
4.462254E+03	2.591987E-01	4.792198E-03
4.472148E+03	2.573724E-01	4.832131E-03
4.482042E+03	2.556874E-01	4.873072E-03
4.491936E+03	2.541268E-01	4.914635E-03
4.501830E+03	2.526762E-01	4.956482E-03
4.511725E+03	2.513161E-01	4.998174E-03
4.521619E+03	2.500349E-01	5.039416E-03
4.531513E+03	2.488204E-01	5.079909E-03
4.541407E+03	2.476601E-01	5.119340E-03
4.551301E+03	2.465532E-01	5.157637E-03
4.561195E+03	2.454905E-01	5.194560E-03
4.571089E+03	2.444794E-01	5.230223E-03
4.580983E+03	2.435161E-01	5.264511E-03
4.590878E+03	2.426069E-01	5.297535E-03
4.600772E+03	2.417626E-01	5.329511E-03
4.610666E+03	2.409867E-01	5.360508E-03
4.620560E+03	2.402925E-01	5.390820E-03
4.630454E+03	2.396899E-01	5.420680E-03
4.640348E+03	2.391871E-01	5.450280E-03
4.650242E+03	2.387968E-01	5.479931E-03
4.660137E+03	2.385321E-01	5.509954E-03
4.670031E+03	2.384014E-01	5.540568E-03
4.679925E+03	2.384125E-01	5.571975E-03
4.689819E+03	2.385795E-01	5.604527E-03
4.699713E+03	2.389051E-01	5.638310E-03
4.709607E+03	2.393941E-01	5.673449E-03
4.719501E+03	2.400448E-01	5.709909E-03
4.729395E+03	2.408508E-01	5.747541E-03
4.739290E+03	2.418037E-01	5.786132E-03
4.749184E+03	2.428823E-01	5.825154E-03
4.759078E+03	2.440580E-01	5.863889E-03
4.768972E+03	2.453039E-01	5.901656E-03
4.778866E+03	2.465892E-01	5.937671E-03
4.788760E+03	2.478758E-01	5.970967E-03
4.798654E+03	2.491278E-01	6.000635E-03
4.808549E+03	2.503094E-01	6.025772E-03
4.818443E+03	2.513826E-01	6.045428E-03
4.828337E+03	2.523137E-01	6.058775E-03
4.838231E+03	2.530724E-01	6.065077E-03
4.848125E+03	2.536325E-01	6.063722E-03
4.858019E+03	2.539701E-01	6.054165E-03
4.867913E+03	2.540747E-01	6.036214E-03
4.877807E+03	2.539319E-01	6.009603E-03
4.887702E+03	2.535447E-01	5.974493E-03
4.897596E+03	2.529122E-01	5.930986E-03
4.907490E+03	2.520524E-01	5.879629E-03
4.917384E+03	2.509809E-01	5.820933E-03
4.927278E+03	2.497216E-01	5.755603E-03
4.937172E+03	2.483040E-01	5.684479E-03
4.947066E+03	2.467559E-01	5.608348E-03
4.956961E+03	2.451040E-01	5.527973E-03
4.966855E+03	2.433706E-01	5.444011E-03
4.976749E+03	2.415833E-01	5.357220E-03
4.986643E+03	2.397564E-01	5.268059E-03
4.996537E+03	2.379111E-01	5.177124E-03
5.006431E+03	2.360607E-01	5.084833E-03
5.016325E+03	2.342142E-01	4.991502E-03
5.026219E+03	2.323848E-01	4.897530E-03
5.036114E+03	2.305835E-01	4.803260E-03
5.046008E+03	2.288212E-01	4.709032E-03
5.055902E+03	2.271111E-01	4.615212E-03
5.065796E+03	2.254631E-01	4.522101E-03
5.075690E+03	2.238974E-01	4.430187E-03
5.085584E+03	2.224190E-01	4.339645E-03
5.095478E+03	2.210417E-01	4.250821E-03
5.105373E+03	2.197701E-01	4.163868E-03
5.115267E+03	2.186089E-01	4.078944E-03
5.125161E+03	2.175549E-01	3.996061E-03
5.135055E+03	2.166054E-01	3.915250E-03
5.144949E+03	2.157501E-01	3.836422E-03
5.154843E+03	2.149817E-01	3.759558E-03
5.164737E+03	2.142897E-01	3.684604E-03
5.174631E+03	2.136611E-01	3.611490E-03
5.184526E+03	2.130885E-01	3.540265E-03
5.194420E+03	2.125631E-01	3.470984E-03
5.204314E+03	2.120753E-01	3.403705E-03
5.214208E+03	2.116202E-01	3.338598E-03
5.224102E+03	2.111922E-01	3.275831E-03
5.233996E+03	2.107852E-01	3.215592E-03
5.243890E+03	2.103900E-01	3.158043E-03
5.253785E+03	2.099995E-01	3.103395E-03
5.263679E+03	2.096067E-01	3.051877E-03
5.273573E+03	2.091993E-01	3.003657E-03
5.283467E+03	2.087676E-01	2.958946E-03
5.293361E+03	2.082961E-01	2.917877E-03
5.303255E+03	2.077729E-01	2.880632E-03
5.313149E+03	2.071813E-01	2.847311E-03
5.323043E+03	2.065042E-01	2.817986E-03
5.332938E+03	2.057329E-01	2.792807E-03
5.342832E+03	2.048541E-01	2.771818E-03
5.352726E+03	2.038609E-01	2.754987E-03
5.362620E+03	2.027611E-01	2.742164E-03
5.372514E+03	2.015717E-01	2.733219E-03
5.382408E+03	2.003336E-01	2.728290E-03
5.392302E+03	1.990828E-01	2.727432E-03
5.402196E+03	1.978542E-01	2.730683E-03
5.412091E+03	1.966746E-01	2.737982E-03
5.421985E+03	1.955690E-01	2.749263E-03
5.431879E+03	1.945520E-01	2.764342E-03
5.441773E+03	1.936330E-01	2.782988E-03
5.451667E+03	1.928158E-01	2.804923E-03
5.461561E+03	1.920955E-01	2.829763E-03
5.471455E+03	1.914581E-01	2.857011E-03
5.481350E+03	1.908947E-01	2.886262E-03
5.491244E+03	1.903865E-01	2.916972E-03
5.501138E+03	1.899136E-01	2.948591E-03
5.511032E+03	1.894628E-01	2.980675E-03
5.520926E+03	1.890155E-01	3.012704E-03
5.530820E+03	1.885664E-01	3.044373E-03
5.540714E+03	1.881056E-01	3.075317E-03
5.550608E+03	1.876343E-01	3.105365E-03
5.560503E+03	1.871577E-01	3.134429E-03
5.570397E+03	1.866868E-01	3.162534E-03
5.580291E+03	1.862366E-01	3.189802E-03
5.590185E+03	1.858253E-01	3.216428E-03
5.600079E+03	1.854739E-01	3.242685E-03
5.609973E+03	1.851996E-01	3.268798E-03
5.619867E+03	1.850236E-01	3.295087E-03
5.629762E+03	1.849557E-01	3.321678E-03
5.639656E+03	1.850139E-01	3.348860E-03
5.649550E+03	1.852064E-01	3.376752E-03
5.659444E+03	1.855387E-01	3.405428E-03
5.669338E+03	1.860203E-01	3.435032E-03
5.679232E+03	1.866516E-01	3.465548E-03
5.689126E+03	1.874395E-01	3.497071E-03
5.699020E+03	1.883846E-01	3.529575E-03
5.708915E+03	1.894881E-01	3.563043E-03
5.718809E+03	1.907502E-01	3.597427E-03
5.728703E+03	1.921688E-01	3.632635E-03
5.738597E+03	1.937417E-01	3.668559E-03
5.748491E+03	1.954592E-01	3.704945E-03
5.758385E+03	1.973102E-01	3.741500E-03
5.768279E+03	1.992791E-01	3.777846E-03
5.778174E+03	2.013462E-01	3.813511E-03
5.788068E+03	2.034870E-01	3.847937E-03
5.797962E+03	2.056723E-01	3.880480E-03
5.807856E+03	2.078690E-01	3.910418E-03
5.817750E+03	2.100398E-01	3.936968E-03
5.827644E+03	2.121428E-01	3.959273E-03
5.837538E+03	2.141385E-01	3.976546E-03
5.847432E+03	2.159857E-01	3.987990E-03
5.857327E+03	2.176405E-01	3.992797E-03
5.867221E+03	2.190719E-01	3.990432E-03
5.877115E+03	2.202480E-01	3.980379E-03
5.887009E+03	2.211441E-01	3.962295E-03
5.896903E+03	2.217485E-01	3.936114E-03
5.906797E+03	2.220555E-01	3.901903E-03
5.916691E+03	2.220744E-01	3.860028E-03
5.926586E+03	2.218189E-01	3.810949E-03
5.936480E+03	2.213196E-01	3.755429E-03
5.946374E+03	2.206135E-01	3.694334E-03
5.956268E+03	2.197439E-01	3.628630E-03
5.966162E+03	2.187544E-01	3.559261E-03
5.976056E+03	2.176998E-01	3.487332E-03
5.985950E+03	2.166268E-01	3.413776E-03
5.995844E+03	2.155901E-01	3.339619E-03
6.005739E+03	2.146333E-01	3.265666E-03
6.015633E+03	2.138052E-01	3.192770E-03
6.025527E+03	2.131418E-01	3.121549E-03
6.035421E+03	2.126805E-01	3.052618E-03
6.045315E+03	2.124538E-01	2.986494E-03
6.055209E+03	2.124867E-01	2.923572E-03
6.065103E+03	2.127987E-01	2.864172E-03
6.074998E+03	2.134039E-01	2.808552E-03
6.084892E+03	2.143130E-01	2.756949E-03
6.094786E+03	2.155300E-01	2.709556E-03
6.104680E+03	2.170516E-01	2.666528E-03
6.114574E+03	2.188623E-01	2.627951E-03
6.124468E+03	2.209377E-01	2.593902E-03
6.134362E+03	2.232342E-01	2.564353E-03
6.144256E+03	2.256951E-01	2.539267E-03
6.154151E+03	2.282361E-01	2.518448E-03
6.164045E+03	2.307541E-01	2.501651E-03
6.173939E+03	2.331197E-01	2.488492E-03
6.183833E+03	2.351848E-01	2.478500E-03
6.193727E+03	2.367879E-01	2.471111E-03
6.203621E+03	2.377860E-01	2.465924E-03
6.213515E+03	2.381017E-01	2.463069E-03
6.223410E+03	2.377947E-01	2.463858E-03
6.233304E+03	2.370138E-01	2.470172E-03
6.243198E+03	2.359261E-01	2.483400E-03
6.253092E+03	2.347004E-01	2.504629E-03
6.262986E+03	2.334844E-01	2.534669E-03
6.272880E+03	2.324033E-01	2.574120E-03
6.282774E+03	2.315663E-01	2.623492E-03
6.292668E+03	2.310494E-01	2.683058E-03
6.302563E+03	2.309139E-01	2.753056E-03
6.312457E+03	2.312035E-01	2.833671E-03
6.322351E+03	2.319475E-01	2.925047E-03
6.332245E+03	2.331626E-01	3.027298E-03
6.342139E+03	2.348515E-01	3.140459E-03
6.352033E+03	2.370090E-01	3.264538E-03
6.361927E+03	2.396195E-01	3.399448E-03
6.371822E+03	2.426562E-01	3.544976E-03
6.381716E+03	2.460820E-01	3.700750E-03
6.391610E+03	2.498485E-01	3.866196E-03
6.401504E+03	2.538970E-01	4.040523E-03
6.411398E+03	2.581660E-01	4.222810E-03
6.421292E+03	2.625808E-01	4.411819E-03
6.431186E+03	2.670649E-01	4.606161E-03
6.441080E+03	2.715391E-01	4.804271E-03
6.450975E+03	2.759232E-01	5.004433E-03
6.460869E+03	2.801320E-01	5.204700E-03
6.470763E+03	2.840922E-01	5.403211E-03
6.480657E+03	2.877259E-01	5.597896E-03
6.490551E+03	2.909592E-01	5.786640E-03
6.500445E+03	2.937220E-01	5.967293E-03
6.510339E+03	2.959581E-01	6.137891E-03
6.520234E+03	2.976044E-01	6.296255E-03
6.530128E+03	2.986271E-01	6.440754E-03
6.540022E+03	2.989905E-01	6.569689E-03
6.549916E+03	2.986771E-01	6.681747E-03
6.559810E+03	2.976843E-01	6.775960E-03
6.569704E+03	2.960295E-01	6.851853E-03
6.579598E+03	2.937433E-01	6.909330E-03
6.589492E+03	2.908627E-01	6.948530E-03
6.599387E+03	2.874378E-01	6.970004E-03
6.609281E+03	2.835345E-01	6.974797E-03
6.619175E+03	2.792095E-01	6.963854E-03
6.629069E+03	2.745331E-01	6.938569E-03
6.638963E+03	2.695773E-01	6.900505E-03
6.648857E+03	2.644018E-01	6.851022E-03
6.658751E+03	2.590810E-01	6.791959E-03
6.668645E+03	2.536684E-01	6.724715E-03
6.678540E+03	2.482197E-01	6.650813E-03
6.688434E+03	2.427911E-01	6.571873E-03
6.698328E+03	2.374214E-01	6.489099E-03
6.708222E+03	2.321528E-01	6.403836E-03
6.718116E+03	2.270192E-01	6.317237E-03
6.728010E+03	2.220493E-01	6.230342E-03
6.737904E+03	2.172672E-01	6.144078E-03
6.747799E+03	2.126955E-01	6.059344E-03
6.757693E+03	2.083441E-01	5.976688E-03
6.767587E+03	2.042307E-01	5.896876E-03
6.777481E+03	2.003613E-01	5.820328E-03
6.787375E+03	1.967411E-01	5.747445E-03
6.797269E+03	1.933728E-01	5.678532E-03
6.807163E+03	1.902565E-01	5.613811E-03
6.817057E+03	1.873930E-01	5.553501E-03
6.826952E+03	1.847757E-01	5.497592E-03
6.836846E+03	1.823985E-01	5.446072E-03
6.846740E+03	1.802561E-01	5.398926E-03
6.856634E+03	1.783337E-01	5.355845E-03
6.866528E+03	1.766252E-01	5.316755E-03
6.876422E+03	1.751156E-01	5.281304E-03
6.886316E+03	1.737915E-01	5.249165E-03
6.896211E+03	1.726387E-01	5.219972E-03
6.906105E+03	1.716419E-01	5.193323E-03
6.915999E+03	1.707880E-01	5.168853E-03
6.925893E+03	1.700555E-01	5.145947E-03
6.935787E+03	1.694300E-01	5.124186E-03
6.945681E+03	1.688962E-01	5.103129E-03
6.955575E+03	1.684318E-01	5.082104E-03
6.965469E+03	1.680188E-01	5.060583E-03
6.975364E+03	1.676446E-01	5.038190E-03
6.985258E+03	1.672870E-01	5.014268E-03
6.995152E+03	1.669319E-01	4.988403E-03
7.005046E+03	1.665632E-01	4.960134E-03
7.014940E+03	1.661639E-01	4.928976E-03
7.024834E+03	1.657209E-01	4.894569E-03
7.034728E+03	1.652256E-01	4.856705E-03
7.044623E+03	1.646678E-01	4.815128E-03
7.054517E+03	1.640430E-01	4.769766E-03
7.064411E+03	1.633504E-01	4.720661E-03
7.074305E+03	1.625951E-01	4.668031E-03
7.084199E+03	1.617784E-01	4.611987E-03
7.094093E+03	1.609114E-01	4.552926E-03
7.103987E+03	1.600024E-01	4.491158E-03
7.113881E+03	1.590683E-01	4.427232E-03
7.123776E+03	1.581145E-01	4.361364E-03
7.133670E+03	1.571581E-01	4.294090E-03
7.143564E+03	1.562082E-01	4.225719E-03
7.153458E+03	1.552776E-01	4.156640E-03
7.163352E+03	1.543703E-01	4.087006E-03
7.173246E+03	1.534957E-01	4.017100E-03
7.183140E+03	1.526564E-01	3.947026E-03
7.193035E+03	1.518579E-01	3.876951E-03
7.202929E+03	1.510989E-01	3.806870E-03
7.212823E+03	1.503807E-01	3.736843E-03
7.222717E+03	1.496960E-01	3.666716E-03
7.232611E+03	1.490420E-01	3.596466E-03
7.242505E+03	1.484125E-01	3.525985E-03
7.252399E+03	1.477975E-01	3.455095E-03
7.262293E+03	1.471885E-01	3.383674E-03
7.272188E+03	1.465791E-01	3.311662E-03
7.282082E+03	1.459564E-01	3.238876E-03
7.291976E+03	1.453151E-01	3.165329E-03
7.301870E+03	1.446468E-01	3.090981E-03
7.311764E+03	1.439490E-01	3.015943E-03
7.321658E+03	1.432138E-01	2.940234E-03
7.331552E+03	1.424416E-01	2.864063E-03
7.341447E+03	1.416295E-01	2.787586E-03
7.351341E+03	1.407778E-01	2.711045E-03
7.361235E+03	1.398880E-01	2.634715E-03
7.371129E+03	1.389643E-01	2.558941E-03
7.381023E+03	1.380053E-01	2.483973E-03
7.390917E+03	1.370209E-01	2.410284E-03
7.400811E+03	1.360104E-01	2.338170E-03
7.410705E+03	1.349801E-01	2.268060E-03
7.420600E+03	1.339338E-01	2.200358E-03
7.430494E+03	1.328773E-01	2.135513E-03
7.440388E+03	1.318119E-01	2.073912E-03
7.450282E+03	1.307429E-01	2.016022E-03
7.460176E+03	1.296736E-01	1.962282E-03
7.470070E+03	1.286075E-01	1.913137E-03
7.479964E+03	1.275485E-01	1.869035E-03
7.489859E+03	1.265004E-01	1.830407E-03
7.499753E+03	1.254692E-01	1.797693E-03
7.509647E+03	1.244573E-01	1.771242E-03
7.519541E+03	1.234712E-01	1.751418E-03
7.529435E+03	1.225141E-01	1.738477E-03
7.539329E+03	1.215939E-01	1.732673E-03
7.549223E+03	1.207167E-01	1.734125E-03
7.559117E+03	1.198893E-01	1.742721E-03
7.569012E+03	1.191180E-01	1.758250E-03
7.578906E+03	1.184092E-01	1.780467E-03
7.588800E+03	1.177683E-01	1.809097E-03
7.598694E+03	1.172003E-01	1.843857E-03
7.608588E+03	1.167114E-01	1.884500E-03
7.618482E+03	1.163015E-01	1.930698E-03
7.628376E+03	1.159769E-01	1.982263E-03
7.638271E+03	1.157340E-01	2.038874E-03
7.648165E+03	1.155667E-01	2.100189E-03
7.658059E+03	1.154680E-01	2.165879E-03
7.667953E+03	1.154316E-01	2.235634E-03
7.677847E+03	1.154511E-01	2.309171E-03
