#wls	flux	fluxerr
1.583061E+03	1.223038E-01	1.052523E-02
1.622638E+03	1.248027E-01	1.053761E-02
1.662214E+03	1.273711E-01	1.054798E-02
1.701791E+03	1.300355E-01	1.055855E-02
1.741367E+03	1.327955E-01	1.056924E-02
1.780944E+03	1.356694E-01	1.058156E-02
1.820520E+03	1.386144E-01	1.059224E-02
1.860097E+03	1.416219E-01	1.060098E-02
1.899673E+03	1.446617E-01	1.060599E-02
1.939250E+03	1.476481E-01	1.060179E-02
1.978827E+03	1.504651E-01	1.058138E-02
2.018403E+03	1.530097E-01	1.053938E-02
2.057980E+03	1.551723E-01	1.047059E-02
2.097556E+03	1.569783E-01	1.037933E-02
2.137133E+03	1.584466E-01	1.026928E-02
2.176709E+03	1.597678E-01	1.015438E-02
2.216286E+03	1.611716E-01	1.004979E-02
2.255862E+03	1.628332E-01	9.966237E-03
2.295439E+03	1.649342E-01	9.913882E-03
2.335015E+03	1.675423E-01	9.895200E-03
2.374592E+03	1.707403E-01	9.913328E-03
2.414168E+03	1.744818E-01	9.963865E-03
2.453745E+03	1.786471E-01	1.003859E-02
2.493321E+03	1.829881E-01	1.012273E-02
2.532898E+03	1.871233E-01	1.019519E-02
2.572475E+03	1.905896E-01	1.023175E-02
2.612051E+03	1.930074E-01	1.021400E-02
2.651628E+03	1.943431E-01	1.014257E-02
2.691204E+03	1.948541E-01	1.003275E-02
2.730781E+03	1.949466E-01	9.905791E-03
2.770357E+03	1.949564E-01	9.778220E-03
2.809934E+03	1.951117E-01	9.660377E-03
2.849510E+03	1.956213E-01	9.561169E-03
2.889087E+03	1.966127E-01	9.485154E-03
2.928663E+03	1.982102E-01	9.436520E-03
2.968240E+03	2.005535E-01	9.419972E-03
2.978134E+03	2.012753E-01	9.421519E-03
2.988028E+03	2.020622E-01	9.425770E-03
2.997922E+03	2.028904E-01	9.431573E-03
3.007816E+03	2.038127E-01	9.441353E-03
3.017710E+03	2.047799E-01	9.452780E-03
3.027605E+03	2.058194E-01	9.467092E-03
3.037499E+03	2.069334E-01	9.484341E-03
3.047393E+03	2.081240E-01	9.504581E-03
3.057287E+03	2.093935E-01	9.527872E-03
3.067181E+03	2.107697E-01	9.555433E-03
3.077075E+03	2.122042E-01	9.585016E-03
3.086969E+03	2.137504E-01	9.618996E-03
3.096864E+03	2.153857E-01	9.656289E-03
3.106758E+03	2.171127E-01	9.696967E-03
3.116652E+03	2.189598E-01	9.742240E-03
3.126546E+03	2.209041E-01	9.791034E-03
3.136440E+03	2.229741E-01	9.844549E-03
3.146334E+03	2.251726E-01	9.902842E-03
3.156228E+03	2.274764E-01	9.964828E-03
3.166122E+03	2.299136E-01	1.003168E-02
3.176017E+03	2.325125E-01	1.010455E-02
3.185911E+03	2.352229E-01	1.018119E-02
3.195805E+03	2.380720E-01	1.026271E-02
3.205699E+03	2.410868E-01	1.035018E-02
3.215593E+03	2.442407E-01	1.044240E-02
3.225487E+03	2.475328E-01	1.053926E-02
3.235381E+03	2.509870E-01	1.064168E-02
3.245276E+03	2.545726E-01	1.074830E-02
3.255170E+03	2.583378E-01	1.086108E-02
3.265064E+03	2.622210E-01	1.097734E-02
3.274958E+03	2.662656E-01	1.109885E-02
3.284852E+03	2.704045E-01	1.122272E-02
3.294746E+03	2.746750E-01	1.135048E-02
3.304640E+03	2.790293E-01	1.148008E-02
3.314534E+03	2.834697E-01	1.161159E-02
3.324429E+03	2.879667E-01	1.174378E-02
3.334323E+03	2.924852E-01	1.187520E-02
3.344217E+03	2.969837E-01	1.200418E-02
3.354111E+03	3.014155E-01	1.212888E-02
3.364005E+03	3.057269E-01	1.224720E-02
3.373899E+03	3.098866E-01	1.235798E-02
3.383793E+03	3.138294E-01	1.245873E-02
3.393688E+03	3.174847E-01	1.254681E-02
3.403582E+03	3.207776E-01	1.261945E-02
3.413476E+03	3.236316E-01	1.267388E-02
3.423370E+03	3.259965E-01	1.270842E-02
3.433264E+03	3.277687E-01	1.271932E-02
3.443158E+03	3.289014E-01	1.270512E-02
3.453052E+03	3.293215E-01	1.266336E-02
3.462946E+03	3.289824E-01	1.259264E-02
3.472841E+03	3.279083E-01	1.249425E-02
3.482735E+03	3.261034E-01	1.236869E-02
3.492629E+03	3.236446E-01	1.221924E-02
3.502523E+03	3.205973E-01	1.204864E-02
3.512417E+03	3.170359E-01	1.185997E-02
3.522311E+03	3.130410E-01	1.165646E-02
3.532205E+03	3.086935E-01	1.144131E-02
3.542100E+03	3.040955E-01	1.121844E-02
3.551994E+03	2.993214E-01	1.099069E-02
3.561888E+03	2.944405E-01	1.076067E-02
3.571782E+03	2.895161E-01	1.053071E-02
3.581676E+03	2.846047E-01	1.030286E-02
3.591570E+03	2.797558E-01	1.007889E-02
3.601464E+03	2.750302E-01	9.860940E-03
3.611358E+03	2.704452E-01	9.649538E-03
3.621253E+03	2.660474E-01	9.446266E-03
3.631147E+03	2.618436E-01	9.251257E-03
3.641041E+03	2.578841E-01	9.066171E-03
3.650935E+03	2.541656E-01	8.890762E-03
3.660829E+03	2.506976E-01	8.725229E-03
3.670723E+03	2.474856E-01	8.569632E-03
3.680617E+03	2.445324E-01	8.423931E-03
3.690512E+03	2.418512E-01	8.288436E-03
3.700406E+03	2.394260E-01	8.162462E-03
3.710300E+03	2.372651E-01	8.046152E-03
3.720194E+03	2.353500E-01	7.938746E-03
3.730088E+03	2.336856E-01	7.840274E-03
3.739982E+03	2.322518E-01	7.749941E-03
3.749876E+03	2.310513E-01	7.667709E-03
3.759770E+03	2.300741E-01	7.593129E-03
3.769665E+03	2.292995E-01	7.525409E-03
3.779559E+03	2.287281E-01	7.464461E-03
3.789453E+03	2.283493E-01	7.409837E-03
3.799347E+03	2.281524E-01	7.361100E-03
3.809241E+03	2.281175E-01	7.317514E-03
3.819135E+03	2.282346E-01	7.278687E-03
3.829029E+03	2.285125E-01	7.244823E-03
3.838924E+03	2.289133E-01	7.214659E-03
3.848818E+03	2.294463E-01	7.188425E-03
3.858712E+03	2.301017E-01	7.165769E-03
3.868606E+03	2.308622E-01	7.146099E-03
3.878500E+03	2.317196E-01	7.129129E-03
3.888394E+03	2.326662E-01	7.114594E-03
3.898288E+03	2.336948E-01	7.102253E-03
3.908182E+03	2.347991E-01	7.091893E-03
3.918077E+03	2.359730E-01	7.083325E-03
3.927971E+03	2.372035E-01	7.076153E-03
3.937865E+03	2.384862E-01	7.070254E-03
3.947759E+03	2.398252E-01	7.065756E-03
3.957653E+03	2.412095E-01	7.062353E-03
3.967547E+03	2.426368E-01	7.059997E-03
3.977441E+03	2.441055E-01	7.058662E-03
3.987336E+03	2.456070E-01	7.058135E-03
3.997230E+03	2.471409E-01	7.058443E-03
4.007124E+03	2.487144E-01	7.059827E-03
4.017018E+03	2.503137E-01	7.061943E-03
4.026912E+03	2.519468E-01	7.065064E-03
4.036806E+03	2.536080E-01	7.069086E-03
4.046700E+03	2.553056E-01	7.074297E-03
4.056594E+03	2.570282E-01	7.080438E-03
4.066489E+03	2.587843E-01	7.087814E-03
4.076383E+03	2.605763E-01	7.096557E-03
4.086277E+03	2.623936E-01	7.106448E-03
4.096171E+03	2.642510E-01	7.117971E-03
4.106065E+03	2.661309E-01	7.130726E-03
4.115959E+03	2.680472E-01	7.145176E-03
4.125853E+03	2.699929E-01	7.161222E-03
4.135748E+03	2.719592E-01	7.178727E-03
4.145642E+03	2.739481E-01	7.197839E-03
4.155536E+03	2.759453E-01	7.218291E-03
4.165430E+03	2.779322E-01	7.239712E-03
4.175324E+03	2.798988E-01	7.261956E-03
4.185218E+03	2.818111E-01	7.284273E-03
4.195112E+03	2.836479E-01	7.306246E-03
4.205006E+03	2.853766E-01	7.327177E-03
4.214901E+03	2.869472E-01	7.345925E-03
4.224795E+03	2.883239E-01	7.361727E-03
4.234689E+03	2.894567E-01	7.373450E-03
4.244583E+03	2.903020E-01	7.380126E-03
4.254477E+03	2.908136E-01	7.380716E-03
4.264371E+03	2.909663E-01	7.374648E-03
4.274265E+03	2.907355E-01	7.361258E-03
4.284159E+03	2.901331E-01	7.340777E-03
4.294054E+03	2.891682E-01	7.313345E-03
4.303948E+03	2.878790E-01	7.279822E-03
4.313842E+03	2.862888E-01	7.240672E-03
4.323736E+03	2.844341E-01	7.196678E-03
4.333630E+03	2.823481E-01	7.148534E-03
4.343524E+03	2.800786E-01	7.097291E-03
4.353418E+03	2.776489E-01	7.043392E-03
4.363313E+03	2.751054E-01	6.987854E-03
4.373207E+03	2.724789E-01	6.931310E-03
4.383101E+03	2.697987E-01	6.874360E-03
4.392995E+03	2.671049E-01	6.817886E-03
4.402889E+03	2.644168E-01	6.762253E-03
4.412783E+03	2.617641E-01	6.708100E-03
4.422677E+03	2.591685E-01	6.655869E-03
4.432571E+03	2.566410E-01	6.605741E-03
4.442466E+03	2.541970E-01	6.558020E-03
4.452360E+03	2.518524E-01	6.513031E-03
4.462254E+03	2.496088E-01	6.470739E-03
4.472148E+03	2.474768E-01	6.431349E-03
4.482042E+03	2.454563E-01	6.394798E-03
4.491936E+03	2.435498E-01	6.361089E-03
4.501830E+03	2.417547E-01	6.330108E-03
4.511725E+03	2.400737E-01	6.301875E-03
4.521619E+03	2.385024E-01	6.276231E-03
4.531513E+03	2.370391E-01	6.253093E-03
4.541407E+03	2.356854E-01	6.232464E-03
4.551301E+03	2.344332E-01	6.214099E-03
4.561195E+03	2.332813E-01	6.197932E-03
4.571089E+03	2.322320E-01	6.183998E-03
4.580983E+03	2.312849E-01	6.172254E-03
4.590878E+03	2.304338E-01	6.162515E-03
4.600772E+03	2.296823E-01	6.154849E-03
4.610666E+03	2.290340E-01	6.149332E-03
4.620560E+03	2.284808E-01	6.145726E-03
4.630454E+03	2.280323E-01	6.144271E-03
4.640348E+03	2.276804E-01	6.144727E-03
4.650242E+03	2.274280E-01	6.147157E-03
4.660137E+03	2.272746E-01	6.151529E-03
4.670031E+03	2.272188E-01	6.157786E-03
4.679925E+03	2.272551E-01	6.165762E-03
4.689819E+03	2.273826E-01	6.175414E-03
4.699713E+03	2.275931E-01	6.186503E-03
4.709607E+03	2.278798E-01	6.198821E-03
4.719501E+03	2.282313E-01	6.212041E-03
4.729395E+03	2.286428E-01	6.226014E-03
4.739290E+03	2.291022E-01	6.240390E-03
4.749184E+03	2.295907E-01	6.254635E-03
4.759078E+03	2.300987E-01	6.268473E-03
4.768972E+03	2.306098E-01	6.281436E-03
4.778866E+03	2.311071E-01	6.293050E-03
4.788760E+03	2.315727E-01	6.302812E-03
4.798654E+03	2.319918E-01	6.310312E-03
4.808549E+03	2.323468E-01	6.315060E-03
4.818443E+03	2.326233E-01	6.316666E-03
4.828337E+03	2.328057E-01	6.314709E-03
4.838231E+03	2.328797E-01	6.308807E-03
4.848125E+03	2.328360E-01	6.298721E-03
4.858019E+03	2.326642E-01	6.284190E-03
4.867913E+03	2.323540E-01	6.264962E-03
4.877807E+03	2.319087E-01	6.241159E-03
4.887702E+03	2.313207E-01	6.212608E-03
4.897596E+03	2.305931E-01	6.179441E-03
4.907490E+03	2.297319E-01	6.141862E-03
4.917384E+03	2.287427E-01	6.100072E-03
4.927278E+03	2.276331E-01	6.054330E-03
4.937172E+03	2.264125E-01	6.004942E-03
4.947066E+03	2.250926E-01	5.952276E-03
4.956961E+03	2.236881E-01	5.896782E-03
4.966855E+03	2.222144E-01	5.838921E-03
4.976749E+03	2.206802E-01	5.778985E-03
4.986643E+03	2.191045E-01	5.717525E-03
4.996537E+03	2.175011E-01	5.654957E-03
5.006431E+03	2.158808E-01	5.591616E-03
5.016325E+03	2.142591E-01	5.527953E-03
5.026219E+03	2.126513E-01	5.464408E-03
5.036114E+03	2.110641E-01	5.401199E-03
5.046008E+03	2.095132E-01	5.338768E-03
5.055902E+03	2.080063E-01	5.277346E-03
5.065796E+03	2.065544E-01	5.217250E-03
5.075690E+03	2.051652E-01	5.158704E-03
5.085584E+03	2.038428E-01	5.101841E-03
5.095478E+03	2.025944E-01	5.046866E-03
5.105373E+03	2.014255E-01	4.993945E-03
5.115267E+03	2.003340E-01	4.943045E-03
5.125161E+03	1.993224E-01	4.894256E-03
5.135055E+03	1.983899E-01	4.847582E-03
5.144949E+03	1.975342E-01	4.802992E-03
5.154843E+03	1.967539E-01	4.760480E-03
5.164737E+03	1.960403E-01	4.719864E-03
5.174631E+03	1.953920E-01	4.681143E-03
5.184526E+03	1.948007E-01	4.644151E-03
5.194420E+03	1.942593E-01	4.608758E-03
5.204314E+03	1.937623E-01	4.574876E-03
5.214208E+03	1.932977E-01	4.542267E-03
5.224102E+03	1.928613E-01	4.510880E-03
5.233996E+03	1.924426E-01	4.480520E-03
5.243890E+03	1.920349E-01	4.451087E-03
5.253785E+03	1.916254E-01	4.422344E-03
5.263679E+03	1.912095E-01	4.394243E-03
5.273573E+03	1.907767E-01	4.366605E-03
5.283467E+03	1.903186E-01	4.339304E-03
5.293361E+03	1.898276E-01	4.312227E-03
5.303255E+03	1.892965E-01	4.285277E-03
5.313149E+03	1.887192E-01	4.258378E-03
5.323043E+03	1.880928E-01	4.231521E-03
5.332938E+03	1.874098E-01	4.204598E-03
5.342832E+03	1.866724E-01	4.177711E-03
5.352726E+03	1.858771E-01	4.150802E-03
5.362620E+03	1.850301E-01	4.123960E-03
5.372514E+03	1.841355E-01	4.097210E-03
5.382408E+03	1.832010E-01	4.070651E-03
5.392302E+03	1.822409E-01	4.044529E-03
5.402196E+03	1.812641E-01	4.018967E-03
5.412091E+03	1.802795E-01	3.994083E-03
5.421985E+03	1.793008E-01	3.970107E-03
5.431879E+03	1.783352E-01	3.947122E-03
5.441773E+03	1.773890E-01	3.925189E-03
5.451667E+03	1.764703E-01	3.904421E-03
5.461561E+03	1.755864E-01	3.884904E-03
5.471455E+03	1.747395E-01	3.866620E-03
5.481350E+03	1.739345E-01	3.849612E-03
5.491244E+03	1.731703E-01	3.833790E-03
5.501138E+03	1.724522E-01	3.819213E-03
5.511032E+03	1.717802E-01	3.805819E-03
5.520926E+03	1.711560E-01	3.793594E-03
5.530820E+03	1.705835E-01	3.782569E-03
5.540714E+03	1.700637E-01	3.772715E-03
5.550608E+03	1.696016E-01	3.764097E-03
5.560503E+03	1.691997E-01	3.756723E-03
5.570397E+03	1.688629E-01	3.750659E-03
5.580291E+03	1.685986E-01	3.746026E-03
5.590185E+03	1.684113E-01	3.742885E-03
5.600079E+03	1.683075E-01	3.741345E-03
5.609973E+03	1.682942E-01	3.741520E-03
5.619867E+03	1.683779E-01	3.743523E-03
5.629762E+03	1.685667E-01	3.747499E-03
5.639656E+03	1.688631E-01	3.753470E-03
5.649550E+03	1.692753E-01	3.761586E-03
5.659444E+03	1.698041E-01	3.771827E-03
5.669338E+03	1.704535E-01	3.784254E-03
5.679232E+03	1.712248E-01	3.798858E-03
5.689126E+03	1.721158E-01	3.815557E-03
5.699020E+03	1.731255E-01	3.834297E-03
5.708915E+03	1.742481E-01	3.854912E-03
5.718809E+03	1.754787E-01	3.877258E-03
5.728703E+03	1.768051E-01	3.901034E-03
5.738597E+03	1.782198E-01	3.926040E-03
5.748491E+03	1.797079E-01	3.951915E-03
5.758385E+03	1.812524E-01	3.978254E-03
5.768279E+03	1.828376E-01	4.004686E-03
5.778174E+03	1.844443E-01	4.030768E-03
5.788068E+03	1.860502E-01	4.055991E-03
5.797962E+03	1.876333E-01	4.079869E-03
5.807856E+03	1.891715E-01	4.101909E-03
5.817750E+03	1.906405E-01	4.121590E-03
5.827644E+03	1.920224E-01	4.138536E-03
5.837538E+03	1.932933E-01	4.152251E-03
5.847432E+03	1.944353E-01	4.162378E-03
5.857327E+03	1.954331E-01	4.168633E-03
5.867221E+03	1.962754E-01	4.170821E-03
5.877115E+03	1.969549E-01	4.168846E-03
5.887009E+03	1.974674E-01	4.162685E-03
5.896903E+03	1.978155E-01	4.152464E-03
5.906797E+03	1.980091E-01	4.138471E-03
5.916691E+03	1.980576E-01	4.120978E-03
5.926586E+03	1.979809E-01	4.100488E-03
5.936480E+03	1.978018E-01	4.077551E-03
5.946374E+03	1.975431E-01	4.052719E-03
5.956268E+03	1.972385E-01	4.026757E-03
5.966162E+03	1.969183E-01	4.000356E-03
5.976056E+03	1.966164E-01	3.974268E-03
5.985950E+03	1.963672E-01	3.949244E-03
5.995844E+03	1.962028E-01	3.925982E-03
6.005739E+03	1.961601E-01	3.905261E-03
6.015633E+03	1.962680E-01	3.887696E-03
6.025527E+03	1.965526E-01	3.873837E-03
6.035421E+03	1.970422E-01	3.864271E-03
6.045315E+03	1.977565E-01	3.859414E-03
6.055209E+03	1.987084E-01	3.859546E-03
6.065103E+03	1.999099E-01	3.864943E-03
6.074998E+03	2.013626E-01	3.875677E-03
6.084892E+03	2.030581E-01	3.891639E-03
6.094786E+03	2.049850E-01	3.912685E-03
6.104680E+03	2.071166E-01	3.938391E-03
6.114574E+03	2.094159E-01	3.968159E-03
6.124468E+03	2.118355E-01	4.001216E-03
6.134362E+03	2.143238E-01	4.036737E-03
6.144256E+03	2.168119E-01	4.073587E-03
6.154151E+03	2.192316E-01	4.110671E-03
6.164045E+03	2.215044E-01	4.146705E-03
6.173939E+03	2.235530E-01	4.180444E-03
6.183833E+03	2.253012E-01	4.210651E-03
6.193727E+03	2.266924E-01	4.236453E-03
6.203621E+03	2.276798E-01	4.257135E-03
6.213515E+03	2.282516E-01	4.272606E-03
6.223410E+03	2.284326E-01	4.283433E-03
6.233304E+03	2.282752E-01	4.290667E-03
6.243198E+03	2.278536E-01	4.295701E-03
6.253092E+03	2.272583E-01	4.300102E-03
6.262986E+03	2.265774E-01	4.305387E-03
6.272880E+03	2.259003E-01	4.313110E-03
6.282774E+03	2.253137E-01	4.324798E-03
6.292668E+03	2.248930E-01	4.341799E-03
6.302563E+03	2.247030E-01	4.365294E-03
6.312457E+03	2.247989E-01	4.396319E-03
6.322351E+03	2.252191E-01	4.435618E-03
6.332245E+03	2.259965E-01	4.483863E-03
6.342139E+03	2.271476E-01	4.541430E-03
6.352033E+03	2.286750E-01	4.608444E-03
6.361927E+03	2.305755E-01	4.684920E-03
6.371822E+03	2.328354E-01	4.770675E-03
6.381716E+03	2.354272E-01	4.865230E-03
6.391610E+03	2.383164E-01	4.967964E-03
6.401504E+03	2.414608E-01	5.078060E-03
6.411398E+03	2.448130E-01	5.194570E-03
6.421292E+03	2.483147E-01	5.316277E-03
6.431186E+03	2.519043E-01	5.441853E-03
6.441080E+03	2.555213E-01	5.569935E-03
6.450975E+03	2.590979E-01	5.698961E-03
6.460869E+03	2.625641E-01	5.827255E-03
6.470763E+03	2.658565E-01	5.953241E-03
6.480657E+03	2.689072E-01	6.075181E-03
6.490551E+03	2.716524E-01	6.191375E-03
6.500445E+03	2.740320E-01	6.300164E-03
6.510339E+03	2.759960E-01	6.400067E-03
6.520234E+03	2.775015E-01	6.489744E-03
6.530128E+03	2.785085E-01	6.567879E-03
6.540022E+03	2.789895E-01	6.633442E-03
6.549916E+03	2.789326E-01	6.685756E-03
6.559810E+03	2.783277E-01	6.724191E-03
6.569704E+03	2.771809E-01	6.748511E-03
6.579598E+03	2.755051E-01	6.758667E-03
6.589492E+03	2.733186E-01	6.754771E-03
6.599387E+03	2.706580E-01	6.737406E-03
6.609281E+03	2.675572E-01	6.707137E-03
6.619175E+03	2.640619E-01	6.664867E-03
6.629069E+03	2.602187E-01	6.611558E-03
6.638963E+03	2.560780E-01	6.548326E-03
6.648857E+03	2.516906E-01	6.476333E-03
6.658751E+03	2.471090E-01	6.396833E-03
6.668645E+03	2.423836E-01	6.311073E-03
6.678540E+03	2.375668E-01	6.220387E-03
6.688434E+03	2.327047E-01	6.125985E-03
6.698328E+03	2.278414E-01	6.029049E-03
6.708222E+03	2.230137E-01	5.930606E-03
6.718116E+03	2.182628E-01	5.831819E-03
6.728010E+03	2.136155E-01	5.733484E-03
6.737904E+03	2.091045E-01	5.636573E-03
6.747799E+03	2.047484E-01	5.541693E-03
6.757693E+03	2.005717E-01	5.449612E-03
6.767587E+03	1.965902E-01	5.360872E-03
6.777481E+03	1.928115E-01	5.275794E-03
6.787375E+03	1.892493E-01	5.194860E-03
6.797269E+03	1.859072E-01	5.118278E-03
6.807163E+03	1.827906E-01	5.046300E-03
6.817057E+03	1.798980E-01	4.978981E-03
6.826952E+03	1.772277E-01	4.916366E-03
6.836846E+03	1.747782E-01	4.858496E-03
6.846740E+03	1.725417E-01	4.805235E-03
6.856634E+03	1.705130E-01	4.756506E-03
6.866528E+03	1.686813E-01	4.712070E-03
6.876422E+03	1.670365E-01	4.671702E-03
6.886316E+03	1.655695E-01	4.635191E-03
6.896211E+03	1.642659E-01	4.602180E-03
6.906105E+03	1.631127E-01	4.572338E-03
6.915999E+03	1.620961E-01	4.545311E-03
6.925893E+03	1.612017E-01	4.520723E-03
6.935787E+03	1.604151E-01	4.498188E-03
6.945681E+03	1.597214E-01	4.477308E-03
6.955575E+03	1.591057E-01	4.457688E-03
6.965469E+03	1.585535E-01	4.438936E-03
6.975364E+03	1.580488E-01	4.420618E-03
6.985258E+03	1.575800E-01	4.402427E-03
6.995152E+03	1.571325E-01	4.383975E-03
7.005046E+03	1.566949E-01	4.364958E-03
7.014940E+03	1.562586E-01	4.345163E-03
7.024834E+03	1.558109E-01	4.324260E-03
7.034728E+03	1.553465E-01	4.302125E-03
7.044623E+03	1.548595E-01	4.278630E-03
7.054517E+03	1.543440E-01	4.253641E-03
7.064411E+03	1.537976E-01	4.227130E-03
7.074305E+03	1.532195E-01	4.199114E-03
7.084199E+03	1.526103E-01	4.169648E-03
7.094093E+03	1.519701E-01	4.138779E-03
7.103987E+03	1.513036E-01	4.106682E-03
7.113881E+03	1.506108E-01	4.073404E-03
7.123776E+03	1.498999E-01	4.039212E-03
7.133670E+03	1.491700E-01	4.004127E-03
7.143564E+03	1.484294E-01	3.968426E-03
7.153458E+03	1.476807E-01	3.932226E-03
7.163352E+03	1.469282E-01	3.895689E-03
7.173246E+03	1.461734E-01	3.858907E-03
7.183140E+03	1.454174E-01	3.821962E-03
7.193035E+03	1.446660E-01	3.785051E-03
7.202929E+03	1.439165E-01	3.748164E-03
7.212823E+03	1.431676E-01	3.711317E-03
7.222717E+03	1.424223E-01	3.674644E-03
7.232611E+03	1.416739E-01	3.638031E-03
7.242505E+03	1.409238E-01	3.601578E-03
7.252399E+03	1.401661E-01	3.565193E-03
7.262293E+03	1.393994E-01	3.528908E-03
7.272188E+03	1.386187E-01	3.492667E-03
7.282082E+03	1.378191E-01	3.456412E-03
7.291976E+03	1.370005E-01	3.420222E-03
7.301870E+03	1.361547E-01	3.383966E-03
7.311764E+03	1.352825E-01	3.347738E-03
7.321658E+03	1.343782E-01	3.311478E-03
7.331552E+03	1.334433E-01	3.275303E-03
7.341447E+03	1.324750E-01	3.239221E-03
7.351341E+03	1.314726E-01	3.203297E-03
7.361235E+03	1.304363E-01	3.167608E-03
7.371129E+03	1.293666E-01	3.132245E-03
7.381023E+03	1.282666E-01	3.097351E-03
7.390917E+03	1.271348E-01	3.062958E-03
7.400811E+03	1.259768E-01	3.029265E-03
7.410705E+03	1.247922E-01	2.996325E-03
7.420600E+03	1.235875E-01	2.964344E-03
7.430494E+03	1.223633E-01	2.933387E-03
7.440388E+03	1.211266E-01	2.903667E-03
7.450282E+03	1.198803E-01	2.875289E-03
7.460176E+03	1.186306E-01	2.848434E-03
7.470070E+03	1.173808E-01	2.823211E-03
7.479964E+03	1.161393E-01	2.799840E-03
7.489859E+03	1.149084E-01	2.778396E-03
7.499753E+03	1.136969E-01	2.759100E-03
7.509647E+03	1.125106E-01	2.742107E-03
7.519541E+03	1.113541E-01	2.727535E-03
7.529435E+03	1.102353E-01	2.715581E-03
7.539329E+03	1.091622E-01	2.706411E-03
7.549223E+03	1.081401E-01	2.700092E-03
7.559117E+03	1.071758E-01	2.696740E-03
7.569012E+03	1.062766E-01	2.696480E-03
7.578906E+03	1.054524E-01	2.699524E-03
7.588800E+03	1.047076E-01	2.705953E-03
7.598694E+03	1.040507E-01	2.715963E-03
7.608588E+03	1.034879E-01	2.729715E-03
7.618482E+03	1.030262E-01	2.747390E-03
7.628376E+03	1.026656E-01	2.769015E-03
7.638271E+03	1.024071E-01	2.794641E-03
7.648165E+03	1.022426E-01	2.824080E-03
7.658059E+03	1.021630E-01	2.857114E-03
7.667953E+03	1.021595E-01	2.893532E-03
7.677847E+03	1.022206E-01	2.933030E-03
