#wls	flux	fluxerr
1.583061E+03	1.220494E-01	1.051580E-02
1.622638E+03	1.245470E-01	1.053005E-02
1.662214E+03	1.271140E-01	1.054235E-02
1.701791E+03	1.297768E-01	1.055485E-02
1.741367E+03	1.325348E-01	1.056750E-02
1.780944E+03	1.354060E-01	1.058174E-02
1.820520E+03	1.383475E-01	1.059431E-02
1.860097E+03	1.413504E-01	1.060486E-02
1.899673E+03	1.443843E-01	1.061158E-02
1.939250E+03	1.473638E-01	1.060900E-02
1.978827E+03	1.501738E-01	1.059013E-02
2.018403E+03	1.527127E-01	1.054964E-02
2.057980E+03	1.548729E-01	1.048242E-02
2.097556E+03	1.566809E-01	1.039283E-02
2.137133E+03	1.581550E-01	1.028445E-02
2.176709E+03	1.594841E-01	1.017117E-02
2.216286E+03	1.608971E-01	1.006811E-02
2.255862E+03	1.625687E-01	9.985984E-03
2.295439E+03	1.646792E-01	9.934948E-03
2.335015E+03	1.672953E-01	9.917411E-03
2.374592E+03	1.704980E-01	9.936450E-03
2.414168E+03	1.742402E-01	9.987606E-03
2.453745E+03	1.784019E-01	1.006263E-02
2.493321E+03	1.827359E-01	1.014677E-02
2.532898E+03	1.868637E-01	1.021900E-02
2.572475E+03	1.903275E-01	1.025532E-02
2.612051E+03	1.927532E-01	1.023752E-02
2.651628E+03	1.941071E-01	1.016623E-02
2.691204E+03	1.946417E-01	1.005654E-02
2.730781E+03	1.947591E-01	9.929607E-03
2.770357E+03	1.947935E-01	9.801947E-03
2.809934E+03	1.949727E-01	9.683957E-03
2.849510E+03	1.955065E-01	9.584626E-03
2.889087E+03	1.965233E-01	9.508597E-03
2.928663E+03	1.981487E-01	9.460135E-03
2.968240E+03	2.005235E-01	9.444004E-03
2.978134E+03	2.012538E-01	9.445700E-03
2.988028E+03	2.020497E-01	9.450122E-03
2.997922E+03	2.028869E-01	9.456111E-03
3.007816E+03	2.038188E-01	9.466104E-03
3.017710E+03	2.047957E-01	9.477761E-03
3.027605E+03	2.058454E-01	9.492325E-03
3.037499E+03	2.069699E-01	9.509848E-03
3.047393E+03	2.081713E-01	9.530385E-03
3.057287E+03	2.094520E-01	9.553996E-03
3.067181E+03	2.108398E-01	9.581901E-03
3.077075E+03	2.122862E-01	9.611848E-03
3.086969E+03	2.138448E-01	9.646216E-03
3.096864E+03	2.154927E-01	9.683920E-03
3.106758E+03	2.172328E-01	9.725031E-03
3.116652E+03	2.190932E-01	9.770759E-03
3.126546E+03	2.210513E-01	9.820028E-03
3.136440E+03	2.231353E-01	9.874039E-03
3.146334E+03	2.253481E-01	9.932848E-03
3.156228E+03	2.276664E-01	9.995366E-03
3.166122E+03	2.301185E-01	1.006277E-02
3.176017E+03	2.327324E-01	1.013620E-02
3.185911E+03	2.354579E-01	1.021342E-02
3.195805E+03	2.383222E-01	1.029551E-02
3.205699E+03	2.413520E-01	1.038358E-02
3.215593E+03	2.445210E-01	1.047639E-02
3.225487E+03	2.478279E-01	1.057382E-02
3.235381E+03	2.512965E-01	1.067682E-02
3.245276E+03	2.548963E-01	1.078401E-02
3.255170E+03	2.586751E-01	1.089733E-02
3.265064E+03	2.625709E-01	1.101411E-02
3.274958E+03	2.666276E-01	1.113610E-02
3.284852E+03	2.707774E-01	1.126042E-02
3.294746E+03	2.750575E-01	1.138857E-02
3.304640E+03	2.794198E-01	1.151849E-02
3.314534E+03	2.838669E-01	1.165027E-02
3.324429E+03	2.883689E-01	1.178266E-02
3.334323E+03	2.928904E-01	1.191419E-02
3.344217E+03	2.973902E-01	1.204321E-02
3.354111E+03	3.018210E-01	1.216784E-02
3.364005E+03	3.061294E-01	1.228600E-02
3.373899E+03	3.102842E-01	1.239652E-02
3.383793E+03	3.142203E-01	1.249693E-02
3.393688E+03	3.178674E-01	1.258459E-02
3.403582E+03	3.211515E-01	1.265676E-02
3.413476E+03	3.239957E-01	1.271065E-02
3.423370E+03	3.263515E-01	1.274464E-02
3.433264E+03	3.281152E-01	1.275497E-02
3.443158E+03	3.292407E-01	1.274023E-02
3.453052E+03	3.296558E-01	1.269797E-02
3.462946E+03	3.293143E-01	1.262679E-02
3.472841E+03	3.282402E-01	1.252799E-02
3.482735E+03	3.264372E-01	1.240205E-02
3.492629E+03	3.239814E-01	1.225222E-02
3.502523E+03	3.209373E-01	1.208124E-02
3.512417E+03	3.173795E-01	1.189216E-02
3.522311E+03	3.133870E-01	1.168819E-02
3.532205E+03	3.090409E-01	1.147253E-02
3.542100E+03	3.044429E-01	1.124910E-02
3.551994E+03	2.996668E-01	1.102071E-02
3.561888E+03	2.947821E-01	1.079000E-02
3.571782E+03	2.898517E-01	1.055927E-02
3.581676E+03	2.849323E-01	1.033061E-02
3.591570E+03	2.800739E-01	1.010579E-02
3.601464E+03	2.753369E-01	9.886929E-03
3.611358E+03	2.707387E-01	9.674587E-03
3.621253E+03	2.663267E-01	9.470364E-03
3.631147E+03	2.621075E-01	9.274388E-03
3.641041E+03	2.581318E-01	9.088337E-03
3.650935E+03	2.543961E-01	8.911960E-03
3.660829E+03	2.509105E-01	8.745475E-03
3.670723E+03	2.476807E-01	8.588947E-03
3.680617E+03	2.447097E-01	8.442342E-03
3.690512E+03	2.420106E-01	8.305976E-03
3.700406E+03	2.395678E-01	8.179164E-03
3.710300E+03	2.373895E-01	8.062056E-03
3.720194E+03	2.354575E-01	7.953890E-03
3.730088E+03	2.337764E-01	7.854700E-03
3.739982E+03	2.323266E-01	7.763691E-03
3.749876E+03	2.311104E-01	7.680823E-03
3.759770E+03	2.301180E-01	7.605648E-03
3.769665E+03	2.293287E-01	7.537371E-03
3.779559E+03	2.287431E-01	7.475906E-03
3.789453E+03	2.283505E-01	7.420802E-03
3.799347E+03	2.281403E-01	7.371620E-03
3.809241E+03	2.280924E-01	7.327623E-03
3.819135E+03	2.281970E-01	7.288417E-03
3.829029E+03	2.284625E-01	7.254203E-03
3.838924E+03	2.288515E-01	7.223717E-03
3.848818E+03	2.293727E-01	7.197188E-03
3.858712E+03	2.300166E-01	7.174261E-03
3.868606E+03	2.307658E-01	7.154345E-03
3.878500E+03	2.316121E-01	7.137150E-03
3.888394E+03	2.325477E-01	7.122411E-03
3.898288E+03	2.335655E-01	7.109887E-03
3.908182E+03	2.346591E-01	7.099362E-03
3.918077E+03	2.358224E-01	7.090647E-03
3.927971E+03	2.370424E-01	7.083346E-03
3.937865E+03	2.383148E-01	7.077336E-03
3.947759E+03	2.396436E-01	7.072743E-03
3.957653E+03	2.410178E-01	7.069261E-03
3.967547E+03	2.424351E-01	7.066840E-03
3.977441E+03	2.438938E-01	7.065453E-03
3.987336E+03	2.453854E-01	7.064889E-03
3.997230E+03	2.469095E-01	7.065168E-03
4.007124E+03	2.484730E-01	7.066533E-03
4.017018E+03	2.500624E-01	7.068636E-03
4.026912E+03	2.516853E-01	7.071749E-03
4.036806E+03	2.533361E-01	7.075762E-03
4.046700E+03	2.550231E-01	7.080964E-03
4.056594E+03	2.567345E-01	7.087088E-03
4.066489E+03	2.584790E-01	7.094441E-03
4.076383E+03	2.602587E-01	7.103146E-03
4.086277E+03	2.620626E-01	7.112972E-03
4.096171E+03	2.639058E-01	7.124411E-03
4.106065E+03	2.657707E-01	7.137064E-03
4.115959E+03	2.676705E-01	7.151369E-03
4.125853E+03	2.695983E-01	7.167236E-03
4.135748E+03	2.715462E-01	7.184540E-03
4.145642E+03	2.735147E-01	7.203401E-03
4.155536E+03	2.754900E-01	7.223557E-03
4.165430E+03	2.774543E-01	7.244651E-03
4.175324E+03	2.793968E-01	7.266521E-03
4.185218E+03	2.812847E-01	7.288437E-03
4.195112E+03	2.830965E-01	7.309980E-03
4.205006E+03	2.848003E-01	7.330457E-03
4.214901E+03	2.863467E-01	7.348747E-03
4.224795E+03	2.877011E-01	7.364101E-03
4.234689E+03	2.888142E-01	7.375406E-03
4.244583E+03	2.896425E-01	7.381693E-03
4.254477E+03	2.901420E-01	7.381970E-03
4.264371E+03	2.902870E-01	7.375650E-03
4.274265E+03	2.900538E-01	7.362087E-03
4.284159E+03	2.894539E-01	7.341506E-03
4.294054E+03	2.884955E-01	7.314030E-03
4.303948E+03	2.872163E-01	7.280504E-03
4.313842E+03	2.856387E-01	7.241375E-03
4.323736E+03	2.837990E-01	7.197428E-03
4.333630E+03	2.817291E-01	7.149325E-03
4.343524E+03	2.794765E-01	7.098121E-03
4.353418E+03	2.770641E-01	7.044246E-03
4.363313E+03	2.745380E-01	6.988719E-03
4.373207E+03	2.719285E-01	6.932164E-03
4.383101E+03	2.692653E-01	6.875191E-03
4.392995E+03	2.665874E-01	6.818663E-03
4.402889E+03	2.639145E-01	6.762955E-03
4.412783E+03	2.612763E-01	6.708709E-03
4.422677E+03	2.586946E-01	6.656374E-03
4.432571E+03	2.561800E-01	6.606121E-03
4.442466E+03	2.537482E-01	6.558265E-03
4.452360E+03	2.514150E-01	6.513127E-03
4.462254E+03	2.491822E-01	6.470679E-03
4.472148E+03	2.470601E-01	6.431119E-03
4.482042E+03	2.450493E-01	6.394405E-03
4.491936E+03	2.431519E-01	6.360529E-03
4.501830E+03	2.413654E-01	6.329378E-03
4.511725E+03	2.396927E-01	6.300979E-03
4.521619E+03	2.381293E-01	6.275170E-03
4.531513E+03	2.366737E-01	6.251874E-03
4.541407E+03	2.353273E-01	6.231092E-03
4.551301E+03	2.340823E-01	6.212581E-03
4.561195E+03	2.329375E-01	6.196277E-03
4.571089E+03	2.318950E-01	6.182211E-03
4.580983E+03	2.309545E-01	6.170343E-03
4.590878E+03	2.301099E-01	6.160488E-03
4.600772E+03	2.293646E-01	6.152712E-03
4.610666E+03	2.287223E-01	6.147091E-03
4.620560E+03	2.281747E-01	6.143386E-03
4.630454E+03	2.277317E-01	6.141837E-03
4.640348E+03	2.273847E-01	6.142202E-03
4.650242E+03	2.271370E-01	6.144542E-03
4.660137E+03	2.269878E-01	6.148825E-03
4.670031E+03	2.269358E-01	6.154992E-03
4.679925E+03	2.269754E-01	6.162879E-03
4.689819E+03	2.271057E-01	6.172438E-03
4.699713E+03	2.273185E-01	6.183432E-03
4.709607E+03	2.276069E-01	6.195652E-03
4.719501E+03	2.279596E-01	6.208771E-03
4.729395E+03	2.283718E-01	6.222640E-03
4.739290E+03	2.288316E-01	6.236914E-03
4.749184E+03	2.293198E-01	6.251051E-03
4.759078E+03	2.298270E-01	6.264777E-03
4.768972E+03	2.303374E-01	6.277641E-03
4.778866E+03	2.308333E-01	6.289148E-03
4.788760E+03	2.312978E-01	6.298823E-03
4.798654E+03	2.317156E-01	6.306237E-03
4.808549E+03	2.320693E-01	6.310912E-03
4.818443E+03	2.323447E-01	6.312461E-03
4.828337E+03	2.325262E-01	6.310461E-03
4.838231E+03	2.325998E-01	6.304537E-03
4.848125E+03	2.325558E-01	6.294443E-03
4.858019E+03	2.323841E-01	6.279926E-03
4.867913E+03	2.320748E-01	6.260739E-03
4.877807E+03	2.316308E-01	6.236996E-03
4.887702E+03	2.310447E-01	6.208531E-03
4.897596E+03	2.303196E-01	6.175475E-03
4.907490E+03	2.294614E-01	6.138025E-03
4.917384E+03	2.284754E-01	6.096381E-03
4.927278E+03	2.273695E-01	6.050801E-03
4.937172E+03	2.261531E-01	6.001596E-03
4.947066E+03	2.248375E-01	5.949121E-03
4.956961E+03	2.234376E-01	5.893831E-03
4.966855E+03	2.219684E-01	5.836179E-03
4.976749E+03	2.204392E-01	5.776469E-03
4.986643E+03	2.188682E-01	5.715234E-03
4.996537E+03	2.172695E-01	5.652893E-03
5.006431E+03	2.156539E-01	5.589782E-03
5.016325E+03	2.140372E-01	5.526361E-03
5.026219E+03	2.124337E-01	5.463046E-03
5.036114E+03	2.108510E-01	5.400071E-03
5.046008E+03	2.093044E-01	5.337874E-03
5.055902E+03	2.078016E-01	5.276686E-03
5.065796E+03	2.063538E-01	5.216823E-03
5.075690E+03	2.049685E-01	5.158508E-03
5.085584E+03	2.036499E-01	5.101875E-03
5.095478E+03	2.024052E-01	5.047128E-03
5.105373E+03	2.012399E-01	4.994434E-03
5.115267E+03	2.001518E-01	4.943759E-03
5.125161E+03	1.991435E-01	4.895193E-03
5.135055E+03	1.982142E-01	4.848738E-03
5.144949E+03	1.973616E-01	4.804365E-03
5.154843E+03	1.965844E-01	4.762067E-03
5.164737E+03	1.958737E-01	4.721660E-03
5.174631E+03	1.952282E-01	4.683144E-03
5.184526E+03	1.946395E-01	4.646350E-03
5.194420E+03	1.941006E-01	4.611149E-03
5.204314E+03	1.936061E-01	4.577451E-03
5.214208E+03	1.931438E-01	4.545017E-03
5.224102E+03	1.927095E-01	4.513796E-03
5.233996E+03	1.922928E-01	4.483591E-03
5.243890E+03	1.918870E-01	4.454303E-03
5.253785E+03	1.914793E-01	4.425692E-03
5.263679E+03	1.910650E-01	4.397711E-03
5.273573E+03	1.906337E-01	4.370179E-03
5.283467E+03	1.901771E-01	4.342969E-03
5.293361E+03	1.896875E-01	4.315971E-03
5.303255E+03	1.891579E-01	4.289086E-03
5.313149E+03	1.885822E-01	4.262238E-03
5.323043E+03	1.879573E-01	4.235418E-03
5.332938E+03	1.872761E-01	4.208519E-03
5.342832E+03	1.865406E-01	4.181641E-03
5.352726E+03	1.857473E-01	4.154727E-03
5.362620E+03	1.849025E-01	4.127870E-03
5.372514E+03	1.840102E-01	4.101091E-03
5.382408E+03	1.830779E-01	4.074489E-03
5.392302E+03	1.821199E-01	4.048309E-03
5.402196E+03	1.811450E-01	4.022672E-03
5.412091E+03	1.801619E-01	3.997698E-03
5.421985E+03	1.791843E-01	3.973615E-03
5.431879E+03	1.782195E-01	3.950506E-03
5.441773E+03	1.772735E-01	3.928436E-03
5.451667E+03	1.763547E-01	3.907517E-03
5.461561E+03	1.754703E-01	3.887838E-03
5.471455E+03	1.746226E-01	3.869383E-03
5.481350E+03	1.738166E-01	3.852195E-03
5.491244E+03	1.730512E-01	3.836190E-03
5.501138E+03	1.723317E-01	3.821426E-03
5.511032E+03	1.716583E-01	3.807847E-03
5.520926E+03	1.710327E-01	3.795438E-03
5.530820E+03	1.704588E-01	3.784232E-03
5.540714E+03	1.699378E-01	3.774202E-03
5.550608E+03	1.694745E-01	3.765415E-03
5.560503E+03	1.690717E-01	3.757879E-03
5.570397E+03	1.687341E-01	3.751662E-03
5.580291E+03	1.684692E-01	3.746883E-03
5.590185E+03	1.682813E-01	3.743605E-03
5.600079E+03	1.681771E-01	3.741937E-03
5.609973E+03	1.681634E-01	3.741991E-03
5.619867E+03	1.682468E-01	3.743882E-03
5.629762E+03	1.684354E-01	3.747755E-03
5.639656E+03	1.687315E-01	3.753629E-03
5.649550E+03	1.691435E-01	3.761656E-03
5.659444E+03	1.696719E-01	3.771814E-03
5.669338E+03	1.703210E-01	3.784166E-03
5.679232E+03	1.710918E-01	3.798701E-03
5.689126E+03	1.719820E-01	3.815337E-03
5.699020E+03	1.729910E-01	3.834020E-03
5.708915E+03	1.741126E-01	3.854581E-03
5.718809E+03	1.753418E-01	3.876879E-03
5.728703E+03	1.766666E-01	3.900608E-03
5.738597E+03	1.780794E-01	3.925571E-03
5.748491E+03	1.795652E-01	3.951404E-03
5.758385E+03	1.811069E-01	3.977701E-03
5.768279E+03	1.826889E-01	4.004093E-03
5.778174E+03	1.842919E-01	4.030135E-03
5.788068E+03	1.858936E-01	4.055318E-03
5.797962E+03	1.874721E-01	4.079157E-03
5.807856E+03	1.890052E-01	4.101159E-03
5.817750E+03	1.904688E-01	4.120805E-03
5.827644E+03	1.918450E-01	4.137719E-03
5.837538E+03	1.931099E-01	4.151407E-03
5.847432E+03	1.942456E-01	4.161514E-03
5.857327E+03	1.952372E-01	4.167757E-03
5.867221E+03	1.960732E-01	4.169943E-03
5.877115E+03	1.967466E-01	4.167979E-03
5.887009E+03	1.972531E-01	4.161842E-03
5.896903E+03	1.975956E-01	4.151660E-03
5.906797E+03	1.977840E-01	4.137720E-03
5.916691E+03	1.978276E-01	4.120299E-03
5.926586E+03	1.977466E-01	4.099898E-03
5.936480E+03	1.975637E-01	4.077068E-03
5.946374E+03	1.973017E-01	4.052360E-03
5.956268E+03	1.969944E-01	4.026540E-03
5.966162E+03	1.966721E-01	4.000299E-03
5.976056E+03	1.963685E-01	3.974386E-03
5.985950E+03	1.961180E-01	3.949554E-03
5.995844E+03	1.959528E-01	3.926500E-03
6.005739E+03	1.959097E-01	3.906002E-03
6.015633E+03	1.960175E-01	3.888675E-03
6.025527E+03	1.963025E-01	3.875068E-03
6.035421E+03	1.967926E-01	3.865767E-03
6.045315E+03	1.975077E-01	3.861189E-03
6.055209E+03	1.984606E-01	3.861614E-03
6.065103E+03	1.996634E-01	3.867315E-03
6.074998E+03	2.011175E-01	3.878363E-03
6.084892E+03	2.028146E-01	3.894651E-03
6.094786E+03	2.047432E-01	3.916031E-03
6.104680E+03	2.068767E-01	3.942076E-03
6.114574E+03	2.091781E-01	3.972187E-03
6.124468E+03	2.115998E-01	4.005586E-03
6.134362E+03	2.140903E-01	4.041442E-03
6.144256E+03	2.165805E-01	4.078617E-03
6.154151E+03	2.190024E-01	4.116008E-03
6.164045E+03	2.212772E-01	4.152321E-03
6.173939E+03	2.233275E-01	4.186304E-03
6.183833E+03	2.250767E-01	4.216709E-03
6.193727E+03	2.264682E-01	4.242652E-03
6.203621E+03	2.274547E-01	4.263408E-03
6.213515E+03	2.280244E-01	4.278884E-03
6.223410E+03	2.282024E-01	4.289647E-03
6.233304E+03	2.280414E-01	4.296761E-03
6.243198E+03	2.276162E-01	4.301626E-03
6.253092E+03	2.270174E-01	4.305824E-03
6.262986E+03	2.263335E-01	4.310881E-03
6.272880E+03	2.256542E-01	4.318361E-03
6.282774E+03	2.250660E-01	4.329796E-03
6.292668E+03	2.246445E-01	4.346542E-03
6.302563E+03	2.244545E-01	4.369782E-03
6.312457E+03	2.245510E-01	4.400555E-03
6.322351E+03	2.249725E-01	4.439607E-03
6.332245E+03	2.257516E-01	4.487609E-03
6.342139E+03	2.269049E-01	4.544938E-03
6.352033E+03	2.284350E-01	4.611717E-03
6.361927E+03	2.303384E-01	4.687958E-03
6.371822E+03	2.326015E-01	4.773478E-03
6.381716E+03	2.351966E-01	4.867796E-03
6.391610E+03	2.380892E-01	4.970286E-03
6.401504E+03	2.412371E-01	5.080129E-03
6.411398E+03	2.445927E-01	5.196377E-03
6.421292E+03	2.480978E-01	5.317811E-03
6.431186E+03	2.516904E-01	5.443091E-03
6.441080E+03	2.553107E-01	5.570871E-03
6.450975E+03	2.588900E-01	5.699568E-03
6.460869E+03	2.623592E-01	5.827527E-03
6.470763E+03	2.656541E-01	5.953152E-03
6.480657E+03	2.687077E-01	6.074727E-03
6.490551E+03	2.714554E-01	6.190540E-03
6.500445E+03	2.738378E-01	6.298942E-03
6.510339E+03	2.758048E-01	6.398457E-03
6.520234E+03	2.773136E-01	6.487746E-03
6.530128E+03	2.783240E-01	6.565497E-03
6.540022E+03	2.788086E-01	6.630683E-03
6.549916E+03	2.787558E-01	6.682634E-03
6.559810E+03	2.781554E-01	6.720726E-03
6.569704E+03	2.770133E-01	6.744717E-03
6.579598E+03	2.753421E-01	6.754558E-03
6.589492E+03	2.731610E-01	6.750377E-03
6.599387E+03	2.705055E-01	6.732743E-03
6.609281E+03	2.674102E-01	6.702235E-03
6.619175E+03	2.639200E-01	6.659738E-03
6.629069E+03	2.600821E-01	6.606232E-03
6.638963E+03	2.559462E-01	6.542811E-03
6.648857E+03	2.515635E-01	6.470653E-03
6.658751E+03	2.469861E-01	6.391001E-03
6.668645E+03	2.422647E-01	6.305105E-03
6.678540E+03	2.374514E-01	6.214294E-03
6.688434E+03	2.325926E-01	6.119781E-03
6.698328E+03	2.277318E-01	6.022740E-03
6.708222E+03	2.229063E-01	5.924203E-03
6.718116E+03	2.181572E-01	5.825328E-03
6.728010E+03	2.135113E-01	5.726912E-03
6.737904E+03	2.090013E-01	5.629926E-03
6.747799E+03	2.046459E-01	5.534976E-03
6.757693E+03	2.004696E-01	5.442832E-03
6.767587E+03	1.964882E-01	5.354033E-03
6.777481E+03	1.927094E-01	5.268899E-03
6.787375E+03	1.891469E-01	5.187914E-03
6.797269E+03	1.858043E-01	5.111285E-03
6.807163E+03	1.826870E-01	5.039264E-03
6.817057E+03	1.797937E-01	4.971906E-03
6.826952E+03	1.771225E-01	4.909257E-03
6.836846E+03	1.746721E-01	4.851358E-03
6.846740E+03	1.724346E-01	4.798070E-03
6.856634E+03	1.704049E-01	4.749321E-03
6.866528E+03	1.685722E-01	4.704871E-03
6.876422E+03	1.669265E-01	4.664494E-03
6.886316E+03	1.654585E-01	4.627979E-03
6.896211E+03	1.641540E-01	4.594971E-03
6.906105E+03	1.629999E-01	4.565139E-03
6.915999E+03	1.619825E-01	4.538130E-03
6.925893E+03	1.610874E-01	4.513567E-03
6.935787E+03	1.603000E-01	4.491065E-03
6.945681E+03	1.596056E-01	4.470227E-03
6.955575E+03	1.589893E-01	4.450659E-03
6.965469E+03	1.584366E-01	4.431967E-03
6.975364E+03	1.579315E-01	4.413721E-03
6.985258E+03	1.574624E-01	4.395613E-03
6.995152E+03	1.570147E-01	4.377255E-03
7.005046E+03	1.565768E-01	4.358344E-03
7.014940E+03	1.561405E-01	4.338666E-03
7.024834E+03	1.556929E-01	4.317893E-03
7.034728E+03	1.552287E-01	4.295900E-03
7.044623E+03	1.547420E-01	4.272559E-03
7.054517E+03	1.542269E-01	4.247737E-03
7.064411E+03	1.536810E-01	4.221405E-03
7.074305E+03	1.531035E-01	4.193577E-03
7.084199E+03	1.524949E-01	4.164311E-03
7.094093E+03	1.518554E-01	4.133651E-03
7.103987E+03	1.511896E-01	4.101772E-03
7.113881E+03	1.504976E-01	4.068721E-03
7.123776E+03	1.497875E-01	4.034761E-03
7.133670E+03	1.490583E-01	3.999916E-03
7.143564E+03	1.483183E-01	3.964459E-03
7.153458E+03	1.475703E-01	3.928508E-03
7.163352E+03	1.468182E-01	3.892223E-03
7.173246E+03	1.460639E-01	3.855697E-03
7.183140E+03	1.453083E-01	3.819009E-03
7.193035E+03	1.445570E-01	3.782359E-03
7.202929E+03	1.438077E-01	3.745734E-03
7.212823E+03	1.430589E-01	3.709152E-03
7.222717E+03	1.423136E-01	3.672745E-03
7.232611E+03	1.415651E-01	3.636401E-03
7.242505E+03	1.408149E-01	3.600218E-03
7.252399E+03	1.400570E-01	3.564103E-03
7.262293E+03	1.392902E-01	3.528092E-03
7.272188E+03	1.385094E-01	3.492125E-03
7.282082E+03	1.377097E-01	3.456146E-03
7.291976E+03	1.368911E-01	3.420231E-03
7.301870E+03	1.360454E-01	3.384252E-03
7.311764E+03	1.351734E-01	3.348301E-03
7.321658E+03	1.342694E-01	3.312316E-03
7.331552E+03	1.333349E-01	3.276414E-03
7.341447E+03	1.323671E-01	3.240603E-03
7.351341E+03	1.313655E-01	3.204946E-03
7.361235E+03	1.303300E-01	3.169519E-03
7.371129E+03	1.292614E-01	3.134415E-03
7.381023E+03	1.281627E-01	3.099771E-03
7.390917E+03	1.270322E-01	3.065621E-03
7.400811E+03	1.258758E-01	3.032163E-03
7.410705E+03	1.246930E-01	2.999448E-03
7.420600E+03	1.234903E-01	2.967682E-03
7.430494E+03	1.222682E-01	2.936928E-03
7.440388E+03	1.210339E-01	2.907400E-03
7.450282E+03	1.197901E-01	2.879202E-03
7.460176E+03	1.185431E-01	2.852513E-03
7.470070E+03	1.172962E-01	2.827443E-03
7.479964E+03	1.160578E-01	2.804211E-03
7.489859E+03	1.148301E-01	2.782891E-03
7.499753E+03	1.136219E-01	2.763706E-03
7.509647E+03	1.124391E-01	2.746808E-03
7.519541E+03	1.112862E-01	2.732317E-03
7.529435E+03	1.101711E-01	2.720429E-03
7.539329E+03	1.091017E-01	2.711308E-03
7.549223E+03	1.080833E-01	2.705024E-03
7.559117E+03	1.071226E-01	2.701690E-03
7.569012E+03	1.062268E-01	2.701431E-03
7.578906E+03	1.054058E-01	2.704458E-03
7.588800E+03	1.046638E-01	2.710851E-03
7.598694E+03	1.040092E-01	2.720804E-03
7.608588E+03	1.034481E-01	2.734474E-03
7.618482E+03	1.029873E-01	2.752042E-03
7.628376E+03	1.026269E-01	2.773530E-03
7.638271E+03	1.023677E-01	2.798988E-03
7.648165E+03	1.022016E-01	2.828232E-03
7.658059E+03	1.021199E-01	2.861045E-03
7.667953E+03	1.021138E-01	2.897218E-03
7.677847E+03	1.021718E-01	2.936452E-03
