#wls	flux	fluxerr
1.583061E+03	1.018701E-01	9.473053E-03
1.622638E+03	1.043481E-01	9.584406E-03
1.662214E+03	1.069025E-01	9.695966E-03
1.701791E+03	1.095274E-01	9.806924E-03
1.741367E+03	1.121898E-01	9.914125E-03
1.780944E+03	1.148930E-01	1.001773E-02
1.820520E+03	1.176340E-01	1.011737E-02
1.860097E+03	1.203795E-01	1.021013E-02
1.899673E+03	1.230636E-01	1.029055E-02
1.939250E+03	1.256623E-01	1.035693E-02
1.978827E+03	1.281304E-01	1.040602E-02
2.018403E+03	1.304616E-01	1.043789E-02
2.057980E+03	1.326520E-01	1.045287E-02
2.097556E+03	1.347287E-01	1.045371E-02
2.137133E+03	1.367162E-01	1.044286E-02
2.176709E+03	1.387515E-01	1.043107E-02
2.216286E+03	1.409528E-01	1.042695E-02
2.255862E+03	1.434170E-01	1.043699E-02
2.295439E+03	1.462684E-01	1.046915E-02
2.335015E+03	1.494662E-01	1.051912E-02
2.374592E+03	1.530424E-01	1.058784E-02
2.414168E+03	1.569141E-01	1.066827E-02
2.453745E+03	1.610154E-01	1.075491E-02
2.493321E+03	1.652194E-01	1.083859E-02
2.532898E+03	1.693836E-01	1.090976E-02
2.572475E+03	1.734125E-01	1.096255E-02
2.612051E+03	1.772335E-01	1.099294E-02
2.651628E+03	1.808386E-01	1.100124E-02
2.691204E+03	1.842147E-01	1.098750E-02
2.730781E+03	1.875380E-01	1.096277E-02
2.770357E+03	1.909133E-01	1.093307E-02
2.809934E+03	1.945503E-01	1.090985E-02
2.849510E+03	1.986270E-01	1.090181E-02
2.889087E+03	2.032810E-01	1.091466E-02
2.928663E+03	2.087536E-01	1.095894E-02
2.968240E+03	2.151886E-01	1.103905E-02
2.978134E+03	2.169701E-01	1.106542E-02
2.988028E+03	2.188184E-01	1.109407E-02
2.997922E+03	2.207639E-01	1.112650E-02
3.007816E+03	2.227495E-01	1.115974E-02
3.017710E+03	2.248647E-01	1.119823E-02
3.027605E+03	2.270227E-01	1.123755E-02
3.037499E+03	2.292833E-01	1.128060E-02
3.047393E+03	2.316186E-01	1.132594E-02
3.057287E+03	2.340585E-01	1.137494E-02
3.067181E+03	2.366045E-01	1.142760E-02
3.077075E+03	2.392271E-01	1.148241E-02
3.086969E+03	2.419565E-01	1.154072E-02
3.096864E+03	2.447929E-01	1.160248E-02
3.106758E+03	2.477362E-01	1.166757E-02
3.116652E+03	2.507555E-01	1.173447E-02
3.126546E+03	2.539104E-01	1.180587E-02
3.136440E+03	2.571384E-01	1.187878E-02
3.146334E+03	2.604980E-01	1.195583E-02
3.156228E+03	2.639565E-01	1.203541E-02
3.166122E+03	2.675098E-01	1.211725E-02
3.176017E+03	2.711536E-01	1.220109E-02
3.185911E+03	2.748819E-01	1.228658E-02
3.195805E+03	2.787191E-01	1.237475E-02
3.205699E+03	2.826573E-01	1.246516E-02
3.215593E+03	2.866564E-01	1.255597E-02
3.225487E+03	2.907365E-01	1.264801E-02
3.235381E+03	2.948852E-01	1.274070E-02
3.245276E+03	2.990565E-01	1.283201E-02
3.255170E+03	3.032973E-01	1.292394E-02
3.265064E+03	3.075262E-01	1.301299E-02
3.274958E+03	3.117858E-01	1.310099E-02
3.284852E+03	3.160216E-01	1.318566E-02
3.294746E+03	3.202082E-01	1.326598E-02
3.304640E+03	3.243507E-01	1.334223E-02
3.314534E+03	3.283872E-01	1.341194E-02
3.324429E+03	3.323176E-01	1.347523E-02
3.334323E+03	3.361080E-01	1.353084E-02
3.344217E+03	3.396913E-01	1.357624E-02
3.354111E+03	3.430933E-01	1.361267E-02
3.364005E+03	3.462129E-01	1.363631E-02
3.373899E+03	3.490743E-01	1.364840E-02
3.383793E+03	3.516072E-01	1.364645E-02
3.393688E+03	3.538040E-01	1.363048E-02
3.403582E+03	3.555969E-01	1.359820E-02
3.413476E+03	3.569809E-01	1.354981E-02
3.423370E+03	3.579225E-01	1.348441E-02
3.433264E+03	3.583900E-01	1.340121E-02
3.443158E+03	3.583526E-01	1.329949E-02
3.453052E+03	3.578060E-01	1.317954E-02
3.462946E+03	3.566707E-01	1.303885E-02
3.472841E+03	3.550280E-01	1.288084E-02
3.482735E+03	3.528324E-01	1.270427E-02
3.492629E+03	3.501330E-01	1.251134E-02
3.502523E+03	3.469338E-01	1.230255E-02
3.512417E+03	3.433226E-01	1.208140E-02
3.522311E+03	3.393397E-01	1.184958E-02
3.532205E+03	3.350049E-01	1.160807E-02
3.542100E+03	3.303671E-01	1.135881E-02
3.551994E+03	3.255200E-01	1.110519E-02
3.561888E+03	3.204666E-01	1.084748E-02
3.571782E+03	3.152773E-01	1.058817E-02
3.581676E+03	3.100178E-01	1.032953E-02
3.591570E+03	3.047105E-01	1.007235E-02
3.601464E+03	2.994160E-01	9.818622E-03
3.611358E+03	2.941708E-01	9.569506E-03
3.621253E+03	2.890088E-01	9.326039E-03
3.631147E+03	2.839619E-01	9.089159E-03
3.641041E+03	2.790584E-01	8.859661E-03
3.650935E+03	2.743407E-01	8.638752E-03
3.660829E+03	2.698160E-01	8.426502E-03
3.670723E+03	2.655207E-01	8.223878E-03
3.680617E+03	2.614725E-01	8.031236E-03
3.690512E+03	2.576961E-01	7.849131E-03
3.700406E+03	2.541780E-01	7.676939E-03
3.710300E+03	2.509134E-01	7.514317E-03
3.720194E+03	2.479084E-01	7.361243E-03
3.730088E+03	2.451528E-01	7.217218E-03
3.739982E+03	2.426362E-01	7.081752E-03
3.749876E+03	2.403590E-01	6.954676E-03
3.759770E+03	2.382877E-01	6.834849E-03
3.769665E+03	2.364443E-01	6.722745E-03
3.779559E+03	2.347956E-01	6.617264E-03
3.789453E+03	2.333295E-01	6.517927E-03
3.799347E+03	2.320533E-01	6.424815E-03
3.809241E+03	2.309436E-01	6.337150E-03
3.819135E+03	2.299858E-01	6.254423E-03
3.829029E+03	2.291743E-01	6.176389E-03
3.838924E+03	2.284854E-01	6.102319E-03
3.848818E+03	2.279134E-01	6.031996E-03
3.858712E+03	2.274368E-01	5.964786E-03
3.868606E+03	2.270599E-01	5.900755E-03
3.878500E+03	2.267548E-01	5.839134E-03
3.888394E+03	2.265198E-01	5.779858E-03
3.898288E+03	2.263545E-01	5.722888E-03
3.908182E+03	2.262359E-01	5.667632E-03
3.918077E+03	2.261738E-01	5.614329E-03
3.927971E+03	2.261554E-01	5.562661E-03
3.937865E+03	2.261830E-01	5.512687E-03
3.947759E+03	2.262377E-01	5.463960E-03
3.957653E+03	2.263304E-01	5.416757E-03
3.967547E+03	2.264512E-01	5.370863E-03
3.977441E+03	2.265983E-01	5.326261E-03
3.987336E+03	2.267765E-01	5.283092E-03
3.997230E+03	2.269719E-01	5.241061E-03
4.007124E+03	2.271893E-01	5.200319E-03
4.017018E+03	2.274334E-01	5.161014E-03
4.026912E+03	2.276817E-01	5.122673E-03
4.036806E+03	2.279421E-01	5.085531E-03
4.046700E+03	2.282084E-01	5.049499E-03
4.056594E+03	2.284613E-01	5.014212E-03
4.066489E+03	2.286982E-01	4.979679E-03
4.076383E+03	2.289059E-01	4.945690E-03
4.086277E+03	2.290785E-01	4.912193E-03
4.096171E+03	2.292114E-01	4.879173E-03
4.106065E+03	2.292977E-01	4.846562E-03
4.115959E+03	2.293389E-01	4.814479E-03
4.125853E+03	2.293348E-01	4.783004E-03
4.135748E+03	2.292922E-01	4.752352E-03
4.145642E+03	2.292105E-01	4.722591E-03
4.155536E+03	2.291059E-01	4.694121E-03
4.165430E+03	2.289855E-01	4.667154E-03
4.175324E+03	2.288557E-01	4.641882E-03
4.185218E+03	2.287239E-01	4.618505E-03
4.195112E+03	2.285964E-01	4.597203E-03
4.205006E+03	2.284761E-01	4.578082E-03
4.214901E+03	2.283695E-01	4.561314E-03
4.224795E+03	2.282785E-01	4.546976E-03
4.234689E+03	2.281984E-01	4.534997E-03
4.244583E+03	2.281283E-01	4.525306E-03
4.254477E+03	2.280653E-01	4.517765E-03
4.264371E+03	2.280006E-01	4.512122E-03
4.274265E+03	2.279206E-01	4.508025E-03
4.284159E+03	2.277861E-01	4.504610E-03
4.294054E+03	2.275778E-01	4.501411E-03
4.303948E+03	2.272545E-01	4.497518E-03
4.313842E+03	2.267995E-01	4.492503E-03
4.323736E+03	2.261937E-01	4.485878E-03
4.333630E+03	2.254284E-01	4.477364E-03
4.343524E+03	2.245029E-01	4.466828E-03
4.353418E+03	2.234232E-01	4.454274E-03
4.363313E+03	2.222056E-01	4.439901E-03
4.373207E+03	2.208669E-01	4.423926E-03
4.383101E+03	2.194277E-01	4.406648E-03
4.392995E+03	2.179178E-01	4.388549E-03
4.402889E+03	2.163577E-01	4.369936E-03
4.412783E+03	2.147708E-01	4.351184E-03
4.422677E+03	2.131823E-01	4.332709E-03
4.432571E+03	2.116133E-01	4.314858E-03
4.442466E+03	2.100695E-01	4.297674E-03
4.452360E+03	2.085672E-01	4.281419E-03
4.462254E+03	2.071079E-01	4.266059E-03
4.472148E+03	2.056953E-01	4.251615E-03
4.482042E+03	2.043308E-01	4.238062E-03
4.491936E+03	2.030143E-01	4.225351E-03
4.501830E+03	2.017476E-01	4.213470E-03
4.511725E+03	2.005262E-01	4.202286E-03
4.521619E+03	1.993508E-01	4.191772E-03
4.531513E+03	1.982226E-01	4.181921E-03
4.541407E+03	1.971403E-01	4.172671E-03
4.551301E+03	1.961055E-01	4.164025E-03
4.561195E+03	1.951180E-01	4.155953E-03
4.571089E+03	1.941828E-01	4.148538E-03
4.580983E+03	1.933003E-01	4.141764E-03
4.590878E+03	1.924740E-01	4.135687E-03
4.600772E+03	1.917074E-01	4.130367E-03
4.610666E+03	1.910042E-01	4.125865E-03
4.620560E+03	1.903680E-01	4.122250E-03
4.630454E+03	1.898023E-01	4.119585E-03
4.640348E+03	1.893125E-01	4.117975E-03
4.650242E+03	1.888991E-01	4.117423E-03
4.660137E+03	1.885640E-01	4.117966E-03
4.670031E+03	1.883134E-01	4.119727E-03
4.679925E+03	1.881457E-01	4.122667E-03
4.689819E+03	1.880608E-01	4.126774E-03
4.699713E+03	1.880617E-01	4.132109E-03
4.709607E+03	1.881430E-01	4.138546E-03
4.719501E+03	1.883025E-01	4.146024E-03
4.729395E+03	1.885312E-01	4.154342E-03
4.739290E+03	1.888183E-01	4.163247E-03
4.749184E+03	1.891487E-01	4.172400E-03
4.759078E+03	1.895091E-01	4.181493E-03
4.768972E+03	1.898832E-01	4.190159E-03
4.778866E+03	1.902591E-01	4.198123E-03
4.788760E+03	1.906176E-01	4.204956E-03
4.798654E+03	1.909487E-01	4.210426E-03
4.808549E+03	1.912312E-01	4.214064E-03
4.818443E+03	1.914583E-01	4.215717E-03
4.828337E+03	1.916138E-01	4.215031E-03
4.838231E+03	1.916875E-01	4.211783E-03
4.848125E+03	1.916725E-01	4.205834E-03
4.858019E+03	1.915574E-01	4.196945E-03
4.867913E+03	1.913410E-01	4.185106E-03
4.877807E+03	1.910195E-01	4.170253E-03
4.887702E+03	1.905866E-01	4.152275E-03
4.897596E+03	1.900469E-01	4.131302E-03
4.907490E+03	1.894013E-01	4.107383E-03
4.917384E+03	1.886571E-01	4.080713E-03
4.927278E+03	1.878261E-01	4.051580E-03
4.937172E+03	1.869163E-01	4.020198E-03
4.947066E+03	1.859382E-01	3.986830E-03
4.956961E+03	1.849020E-01	3.951733E-03
4.966855E+03	1.838202E-01	3.915212E-03
4.976749E+03	1.827011E-01	3.877486E-03
4.986643E+03	1.815553E-01	3.838812E-03
4.996537E+03	1.803948E-01	3.799483E-03
5.006431E+03	1.792274E-01	3.759698E-03
5.016325E+03	1.780626E-01	3.719691E-03
5.026219E+03	1.769119E-01	3.679729E-03
5.036114E+03	1.757828E-01	3.640003E-03
5.046008E+03	1.746870E-01	3.600778E-03
5.055902E+03	1.736341E-01	3.562277E-03
5.065796E+03	1.726305E-01	3.524655E-03
5.075690E+03	1.716919E-01	3.488250E-03
5.085584E+03	1.708235E-01	3.453184E-03
5.095478E+03	1.700328E-01	3.419622E-03
5.105373E+03	1.693277E-01	3.387734E-03
5.115267E+03	1.687117E-01	3.357600E-03
5.125161E+03	1.681830E-01	3.329192E-03
5.135055E+03	1.677410E-01	3.302509E-03
5.144949E+03	1.673797E-01	3.277443E-03
5.154843E+03	1.670945E-01	3.253919E-03
5.164737E+03	1.668759E-01	3.231769E-03
5.174631E+03	1.667176E-01	3.210888E-03
5.184526E+03	1.666111E-01	3.191139E-03
5.194420E+03	1.665463E-01	3.172353E-03
5.204314E+03	1.665147E-01	3.154403E-03
5.214208E+03	1.665103E-01	3.137208E-03
5.224102E+03	1.665254E-01	3.120662E-03
5.233996E+03	1.665505E-01	3.104628E-03
5.243890E+03	1.665777E-01	3.089005E-03
5.253785E+03	1.666009E-01	3.073728E-03
5.263679E+03	1.666103E-01	3.058662E-03
5.273573E+03	1.665971E-01	3.043705E-03
5.283467E+03	1.665548E-01	3.028788E-03
5.293361E+03	1.664717E-01	3.013757E-03
5.303255E+03	1.663437E-01	2.998591E-03
5.313149E+03	1.661604E-01	2.983165E-03
5.323043E+03	1.659180E-01	2.967461E-03
5.332938E+03	1.656134E-01	2.951479E-03
5.342832E+03	1.652401E-01	2.935157E-03
5.352726E+03	1.647967E-01	2.918517E-03
5.362620E+03	1.642851E-01	2.901627E-03
5.372514E+03	1.637094E-01	2.884536E-03
5.382408E+03	1.630768E-01	2.867326E-03
5.392302E+03	1.623995E-01	2.850158E-03
5.402196E+03	1.616870E-01	2.833150E-03
5.412091E+03	1.609526E-01	2.816477E-03
5.421985E+03	1.602054E-01	2.800239E-03
5.431879E+03	1.594568E-01	2.784580E-03
5.441773E+03	1.587143E-01	2.769575E-03
5.451667E+03	1.579887E-01	2.755350E-03
5.461561E+03	1.572862E-01	2.741960E-03
5.471455E+03	1.566104E-01	2.729412E-03
5.481350E+03	1.559647E-01	2.717711E-03
5.491244E+03	1.553529E-01	2.706872E-03
5.501138E+03	1.547753E-01	2.696848E-03
5.511032E+03	1.542331E-01	2.687613E-03
5.520926E+03	1.537257E-01	2.679111E-03
5.530820E+03	1.532578E-01	2.671376E-03
5.540714E+03	1.528303E-01	2.664384E-03
5.550608E+03	1.524465E-01	2.658150E-03
5.560503E+03	1.521092E-01	2.652682E-03
5.570397E+03	1.518258E-01	2.648074E-03
5.580291E+03	1.516047E-01	2.644436E-03
5.590185E+03	1.514506E-01	2.641812E-03
5.600079E+03	1.513735E-01	2.640346E-03
5.609973E+03	1.513825E-01	2.640162E-03
5.619867E+03	1.514863E-01	2.641383E-03
5.629762E+03	1.516934E-01	2.644125E-03
5.639656E+03	1.520117E-01	2.648494E-03
5.649550E+03	1.524482E-01	2.654581E-03
5.659444E+03	1.530068E-01	2.662424E-03
5.669338E+03	1.536946E-01	2.672115E-03
5.679232E+03	1.545111E-01	2.683612E-03
5.689126E+03	1.554575E-01	2.696902E-03
5.699020E+03	1.565314E-01	2.711912E-03
5.708915E+03	1.577268E-01	2.728498E-03
5.718809E+03	1.590368E-01	2.746510E-03
5.728703E+03	1.604491E-01	2.765699E-03
5.738597E+03	1.619506E-01	2.785804E-03
5.748491E+03	1.635264E-01	2.806534E-03
5.758385E+03	1.651563E-01	2.827512E-03
5.768279E+03	1.668197E-01	2.848357E-03
5.778174E+03	1.684946E-01	2.868667E-03
5.788068E+03	1.701558E-01	2.887994E-03
5.797962E+03	1.717807E-01	2.905939E-03
5.807856E+03	1.733444E-01	2.922074E-03
5.817750E+03	1.748185E-01	2.935922E-03
5.827644E+03	1.761824E-01	2.947143E-03
5.837538E+03	1.774123E-01	2.955359E-03
5.847432E+03	1.784861E-01	2.960230E-03
5.857327E+03	1.793886E-01	2.961543E-03
5.867221E+03	1.801076E-01	2.959142E-03
5.877115E+03	1.806316E-01	2.952894E-03
5.887009E+03	1.809597E-01	2.942850E-03
5.896903E+03	1.810970E-01	2.929164E-03
5.906797E+03	1.810511E-01	2.912033E-03
5.916691E+03	1.808420E-01	2.891856E-03
5.926586E+03	1.804917E-01	2.869062E-03
5.936480E+03	1.800269E-01	2.844153E-03
5.946374E+03	1.794798E-01	2.817706E-03
5.956268E+03	1.788867E-01	2.790358E-03
5.966162E+03	1.782860E-01	2.762765E-03
5.976056E+03	1.777153E-01	2.735557E-03
5.985950E+03	1.772124E-01	2.709356E-03
5.995844E+03	1.768200E-01	2.684845E-03
6.005739E+03	1.765722E-01	2.662562E-03
6.015633E+03	1.765042E-01	2.643049E-03
6.025527E+03	1.766490E-01	2.626806E-03
6.035421E+03	1.770362E-01	2.614271E-03
6.045315E+03	1.776904E-01	2.605805E-03
6.055209E+03	1.786326E-01	2.601711E-03
6.065103E+03	1.798765E-01	2.602187E-03
6.074998E+03	1.814311E-01	2.607366E-03
6.084892E+03	1.832953E-01	2.617247E-03
6.094786E+03	1.854610E-01	2.631741E-03
6.104680E+03	1.879059E-01	2.650575E-03
6.114574E+03	1.905968E-01	2.673346E-03
6.124468E+03	1.934833E-01	2.699440E-03
6.134362E+03	1.964978E-01	2.728028E-03
6.144256E+03	1.995504E-01	2.758009E-03
6.154151E+03	2.025347E-01	2.788089E-03
6.164045E+03	2.053217E-01	2.816689E-03
6.173939E+03	2.077654E-01	2.842025E-03
6.183833E+03	2.097169E-01	2.862284E-03
6.193727E+03	2.110233E-01	2.875596E-03
6.203621E+03	2.115645E-01	2.880518E-03
6.213515E+03	2.113032E-01	2.876698E-03
6.223410E+03	2.103280E-01	2.865438E-03
6.233304E+03	2.088156E-01	2.849197E-03
6.243198E+03	2.069705E-01	2.830773E-03
6.253092E+03	2.049839E-01	2.812724E-03
6.262986E+03	2.030290E-01	2.797272E-03
6.272880E+03	2.012574E-01	2.786366E-03
6.282774E+03	1.997854E-01	2.781507E-03
6.292668E+03	1.987032E-01	2.783879E-03
6.302563E+03	1.980779E-01	2.794398E-03
6.312457E+03	1.979511E-01	2.813660E-03
6.322351E+03	1.983512E-01	2.842120E-03
6.332245E+03	1.992904E-01	2.880033E-03
6.342139E+03	2.007674E-01	2.927488E-03
6.352033E+03	2.027685E-01	2.984413E-03
6.361927E+03	2.052759E-01	3.050684E-03
6.371822E+03	2.082571E-01	3.125964E-03
6.381716E+03	2.116731E-01	3.209808E-03
6.391610E+03	2.154757E-01	3.301620E-03
6.401504E+03	2.196011E-01	3.400532E-03
6.411398E+03	2.239844E-01	3.505628E-03
6.421292E+03	2.285424E-01	3.615656E-03
6.431186E+03	2.331909E-01	3.729293E-03
6.441080E+03	2.378441E-01	3.845128E-03
6.450975E+03	2.424197E-01	3.961745E-03
6.460869E+03	2.468405E-01	4.077748E-03
6.470763E+03	2.510443E-01	4.191939E-03
6.480657E+03	2.549659E-01	4.303012E-03
6.490551E+03	2.585443E-01	4.409693E-03
6.500445E+03	2.617185E-01	4.510656E-03
6.510339E+03	2.644372E-01	4.604701E-03
6.520234E+03	2.666454E-01	4.690533E-03
6.530128E+03	2.683045E-01	4.767108E-03
6.540022E+03	2.693833E-01	4.833492E-03
6.549916E+03	2.698600E-01	4.888910E-03
6.559810E+03	2.697366E-01	4.933012E-03
6.569704E+03	2.690139E-01	4.965439E-03
6.579598E+03	2.677101E-01	4.986169E-03
6.589492E+03	2.658500E-01	4.995327E-03
6.599387E+03	2.634652E-01	4.993196E-03
6.609281E+03	2.605951E-01	4.980245E-03
6.619175E+03	2.572815E-01	4.957023E-03
6.629069E+03	2.535793E-01	4.924378E-03
6.638963E+03	2.495366E-01	4.883068E-03
6.648857E+03	2.452039E-01	4.833942E-03
6.658751E+03	2.406402E-01	4.778054E-03
6.668645E+03	2.358954E-01	4.716323E-03
6.678540E+03	2.310233E-01	4.649786E-03
6.688434E+03	2.260682E-01	4.579320E-03
6.698328E+03	2.210853E-01	4.506053E-03
6.708222E+03	2.161136E-01	4.430816E-03
6.718116E+03	2.111933E-01	4.354489E-03
6.728010E+03	2.063622E-01	4.277915E-03
6.737904E+03	2.016509E-01	4.201815E-03
6.747799E+03	1.970858E-01	4.126830E-03
6.757693E+03	1.926889E-01	4.053516E-03
6.767587E+03	1.884779E-01	3.982352E-03
6.777481E+03	1.844650E-01	3.913695E-03
6.787375E+03	1.806645E-01	3.847953E-03
6.797269E+03	1.770811E-01	3.785329E-03
6.807163E+03	1.737199E-01	3.726025E-03
6.817057E+03	1.705836E-01	3.670195E-03
6.826952E+03	1.676752E-01	3.617992E-03
6.836846E+03	1.649893E-01	3.569384E-03
6.846740E+03	1.625255E-01	3.524433E-03
6.856634E+03	1.602749E-01	3.483022E-03
6.866528E+03	1.582291E-01	3.445029E-03
6.876422E+03	1.563793E-01	3.410318E-03
6.886316E+03	1.547113E-01	3.378629E-03
6.896211E+03	1.532120E-01	3.349721E-03
6.906105E+03	1.518674E-01	3.323324E-03
6.915999E+03	1.506644E-01	3.299186E-03
6.925893E+03	1.495862E-01	3.276965E-03
6.935787E+03	1.486167E-01	3.256335E-03
6.945681E+03	1.477417E-01	3.237004E-03
6.955575E+03	1.469432E-01	3.218601E-03
6.965469E+03	1.462055E-01	3.200797E-03
6.975364E+03	1.455131E-01	3.183271E-03
6.985258E+03	1.448510E-01	3.165713E-03
6.995152E+03	1.442072E-01	3.147877E-03
7.005046E+03	1.435668E-01	3.129457E-03
7.014940E+03	1.429177E-01	3.110215E-03
7.024834E+03	1.422500E-01	3.089952E-03
7.034728E+03	1.415549E-01	3.068508E-03
7.044623E+03	1.408260E-01	3.045770E-03
7.054517E+03	1.400598E-01	3.021695E-03
7.064411E+03	1.392569E-01	2.996328E-03
7.074305E+03	1.384142E-01	2.969642E-03
7.084199E+03	1.375382E-01	2.941807E-03
7.094093E+03	1.366294E-01	2.912876E-03
7.103987E+03	1.356961E-01	2.883063E-03
7.113881E+03	1.347402E-01	2.852446E-03
7.123776E+03	1.337704E-01	2.821253E-03
7.133670E+03	1.327890E-01	2.789570E-03
7.143564E+03	1.318046E-01	2.757616E-03
7.153458E+03	1.308190E-01	2.725467E-03
7.163352E+03	1.298403E-01	2.693330E-03
7.173246E+03	1.288692E-01	2.661261E-03
7.183140E+03	1.279127E-01	2.629438E-03
7.193035E+03	1.269705E-01	2.597893E-03
7.202929E+03	1.260473E-01	2.566761E-03
7.212823E+03	1.251408E-01	2.536032E-03
7.222717E+03	1.242540E-01	2.505807E-03
7.232611E+03	1.233823E-01	2.476032E-03
7.242505E+03	1.225266E-01	2.446765E-03
7.252399E+03	1.216808E-01	2.417931E-03
7.262293E+03	1.208449E-01	2.389570E-03
7.272188E+03	1.200136E-01	2.361627E-03
7.282082E+03	1.191821E-01	2.334056E-03
7.291976E+03	1.183508E-01	2.306914E-03
7.301870E+03	1.175159E-01	2.280177E-03
7.311764E+03	1.166741E-01	2.253837E-03
7.321658E+03	1.158262E-01	2.227960E-03
7.331552E+03	1.149717E-01	2.202593E-03
7.341447E+03	1.141094E-01	2.177764E-03
7.351341E+03	1.132415E-01	2.153571E-03
7.361235E+03	1.123680E-01	2.130062E-03
7.371129E+03	1.114920E-01	2.107353E-03
7.381023E+03	1.106164E-01	2.085543E-03
7.390917E+03	1.097413E-01	2.064686E-03
7.400811E+03	1.088745E-01	2.044972E-03
7.410705E+03	1.080162E-01	2.026454E-03
7.420600E+03	1.071700E-01	2.009236E-03
7.430494E+03	1.063413E-01	1.993464E-03
7.440388E+03	1.055284E-01	1.979142E-03
7.450282E+03	1.047371E-01	1.966418E-03
7.460176E+03	1.039670E-01	1.955318E-03
7.470070E+03	1.032229E-01	1.945964E-03
7.479964E+03	1.025068E-01	1.938428E-03
7.489859E+03	1.018237E-01	1.932830E-03
7.499753E+03	1.011752E-01	1.929230E-03
7.509647E+03	1.005637E-01	1.927705E-03
7.519541E+03	9.999283E-02	1.928344E-03
7.529435E+03	9.946254E-02	1.931145E-03
7.539329E+03	9.897370E-02	1.936093E-03
7.549223E+03	9.852784E-02	1.943190E-03
7.559117E+03	9.812171E-02	1.952341E-03
7.569012E+03	9.775639E-02	1.963540E-03
7.578906E+03	9.742719E-02	1.976666E-03
7.588800E+03	9.712800E-02	1.991566E-03
7.598694E+03	9.685125E-02	2.008053E-03
7.608588E+03	9.658887E-02	2.025923E-03
7.618482E+03	9.633388E-02	2.044990E-03
7.628376E+03	9.607702E-02	2.065011E-03
7.638271E+03	9.581690E-02	2.085904E-03
7.648165E+03	9.555596E-02	2.107673E-03
7.658059E+03	9.529481E-02	2.130280E-03
7.667953E+03	9.503977E-02	2.153822E-03
7.677847E+03	9.479133E-02	2.178268E-03
