#wls	flux	fluxerr
1.583061E+03	1.024528E-01	9.514970E-03
1.622638E+03	1.049287E-01	9.625101E-03
1.662214E+03	1.074819E-01	9.735541E-03
1.701791E+03	1.101068E-01	9.845508E-03
1.741367E+03	1.127705E-01	9.951867E-03
1.780944E+03	1.154763E-01	1.005480E-02
1.820520E+03	1.182215E-01	1.015394E-02
1.860097E+03	1.209722E-01	1.024635E-02
1.899673E+03	1.236615E-01	1.032647E-02
1.939250E+03	1.262635E-01	1.039250E-02
1.978827E+03	1.287309E-01	1.044100E-02
2.018403E+03	1.310547E-01	1.047187E-02
2.057980E+03	1.332289E-01	1.048529E-02
2.097556E+03	1.352793E-01	1.048398E-02
2.137133E+03	1.372305E-01	1.047042E-02
2.176709E+03	1.392213E-01	1.045552E-02
2.216286E+03	1.413723E-01	1.044810E-02
2.255862E+03	1.437834E-01	1.045489E-02
2.295439E+03	1.465812E-01	1.048404E-02
2.335015E+03	1.497264E-01	1.053135E-02
2.374592E+03	1.532523E-01	1.059786E-02
2.414168E+03	1.570758E-01	1.067652E-02
2.453745E+03	1.611287E-01	1.076170E-02
2.493321E+03	1.652797E-01	1.084393E-02
2.532898E+03	1.693788E-01	1.091322E-02
2.572475E+03	1.733224E-01	1.096321E-02
2.612051E+03	1.770313E-01	1.098954E-02
2.651628E+03	1.804975E-01	1.099261E-02
2.691204E+03	1.837134E-01	1.097288E-02
2.730781E+03	1.868629E-01	1.094192E-02
2.770357E+03	1.900582E-01	1.090622E-02
2.809934E+03	1.935141E-01	1.087756E-02
2.849510E+03	1.974116E-01	1.086484E-02
2.889087E+03	2.018902E-01	1.087391E-02
2.928663E+03	2.071919E-01	1.091539E-02
2.968240E+03	2.134618E-01	1.099379E-02
2.978134E+03	2.152033E-01	1.101992E-02
2.988028E+03	2.170119E-01	1.104841E-02
2.997922E+03	2.189185E-01	1.108077E-02
3.007816E+03	2.208660E-01	1.111404E-02
3.017710E+03	2.229434E-01	1.115263E-02
3.027605E+03	2.250647E-01	1.119216E-02
3.037499E+03	2.272897E-01	1.123554E-02
3.047393E+03	2.295901E-01	1.128129E-02
3.057287E+03	2.319967E-01	1.133086E-02
3.067181E+03	2.345103E-01	1.138418E-02
3.077075E+03	2.371021E-01	1.143978E-02
3.086969E+03	2.398024E-01	1.149905E-02
3.096864E+03	2.426114E-01	1.156189E-02
3.106758E+03	2.455292E-01	1.162823E-02
3.116652E+03	2.485256E-01	1.169655E-02
3.126546E+03	2.516595E-01	1.176955E-02
3.136440E+03	2.548696E-01	1.184425E-02
3.146334E+03	2.582144E-01	1.192329E-02
3.156228E+03	2.616611E-01	1.200506E-02
3.166122E+03	2.652063E-01	1.208932E-02
3.176017E+03	2.688459E-01	1.217581E-02
3.185911E+03	2.725745E-01	1.226421E-02
3.195805E+03	2.764163E-01	1.235553E-02
3.205699E+03	2.803641E-01	1.244937E-02
3.215593E+03	2.843780E-01	1.254387E-02
3.225487E+03	2.884783E-01	1.263989E-02
3.235381E+03	2.926531E-01	1.273685E-02
3.245276E+03	2.968568E-01	1.283271E-02
3.255170E+03	3.011360E-01	1.292948E-02
3.265064E+03	3.054101E-01	1.302366E-02
3.274958E+03	3.097213E-01	1.311707E-02
3.284852E+03	3.140152E-01	1.320741E-02
3.294746E+03	3.182671E-01	1.329367E-02
3.304640E+03	3.224808E-01	1.337607E-02
3.314534E+03	3.265948E-01	1.345213E-02
3.324429E+03	3.306083E-01	1.352194E-02
3.334323E+03	3.344868E-01	1.358420E-02
3.344217E+03	3.381623E-01	1.363630E-02
3.354111E+03	3.416599E-01	1.367946E-02
3.364005E+03	3.448775E-01	1.370979E-02
3.373899E+03	3.478378E-01	1.372846E-02
3.383793E+03	3.504693E-01	1.373291E-02
3.393688E+03	3.527630E-01	1.372309E-02
3.403582E+03	3.546496E-01	1.369664E-02
3.413476E+03	3.561225E-01	1.365368E-02
3.423370E+03	3.571465E-01	1.359324E-02
3.433264E+03	3.576888E-01	1.351448E-02
3.443158E+03	3.577172E-01	1.341662E-02
3.453052E+03	3.572264E-01	1.329988E-02
3.462946E+03	3.561364E-01	1.316175E-02
3.472841E+03	3.545279E-01	1.300565E-02
3.482735E+03	3.523560E-01	1.283034E-02
3.492629E+03	3.496700E-01	1.263804E-02
3.502523E+03	3.464748E-01	1.242932E-02
3.512417E+03	3.428596E-01	1.220774E-02
3.522311E+03	3.388659E-01	1.197508E-02
3.532205E+03	3.345148E-01	1.173236E-02
3.542100E+03	3.298566E-01	1.148158E-02
3.551994E+03	3.249862E-01	1.122625E-02
3.561888E+03	3.199083E-01	1.096665E-02
3.571782E+03	3.146937E-01	1.070536E-02
3.581676E+03	3.094093E-01	1.044470E-02
3.591570E+03	3.040785E-01	1.018549E-02
3.601464E+03	2.987624E-01	9.929789E-03
3.611358E+03	2.934979E-01	9.678769E-03
3.621253E+03	2.883198E-01	9.433516E-03
3.631147E+03	2.832597E-01	9.194977E-03
3.641041E+03	2.783470E-01	8.963983E-03
3.650935E+03	2.736230E-01	8.741736E-03
3.660829E+03	2.690957E-01	8.528325E-03
3.670723E+03	2.648005E-01	8.324706E-03
3.680617E+03	2.607544E-01	8.131221E-03
3.690512E+03	2.569814E-01	7.948413E-03
3.700406E+03	2.534679E-01	7.775658E-03
3.710300E+03	2.502106E-01	7.612647E-03
3.720194E+03	2.472153E-01	7.459360E-03
3.730088E+03	2.444719E-01	7.315296E-03
3.739982E+03	2.419698E-01	7.179955E-03
3.749876E+03	2.397101E-01	7.053184E-03
3.759770E+03	2.376591E-01	6.933821E-03
3.769665E+03	2.358383E-01	6.822343E-03
3.779559E+03	2.342144E-01	6.717622E-03
3.789453E+03	2.327755E-01	6.619186E-03
3.799347E+03	2.315287E-01	6.527108E-03
3.809241E+03	2.304509E-01	6.440608E-03
3.819135E+03	2.295274E-01	6.359169E-03
3.829029E+03	2.287525E-01	6.282536E-03
3.838924E+03	2.281029E-01	6.209985E-03
3.848818E+03	2.275733E-01	6.141294E-03
3.858712E+03	2.271417E-01	6.075811E-03
3.868606E+03	2.268127E-01	6.013610E-03
3.878500E+03	2.265583E-01	5.953903E-03
3.888394E+03	2.263771E-01	5.896623E-03
3.898288E+03	2.262682E-01	5.841726E-03
3.908182E+03	2.262087E-01	5.788606E-03
3.918077E+03	2.262082E-01	5.737496E-03
3.927971E+03	2.262537E-01	5.688066E-03
3.937865E+03	2.263474E-01	5.640373E-03
3.947759E+03	2.264705E-01	5.593957E-03
3.957653E+03	2.266336E-01	5.549098E-03
3.967547E+03	2.268269E-01	5.505569E-03
3.977441E+03	2.270483E-01	5.463345E-03
3.987336E+03	2.273027E-01	5.422571E-03
3.997230E+03	2.275756E-01	5.382929E-03
4.007124E+03	2.278721E-01	5.344577E-03
4.017018E+03	2.281962E-01	5.307644E-03
4.026912E+03	2.285259E-01	5.271660E-03
4.036806E+03	2.288687E-01	5.236846E-03
4.046700E+03	2.292185E-01	5.203117E-03
4.056594E+03	2.295560E-01	5.170092E-03
4.066489E+03	2.298792E-01	5.137792E-03
4.076383E+03	2.301751E-01	5.105999E-03
4.086277E+03	2.304373E-01	5.074643E-03
4.096171E+03	2.306618E-01	5.043720E-03
4.106065E+03	2.308410E-01	5.013144E-03
4.115959E+03	2.309763E-01	4.983028E-03
4.125853E+03	2.310670E-01	4.953435E-03
4.135748E+03	2.311191E-01	4.924574E-03
4.145642E+03	2.311316E-01	4.896498E-03
4.155536E+03	2.311198E-01	4.869605E-03
4.165430E+03	2.310900E-01	4.844087E-03
4.175324E+03	2.310479E-01	4.820128E-03
4.185218E+03	2.309999E-01	4.797917E-03
4.195112E+03	2.309508E-01	4.777607E-03
4.205006E+03	2.309037E-01	4.759307E-03
4.214901E+03	2.308641E-01	4.743178E-03
4.224795E+03	2.308329E-01	4.729279E-03
4.234689E+03	2.308045E-01	4.717530E-03
4.244583E+03	2.307771E-01	4.707852E-03
4.254477E+03	2.307465E-01	4.700086E-03
4.264371E+03	2.307040E-01	4.693978E-03
4.274265E+03	2.306355E-01	4.689163E-03
4.284159E+03	2.305031E-01	4.684790E-03
4.294054E+03	2.302891E-01	4.680412E-03
4.303948E+03	2.299537E-01	4.675133E-03
4.313842E+03	2.294820E-01	4.668556E-03
4.323736E+03	2.288555E-01	4.660202E-03
4.333630E+03	2.280664E-01	4.649808E-03
4.343524E+03	2.271145E-01	4.637254E-03
4.353418E+03	2.260067E-01	4.622571E-03
4.363313E+03	2.247594E-01	4.605974E-03
4.373207E+03	2.233897E-01	4.587699E-03
4.383101E+03	2.219185E-01	4.568061E-03
4.392995E+03	2.203759E-01	4.547570E-03
4.402889E+03	2.187822E-01	4.526541E-03
4.412783E+03	2.171612E-01	4.505370E-03
4.422677E+03	2.155377E-01	4.484481E-03
4.432571E+03	2.139327E-01	4.464228E-03
4.442466E+03	2.123525E-01	4.444667E-03
4.452360E+03	2.108138E-01	4.426081E-03
4.462254E+03	2.093183E-01	4.408440E-03
4.472148E+03	2.078700E-01	4.391773E-03
4.482042E+03	2.064708E-01	4.376064E-03
4.491936E+03	2.051208E-01	4.361269E-03
4.501830E+03	2.038218E-01	4.347379E-03
4.511725E+03	2.025695E-01	4.334262E-03
4.521619E+03	2.013649E-01	4.321896E-03
4.531513E+03	2.002090E-01	4.310271E-03
4.541407E+03	1.991006E-01	4.299327E-03
4.551301E+03	1.980413E-01	4.289068E-03
4.561195E+03	1.970309E-01	4.279462E-03
4.571089E+03	1.960744E-01	4.270592E-03
4.580983E+03	1.951721E-01	4.262443E-03
4.590878E+03	1.943274E-01	4.255069E-03
4.600772E+03	1.935439E-01	4.248532E-03
4.610666E+03	1.928251E-01	4.242891E-03
4.620560E+03	1.921746E-01	4.238215E-03
4.630454E+03	1.915959E-01	4.234565E-03
4.640348E+03	1.910944E-01	4.232050E-03
4.650242E+03	1.906703E-01	4.230668E-03
4.660137E+03	1.903257E-01	4.230456E-03
4.670031E+03	1.900666E-01	4.231538E-03
4.679925E+03	1.898914E-01	4.233871E-03
4.689819E+03	1.897998E-01	4.237441E-03
4.699713E+03	1.897947E-01	4.242304E-03
4.709607E+03	1.898708E-01	4.248331E-03
4.719501E+03	1.900254E-01	4.255457E-03
4.729395E+03	1.902498E-01	4.263474E-03
4.739290E+03	1.905328E-01	4.272124E-03
4.749184E+03	1.908597E-01	4.281064E-03
4.759078E+03	1.912170E-01	4.289980E-03
4.768972E+03	1.915883E-01	4.298496E-03
4.778866E+03	1.919616E-01	4.306333E-03
4.788760E+03	1.923178E-01	4.313049E-03
4.798654E+03	1.926466E-01	4.318411E-03
4.808549E+03	1.929270E-01	4.321940E-03
4.818443E+03	1.931523E-01	4.323484E-03
4.828337E+03	1.933060E-01	4.322678E-03
4.838231E+03	1.933777E-01	4.319293E-03
4.848125E+03	1.933607E-01	4.313186E-03
4.858019E+03	1.932434E-01	4.304110E-03
4.867913E+03	1.930244E-01	4.292054E-03
4.877807E+03	1.927000E-01	4.276952E-03
4.887702E+03	1.922638E-01	4.258689E-03
4.897596E+03	1.917206E-01	4.237399E-03
4.907490E+03	1.910715E-01	4.213137E-03
4.917384E+03	1.903233E-01	4.186087E-03
4.927278E+03	1.894874E-01	4.156537E-03
4.937172E+03	1.885718E-01	4.124699E-03
4.947066E+03	1.875869E-01	4.090837E-03
4.956961E+03	1.865429E-01	4.055214E-03
4.966855E+03	1.854524E-01	4.018141E-03
4.976749E+03	1.843238E-01	3.979839E-03
4.986643E+03	1.831677E-01	3.940570E-03
4.996537E+03	1.819962E-01	3.900634E-03
5.006431E+03	1.808172E-01	3.860235E-03
5.016325E+03	1.796404E-01	3.819610E-03
5.026219E+03	1.784772E-01	3.779037E-03
5.036114E+03	1.773356E-01	3.738708E-03
5.046008E+03	1.762270E-01	3.698896E-03
5.055902E+03	1.751613E-01	3.659829E-03
5.065796E+03	1.741448E-01	3.621662E-03
5.075690E+03	1.731931E-01	3.584736E-03
5.085584E+03	1.723112E-01	3.549172E-03
5.095478E+03	1.715066E-01	3.515138E-03
5.105373E+03	1.707870E-01	3.482802E-03
5.115267E+03	1.701557E-01	3.452241E-03
5.125161E+03	1.696111E-01	3.423430E-03
5.135055E+03	1.691527E-01	3.396371E-03
5.144949E+03	1.687744E-01	3.370952E-03
5.154843E+03	1.684719E-01	3.347100E-03
5.164737E+03	1.682358E-01	3.324645E-03
5.174631E+03	1.680598E-01	3.303481E-03
5.184526E+03	1.679355E-01	3.283467E-03
5.194420E+03	1.678527E-01	3.264431E-03
5.204314E+03	1.678032E-01	3.246239E-03
5.214208E+03	1.677805E-01	3.228808E-03
5.224102E+03	1.677772E-01	3.212025E-03
5.233996E+03	1.677835E-01	3.195747E-03
5.243890E+03	1.677916E-01	3.179870E-03
5.253785E+03	1.677955E-01	3.164323E-03
5.263679E+03	1.677851E-01	3.148968E-03
5.273573E+03	1.677522E-01	3.133701E-03
5.283467E+03	1.676902E-01	3.118450E-03
5.293361E+03	1.675875E-01	3.103058E-03
5.303255E+03	1.674403E-01	3.087506E-03
5.313149E+03	1.672385E-01	3.071665E-03
5.323043E+03	1.669782E-01	3.055517E-03
5.332938E+03	1.666567E-01	3.039066E-03
5.342832E+03	1.662678E-01	3.022246E-03
5.352726E+03	1.658099E-01	3.005079E-03
5.362620E+03	1.652854E-01	2.987636E-03
5.372514E+03	1.646982E-01	2.969966E-03
5.382408E+03	1.640555E-01	2.952148E-03
5.392302E+03	1.633690E-01	2.934350E-03
5.402196E+03	1.626482E-01	2.916688E-03
5.412091E+03	1.619062E-01	2.899340E-03
5.421985E+03	1.611516E-01	2.882410E-03
5.431879E+03	1.603960E-01	2.866046E-03
5.441773E+03	1.596466E-01	2.850322E-03
5.451667E+03	1.589140E-01	2.835373E-03
5.461561E+03	1.582046E-01	2.821255E-03
5.471455E+03	1.575218E-01	2.807975E-03
5.481350E+03	1.568690E-01	2.795544E-03
5.491244E+03	1.562501E-01	2.783982E-03
5.501138E+03	1.556654E-01	2.773242E-03
5.511032E+03	1.551162E-01	2.763301E-03
5.520926E+03	1.546020E-01	2.754108E-03
5.530820E+03	1.541277E-01	2.745702E-03
5.540714E+03	1.536941E-01	2.738058E-03
5.550608E+03	1.533046E-01	2.731197E-03
5.560503E+03	1.529621E-01	2.725131E-03
5.570397E+03	1.526739E-01	2.719953E-03
5.580291E+03	1.524484E-01	2.715778E-03
5.590185E+03	1.522902E-01	2.712653E-03
5.600079E+03	1.522093E-01	2.710725E-03
5.609973E+03	1.522145E-01	2.710118E-03
5.619867E+03	1.523147E-01	2.710959E-03
5.629762E+03	1.525183E-01	2.713366E-03
5.639656E+03	1.528330E-01	2.717448E-03
5.649550E+03	1.532657E-01	2.723296E-03
5.659444E+03	1.538204E-01	2.730949E-03
5.669338E+03	1.545042E-01	2.740502E-03
5.679232E+03	1.553163E-01	2.751909E-03
5.689126E+03	1.562580E-01	2.765160E-03
5.699020E+03	1.573270E-01	2.780180E-03
5.708915E+03	1.585168E-01	2.796821E-03
5.718809E+03	1.598209E-01	2.814934E-03
5.728703E+03	1.612270E-01	2.834267E-03
5.738597E+03	1.627218E-01	2.854552E-03
5.748491E+03	1.642907E-01	2.875500E-03
5.758385E+03	1.659134E-01	2.896727E-03
5.768279E+03	1.675696E-01	2.917848E-03
5.778174E+03	1.692370E-01	2.938454E-03
5.788068E+03	1.708907E-01	2.958092E-03
5.797962E+03	1.725078E-01	2.976356E-03
5.807856E+03	1.740637E-01	2.992812E-03
5.817750E+03	1.755301E-01	3.006975E-03
5.827644E+03	1.768864E-01	3.018504E-03
5.837538E+03	1.781086E-01	3.027008E-03
5.847432E+03	1.791750E-01	3.032150E-03
5.857327E+03	1.800706E-01	3.033712E-03
5.867221E+03	1.807830E-01	3.031533E-03
5.877115E+03	1.813008E-01	3.025480E-03
5.887009E+03	1.816236E-01	3.015609E-03
5.896903E+03	1.817562E-01	3.002071E-03
5.906797E+03	1.817059E-01	2.985061E-03
5.916691E+03	1.814930E-01	2.964989E-03
5.926586E+03	1.811391E-01	2.942285E-03
5.936480E+03	1.806707E-01	2.917452E-03
5.946374E+03	1.801199E-01	2.891080E-03
5.956268E+03	1.795226E-01	2.863810E-03
5.966162E+03	1.789170E-01	2.836307E-03
5.976056E+03	1.783403E-01	2.809209E-03
5.985950E+03	1.778302E-01	2.783151E-03
5.995844E+03	1.774291E-01	2.758824E-03
6.005739E+03	1.771708E-01	2.736775E-03
6.015633E+03	1.770903E-01	2.717559E-03
6.025527E+03	1.772203E-01	2.701682E-03
6.035421E+03	1.775899E-01	2.689588E-03
6.045315E+03	1.782237E-01	2.681650E-03
6.055209E+03	1.791422E-01	2.678173E-03
6.065103E+03	1.803584E-01	2.679353E-03
6.074998E+03	1.818816E-01	2.685331E-03
6.084892E+03	1.837103E-01	2.696100E-03
6.094786E+03	1.858355E-01	2.711560E-03
6.104680E+03	1.882358E-01	2.731440E-03
6.114574E+03	1.908777E-01	2.755322E-03
6.124468E+03	1.937107E-01	2.782563E-03
6.134362E+03	1.966695E-01	2.812342E-03
6.144256E+03	1.996659E-01	2.843536E-03
6.154151E+03	2.025945E-01	2.874815E-03
6.164045E+03	2.053319E-01	2.904614E-03
6.173939E+03	2.077362E-01	2.931134E-03
6.183833E+03	2.096615E-01	2.952524E-03
6.193727E+03	2.109633E-01	2.966956E-03
6.203621E+03	2.115269E-01	2.972993E-03
6.213515E+03	2.113139E-01	2.970239E-03
6.223410E+03	2.104105E-01	2.959994E-03
6.233304E+03	2.089854E-01	2.944675E-03
6.243198E+03	2.072317E-01	2.927012E-03
6.253092E+03	2.053361E-01	2.909577E-03
6.262986E+03	2.034670E-01	2.894608E-03
6.272880E+03	2.017704E-01	2.884046E-03
6.282774E+03	2.003624E-01	2.879448E-03
6.292668E+03	1.993329E-01	2.882040E-03
6.302563E+03	1.987478E-01	2.892752E-03
6.312457E+03	1.986502E-01	2.912222E-03
6.322351E+03	1.990697E-01	2.940934E-03
6.332245E+03	2.000184E-01	2.979148E-03
6.342139E+03	2.014965E-01	3.026972E-03
6.352033E+03	2.034913E-01	3.084339E-03
6.361927E+03	2.059852E-01	3.151120E-03
6.371822E+03	2.089467E-01	3.226971E-03
6.381716E+03	2.123371E-01	3.311435E-03
6.391610E+03	2.161085E-01	3.403892E-03
6.401504E+03	2.201977E-01	3.503459E-03
6.411398E+03	2.245412E-01	3.609206E-03
6.421292E+03	2.290568E-01	3.719863E-03
6.431186E+03	2.336612E-01	3.834085E-03
6.441080E+03	2.382706E-01	3.950461E-03
6.450975E+03	2.428048E-01	4.067578E-03
6.460869E+03	2.471859E-01	4.184002E-03
6.470763E+03	2.513507E-01	4.298494E-03
6.480657E+03	2.552336E-01	4.409727E-03
6.490551E+03	2.587740E-01	4.516406E-03
6.500445E+03	2.619117E-01	4.617208E-03
6.510339E+03	2.645952E-01	4.710915E-03
6.520234E+03	2.667706E-01	4.796234E-03
6.530128E+03	2.684001E-01	4.872131E-03
6.540022E+03	2.694540E-01	4.937696E-03
6.549916E+03	2.699096E-01	4.992138E-03
6.559810E+03	2.697690E-01	5.035118E-03
6.569704E+03	2.690321E-01	5.066269E-03
6.579598E+03	2.677180E-01	5.085600E-03
6.589492E+03	2.658503E-01	5.093228E-03
6.599387E+03	2.634611E-01	5.089466E-03
6.609281E+03	2.605898E-01	5.074799E-03
6.619175E+03	2.572773E-01	5.049783E-03
6.629069E+03	2.535782E-01	5.015280E-03
6.638963E+03	2.495409E-01	4.972077E-03
6.648857E+03	2.452154E-01	4.921029E-03
6.658751E+03	2.406605E-01	4.863212E-03
6.668645E+03	2.359257E-01	4.799557E-03
6.678540E+03	2.310650E-01	4.731120E-03
6.688434E+03	2.261224E-01	4.658790E-03
6.698328E+03	2.211528E-01	4.583705E-03
6.708222E+03	2.161949E-01	4.506705E-03
6.718116E+03	2.112886E-01	4.428675E-03
6.728010E+03	2.064716E-01	4.350467E-03
6.737904E+03	2.017745E-01	4.272810E-03
6.747799E+03	1.972234E-01	4.196348E-03
6.757693E+03	1.928403E-01	4.121642E-03
6.767587E+03	1.886430E-01	4.049173E-03
6.777481E+03	1.846434E-01	3.979297E-03
6.787375E+03	1.808559E-01	3.912428E-03
6.797269E+03	1.772855E-01	3.848770E-03
6.807163E+03	1.739370E-01	3.788526E-03
6.817057E+03	1.708131E-01	3.731847E-03
6.826952E+03	1.679167E-01	3.678880E-03
6.836846E+03	1.652422E-01	3.629587E-03
6.846740E+03	1.627891E-01	3.584030E-03
6.856634E+03	1.605488E-01	3.542088E-03
6.866528E+03	1.585126E-01	3.503635E-03
6.876422E+03	1.566719E-01	3.468532E-03
6.886316E+03	1.550126E-01	3.436517E-03
6.896211E+03	1.535217E-01	3.407345E-03
6.906105E+03	1.521850E-01	3.380741E-03
6.915999E+03	1.509897E-01	3.356451E-03
6.925893E+03	1.499187E-01	3.334122E-03
6.935787E+03	1.489562E-01	3.313427E-03
6.945681E+03	1.480879E-01	3.294071E-03
6.955575E+03	1.472959E-01	3.275675E-03
6.965469E+03	1.465645E-01	3.257907E-03
6.975364E+03	1.458781E-01	3.240439E-03
6.985258E+03	1.452220E-01	3.222960E-03
6.995152E+03	1.445840E-01	3.205218E-03
7.005046E+03	1.439492E-01	3.186903E-03
7.014940E+03	1.433059E-01	3.167775E-03
7.024834E+03	1.426439E-01	3.147634E-03
7.034728E+03	1.419547E-01	3.126316E-03
7.044623E+03	1.412320E-01	3.103712E-03
7.054517E+03	1.404722E-01	3.079773E-03
7.064411E+03	1.396759E-01	3.054545E-03
7.074305E+03	1.388401E-01	3.027996E-03
7.084199E+03	1.379709E-01	3.000298E-03
7.094093E+03	1.370689E-01	2.971500E-03
7.103987E+03	1.361422E-01	2.941819E-03
7.113881E+03	1.351928E-01	2.911330E-03
7.123776E+03	1.342294E-01	2.880266E-03
7.133670E+03	1.332542E-01	2.848710E-03
7.143564E+03	1.322760E-01	2.816887E-03
7.153458E+03	1.312963E-01	2.784871E-03
7.163352E+03	1.303233E-01	2.752873E-03
7.173246E+03	1.293578E-01	2.720947E-03
7.183140E+03	1.284067E-01	2.689273E-03
7.193035E+03	1.274694E-01	2.657879E-03
7.202929E+03	1.265509E-01	2.626905E-03
7.212823E+03	1.256487E-01	2.596336E-03
7.222717E+03	1.247658E-01	2.566273E-03
7.232611E+03	1.238975E-01	2.536660E-03
7.242505E+03	1.230447E-01	2.507555E-03
7.252399E+03	1.222015E-01	2.478880E-03
7.262293E+03	1.213677E-01	2.450673E-03
7.272188E+03	1.205380E-01	2.422878E-03
7.282082E+03	1.197078E-01	2.395445E-03
7.291976E+03	1.188772E-01	2.368428E-03
7.301870E+03	1.180425E-01	2.341802E-03
7.311764E+03	1.172003E-01	2.315553E-03
7.321658E+03	1.163512E-01	2.289744E-03
7.331552E+03	1.154947E-01	2.264418E-03
7.341447E+03	1.146296E-01	2.239602E-03
7.351341E+03	1.137581E-01	2.215390E-03
7.361235E+03	1.128799E-01	2.191830E-03
7.371129E+03	1.119983E-01	2.169036E-03
7.381023E+03	1.111160E-01	2.147106E-03
7.390917E+03	1.102332E-01	2.126090E-03
7.400811E+03	1.093573E-01	2.106178E-03
7.410705E+03	1.084889E-01	2.087422E-03
7.420600E+03	1.076312E-01	2.069924E-03
7.430494E+03	1.067898E-01	2.053834E-03
7.440388E+03	1.059629E-01	2.039151E-03
7.450282E+03	1.051567E-01	2.026031E-03
7.460176E+03	1.043710E-01	2.014503E-03
7.470070E+03	1.036105E-01	2.004686E-03
7.479964E+03	1.028773E-01	1.996654E-03
7.489859E+03	1.021763E-01	1.990530E-03
7.499753E+03	1.015092E-01	1.986373E-03
7.509647E+03	1.008787E-01	1.984265E-03
7.519541E+03	1.002885E-01	1.984301E-03
7.529435E+03	9.973891E-02	1.986488E-03
7.539329E+03	9.923096E-02	1.990819E-03
7.549223E+03	9.876647E-02	1.997301E-03
7.559117E+03	9.834247E-02	2.005846E-03
7.569012E+03	9.796029E-02	2.016455E-03
7.578906E+03	9.761554E-02	2.029011E-03
7.588800E+03	9.730286E-02	2.043377E-03
7.598694E+03	9.701546E-02	2.059379E-03
7.608588E+03	9.674589E-02	2.076829E-03
7.618482E+03	9.648799E-02	2.095557E-03
7.628376E+03	9.623303E-02	2.115332E-03
7.638271E+03	9.597962E-02	2.136077E-03
7.648165E+03	9.572987E-02	2.157795E-03
7.658059E+03	9.548370E-02	2.180440E-03
7.667953E+03	9.524674E-02	2.204099E-03
7.677847E+03	9.501888E-02	2.228733E-03
