#wls	flux	fluxerr
1.583061E+03	9.649737E-02	9.188432E-03
1.622638E+03	9.902274E-02	9.308446E-03
1.662214E+03	1.015907E-01	9.424845E-03
1.701791E+03	1.042109E-01	9.538286E-03
1.741367E+03	1.068698E-01	9.647303E-03
1.780944E+03	1.095491E-01	9.750067E-03
1.820520E+03	1.122253E-01	9.844389E-03
1.860097E+03	1.148922E-01	9.929730E-03
1.899673E+03	1.175205E-01	1.000360E-02
1.939250E+03	1.200590E-01	1.006187E-02
1.978827E+03	1.225326E-01	1.010696E-02
2.018403E+03	1.249132E-01	1.013685E-02
2.057980E+03	1.272404E-01	1.015514E-02
2.097556E+03	1.295270E-01	1.016310E-02
2.137133E+03	1.318469E-01	1.016667E-02
2.176709E+03	1.342958E-01	1.017303E-02
2.216286E+03	1.369400E-01	1.018660E-02
2.255862E+03	1.398960E-01	1.021506E-02
2.295439E+03	1.431855E-01	1.025870E-02
2.335015E+03	1.468848E-01	1.032144E-02
2.374592E+03	1.508882E-01	1.039425E-02
2.414168E+03	1.552270E-01	1.047793E-02
2.453745E+03	1.598107E-01	1.056505E-02
2.493321E+03	1.645946E-01	1.065165E-02
2.532898E+03	1.695138E-01	1.073280E-02
2.572475E+03	1.745583E-01	1.080729E-02
2.612051E+03	1.797472E-01	1.087580E-02
2.651628E+03	1.850221E-01	1.093432E-02
2.691204E+03	1.904066E-01	1.098395E-02
2.730781E+03	1.959672E-01	1.102801E-02
2.770357E+03	2.017236E-01	1.106682E-02
2.809934E+03	2.078136E-01	1.110692E-02
2.849510E+03	2.143889E-01	1.115482E-02
2.889087E+03	2.215714E-01	1.121475E-02
2.928663E+03	2.294742E-01	1.128982E-02
2.968240E+03	2.382874E-01	1.138629E-02
2.978134E+03	2.406453E-01	1.141392E-02
2.988028E+03	2.430847E-01	1.144377E-02
2.997922E+03	2.455748E-01	1.147429E-02
3.007816E+03	2.481152E-01	1.150545E-02
3.017710E+03	2.507373E-01	1.153864E-02
3.027605E+03	2.534093E-01	1.157231E-02
3.037499E+03	2.561933E-01	1.160925E-02
3.047393E+03	2.590257E-01	1.164649E-02
3.057287E+03	2.619049E-01	1.168391E-02
3.067181E+03	2.648929E-01	1.172422E-02
3.077075E+03	2.679243E-01	1.176445E-02
3.086969E+03	2.710603E-01	1.180722E-02
3.096864E+03	2.742348E-01	1.184959E-02
3.106758E+03	2.774757E-01	1.189271E-02
3.116652E+03	2.808117E-01	1.193777E-02
3.126546E+03	2.841740E-01	1.198177E-02
3.136440E+03	2.876218E-01	1.202717E-02
3.146334E+03	2.911168E-01	1.207232E-02
3.156228E+03	2.946527E-01	1.211694E-02
3.166122E+03	2.982538E-01	1.216197E-02
3.176017E+03	3.019120E-01	1.220706E-02
3.185911E+03	3.055529E-01	1.224918E-02
3.195805E+03	3.092634E-01	1.229183E-02
3.205699E+03	3.129670E-01	1.233194E-02
3.215593E+03	3.166830E-01	1.237030E-02
3.225487E+03	3.203978E-01	1.240640E-02
3.235381E+03	3.240960E-01	1.243967E-02
3.245276E+03	3.277612E-01	1.246954E-02
3.255170E+03	3.313754E-01	1.249538E-02
3.265064E+03	3.349199E-01	1.251660E-02
3.274958E+03	3.383741E-01	1.253251E-02
3.284852E+03	3.417496E-01	1.254368E-02
3.294746E+03	3.450232E-01	1.254936E-02
3.304640E+03	3.481398E-01	1.254771E-02
3.314534E+03	3.510752E-01	1.253806E-02
3.324429E+03	3.538687E-01	1.252200E-02
3.334323E+03	3.564313E-01	1.249659E-02
3.344217E+03	3.587700E-01	1.246234E-02
3.354111E+03	3.608910E-01	1.241972E-02
3.364005E+03	3.627073E-01	1.236599E-02
3.373899E+03	3.642572E-01	1.230277E-02
3.383793E+03	3.655176E-01	1.222960E-02
3.393688E+03	3.664367E-01	1.214504E-02
3.403582E+03	3.669948E-01	1.204882E-02
3.413476E+03	3.672331E-01	1.194263E-02
3.423370E+03	3.670751E-01	1.182434E-02
3.433264E+03	3.665627E-01	1.169567E-02
3.443158E+03	3.656221E-01	1.155463E-02
3.453052E+03	3.642909E-01	1.140278E-02
3.462946E+03	3.625563E-01	1.124005E-02
3.472841E+03	3.603917E-01	1.106592E-02
3.482735E+03	3.578325E-01	1.088181E-02
3.492629E+03	3.548937E-01	1.068846E-02
3.502523E+03	3.515955E-01	1.048677E-02
3.512417E+03	3.479629E-01	1.027771E-02
3.522311E+03	3.440247E-01	1.006239E-02
3.532205E+03	3.398352E-01	9.842577E-03
3.542100E+03	3.354053E-01	9.618753E-03
3.551994E+03	3.308128E-01	9.393279E-03
3.561888E+03	3.260504E-01	9.166043E-03
3.571782E+03	3.211746E-01	8.938711E-03
3.581676E+03	3.162392E-01	8.712820E-03
3.591570E+03	3.112578E-01	8.488748E-03
3.601464E+03	3.062814E-01	8.267869E-03
3.611358E+03	3.013215E-01	8.050452E-03
3.621253E+03	2.964414E-01	7.838118E-03
3.631147E+03	2.916326E-01	7.630551E-03
3.641041E+03	2.869518E-01	7.429129E-03
3.650935E+03	2.824186E-01	7.234222E-03
3.660829E+03	2.780223E-01	7.045416E-03
3.670723E+03	2.738223E-01	6.864063E-03
3.680617E+03	2.698156E-01	6.689912E-03
3.690512E+03	2.660100E-01	6.522977E-03
3.700406E+03	2.624091E-01	6.363170E-03
3.710300E+03	2.590131E-01	6.210319E-03
3.720194E+03	2.558430E-01	6.064738E-03
3.730088E+03	2.528676E-01	5.925514E-03
3.739982E+03	2.500913E-01	5.792577E-03
3.749876E+03	2.475047E-01	5.665554E-03
3.759770E+03	2.450973E-01	5.544048E-03
3.769665E+03	2.428685E-01	5.427906E-03
3.779559E+03	2.407955E-01	5.316481E-03
3.789453E+03	2.388859E-01	5.209817E-03
3.799347E+03	2.371060E-01	5.107067E-03
3.809241E+03	2.354525E-01	5.008064E-03
3.819135E+03	2.339115E-01	4.912426E-03
3.829029E+03	2.324695E-01	4.819799E-03
3.838924E+03	2.311219E-01	4.730028E-03
3.848818E+03	2.298477E-01	4.642630E-03
3.858712E+03	2.286428E-01	4.557488E-03
3.868606E+03	2.274965E-01	4.474365E-03
3.878500E+03	2.263912E-01	4.392897E-03
3.888394E+03	2.253266E-01	4.313077E-03
3.898288E+03	2.243026E-01	4.234909E-03
3.908182E+03	2.232988E-01	4.158016E-03
3.918077E+03	2.223182E-01	4.082476E-03
3.927971E+03	2.213570E-01	4.008251E-03
3.937865E+03	2.204133E-01	3.935334E-03
3.947759E+03	2.194918E-01	3.863850E-03
3.957653E+03	2.185791E-01	3.793599E-03
3.967547E+03	2.176875E-01	3.724847E-03
3.977441E+03	2.168048E-01	3.657433E-03
3.987336E+03	2.159378E-01	3.591530E-03
3.997230E+03	2.150921E-01	3.527285E-03
4.007124E+03	2.142556E-01	3.464564E-03
4.017018E+03	2.134274E-01	3.403420E-03
4.026912E+03	2.126105E-01	3.343979E-03
4.036806E+03	2.118015E-01	3.286261E-03
4.046700E+03	2.109854E-01	3.230122E-03
4.056594E+03	2.101677E-01	3.175738E-03
4.066489E+03	2.093335E-01	3.122980E-03
4.076383E+03	2.084838E-01	3.071967E-03
4.086277E+03	2.076119E-01	3.022705E-03
4.096171E+03	2.067134E-01	2.975238E-03
4.106065E+03	2.058004E-01	2.929847E-03
4.115959E+03	2.048651E-01	2.886520E-03
4.125853E+03	2.039203E-01	2.845538E-03
4.135748E+03	2.029762E-01	2.807133E-03
4.145642E+03	2.020405E-01	2.771491E-03
4.155536E+03	2.011219E-01	2.738810E-03
4.165430E+03	2.002339E-01	2.709335E-03
4.175324E+03	1.993857E-01	2.683248E-03
4.185218E+03	1.985894E-01	2.660763E-03
4.195112E+03	1.978521E-01	2.642014E-03
4.205006E+03	1.971827E-01	2.627152E-03
4.214901E+03	1.965812E-01	2.616178E-03
4.224795E+03	1.960534E-01	2.609056E-03
4.234689E+03	1.955999E-01	2.605655E-03
4.244583E+03	1.952245E-01	2.605883E-03
4.254477E+03	1.949231E-01	2.609544E-03
4.264371E+03	1.946922E-01	2.616449E-03
4.274265E+03	1.945143E-01	2.626219E-03
4.284159E+03	1.943556E-01	2.638256E-03
4.294054E+03	1.941776E-01	2.651881E-03
4.303948E+03	1.939486E-01	2.666504E-03
4.313842E+03	1.936407E-01	2.681567E-03
4.323736E+03	1.932332E-01	2.696608E-03
4.333630E+03	1.927161E-01	2.711299E-03
4.343524E+03	1.920746E-01	2.725246E-03
4.353418E+03	1.913152E-01	2.738352E-03
4.363313E+03	1.904386E-01	2.750440E-03
4.373207E+03	1.894502E-01	2.761408E-03
4.383101E+03	1.883642E-01	2.771290E-03
4.392995E+03	1.871943E-01	2.780126E-03
4.402889E+03	1.859523E-01	2.787942E-03
4.412783E+03	1.846624E-01	2.794965E-03
4.422677E+03	1.833417E-01	2.801334E-03
4.432571E+03	1.820141E-01	2.807312E-03
4.442466E+03	1.806923E-01	2.813005E-03
4.452360E+03	1.793923E-01	2.818591E-03
4.462254E+03	1.781224E-01	2.824135E-03
4.472148E+03	1.768902E-01	2.829709E-03
4.482042E+03	1.756968E-01	2.835283E-03
4.491936E+03	1.745510E-01	2.840963E-03
4.501830E+03	1.734490E-01	2.846658E-03
4.511725E+03	1.723913E-01	2.852347E-03
4.521619E+03	1.713826E-01	2.858085E-03
4.531513E+03	1.704210E-01	2.863823E-03
4.541407E+03	1.695070E-01	2.869555E-03
4.551301E+03	1.686417E-01	2.875286E-03
4.561195E+03	1.678265E-01	2.881031E-03
4.571089E+03	1.670612E-01	2.886779E-03
4.580983E+03	1.663502E-01	2.892601E-03
4.590878E+03	1.656962E-01	2.898540E-03
4.600772E+03	1.651019E-01	2.904647E-03
4.610666E+03	1.645684E-01	2.910939E-03
4.620560E+03	1.640987E-01	2.917474E-03
4.630454E+03	1.636979E-01	2.924342E-03
4.640348E+03	1.633646E-01	2.931526E-03
4.650242E+03	1.631051E-01	2.939142E-03
4.660137E+03	1.629193E-01	2.947193E-03
4.670031E+03	1.628085E-01	2.955705E-03
4.679925E+03	1.627732E-01	2.964691E-03
4.689819E+03	1.628110E-01	2.974110E-03
4.699713E+03	1.629204E-01	2.983934E-03
4.709607E+03	1.630966E-01	2.994076E-03
4.719501E+03	1.633374E-01	3.004491E-03
4.729395E+03	1.636332E-01	3.014999E-03
4.739290E+03	1.639787E-01	3.025497E-03
4.749184E+03	1.643616E-01	3.035750E-03
4.759078E+03	1.647703E-01	3.045536E-03
4.768972E+03	1.651962E-01	3.054691E-03
4.778866E+03	1.656246E-01	3.062929E-03
4.788760E+03	1.660438E-01	3.070032E-03
4.798654E+03	1.664368E-01	3.075675E-03
4.808549E+03	1.667922E-01	3.079645E-03
4.818443E+03	1.670975E-01	3.081712E-03
4.828337E+03	1.673396E-01	3.081635E-03
4.838231E+03	1.675104E-01	3.079272E-03
4.848125E+03	1.675977E-01	3.074411E-03
4.858019E+03	1.675969E-01	3.066982E-03
4.867913E+03	1.675014E-01	3.056885E-03
4.877807E+03	1.673104E-01	3.044130E-03
4.887702E+03	1.670197E-01	3.028672E-03
4.897596E+03	1.666329E-01	3.010613E-03
4.907490E+03	1.661543E-01	2.990066E-03
4.917384E+03	1.655885E-01	2.967157E-03
4.927278E+03	1.649456E-01	2.942108E-03
4.937172E+03	1.642310E-01	2.915064E-03
4.947066E+03	1.634584E-01	2.886311E-03
4.956961E+03	1.626340E-01	2.856007E-03
4.966855E+03	1.617697E-01	2.824407E-03
4.976749E+03	1.608756E-01	2.791731E-03
4.986643E+03	1.599614E-01	2.758192E-03
4.996537E+03	1.590369E-01	2.723999E-03
5.006431E+03	1.581096E-01	2.689323E-03
5.016325E+03	1.571907E-01	2.654391E-03
5.026219E+03	1.562874E-01	2.619362E-03
5.036114E+03	1.554123E-01	2.584479E-03
5.046008E+03	1.545711E-01	2.549865E-03
5.055902E+03	1.537727E-01	2.515696E-03
5.065796E+03	1.530292E-01	2.482192E-03
5.075690E+03	1.523456E-01	2.449453E-03
5.085584E+03	1.517291E-01	2.417616E-03
5.095478E+03	1.511893E-01	2.386846E-03
5.105373E+03	1.507291E-01	2.357201E-03
5.115267E+03	1.503497E-01	2.328713E-03
5.125161E+03	1.500534E-01	2.301429E-03
5.135055E+03	1.498404E-01	2.275367E-03
5.144949E+03	1.497047E-01	2.250448E-03
5.154843E+03	1.496432E-01	2.226647E-03
5.164737E+03	1.496518E-01	2.203927E-03
5.174631E+03	1.497207E-01	2.182173E-03
5.184526E+03	1.498461E-01	2.161365E-03
5.194420E+03	1.500192E-01	2.141416E-03
5.204314E+03	1.502326E-01	2.122270E-03
5.214208E+03	1.504790E-01	2.103877E-03
5.224102E+03	1.507507E-01	2.086192E-03
5.233996E+03	1.510415E-01	2.069198E-03
5.243890E+03	1.513416E-01	2.052833E-03
5.253785E+03	1.516421E-01	2.037058E-03
5.263679E+03	1.519336E-01	2.021832E-03
5.273573E+03	1.522075E-01	2.007132E-03
5.283467E+03	1.524515E-01	1.992895E-03
5.293361E+03	1.526549E-01	1.979078E-03
5.303255E+03	1.528069E-01	1.965645E-03
5.313149E+03	1.528987E-01	1.952586E-03
5.323043E+03	1.529176E-01	1.939841E-03
5.332938E+03	1.528587E-01	1.927446E-03
5.342832E+03	1.527137E-01	1.915389E-03
5.352726E+03	1.524778E-01	1.903699E-03
5.362620E+03	1.521492E-01	1.892428E-03
5.372514E+03	1.517318E-01	1.881682E-03
5.382408E+03	1.512348E-01	1.871546E-03
5.392302E+03	1.506752E-01	1.862145E-03
5.402196E+03	1.500648E-01	1.853533E-03
5.412091E+03	1.494180E-01	1.845786E-03
5.421985E+03	1.487511E-01	1.839003E-03
5.431879E+03	1.480718E-01	1.833172E-03
5.441773E+03	1.473934E-01	1.828351E-03
5.451667E+03	1.467249E-01	1.824548E-03
5.461561E+03	1.460721E-01	1.821730E-03
5.471455E+03	1.454409E-01	1.819872E-03
5.481350E+03	1.448374E-01	1.818953E-03
5.491244E+03	1.442637E-01	1.818907E-03
5.501138E+03	1.437254E-01	1.819717E-03
5.511032E+03	1.432220E-01	1.821293E-03
5.520926E+03	1.427573E-01	1.823603E-03
5.530820E+03	1.423336E-01	1.826603E-03
5.540714E+03	1.419541E-01	1.830263E-03
5.550608E+03	1.416222E-01	1.834564E-03
5.560503E+03	1.413427E-01	1.839503E-03
5.570397E+03	1.411221E-01	1.845112E-03
5.580291E+03	1.409653E-01	1.851403E-03
5.590185E+03	1.408806E-01	1.858436E-03
5.600079E+03	1.408741E-01	1.866248E-03
5.609973E+03	1.409534E-01	1.874900E-03
5.619867E+03	1.411277E-01	1.884476E-03
5.629762E+03	1.414029E-01	1.895022E-03
5.639656E+03	1.417858E-01	1.906597E-03
5.649550E+03	1.422837E-01	1.919265E-03
5.659444E+03	1.428998E-01	1.933042E-03
5.669338E+03	1.436373E-01	1.947939E-03
5.679232E+03	1.444976E-01	1.963943E-03
5.689126E+03	1.454816E-01	1.981034E-03
5.699020E+03	1.465849E-01	1.999118E-03
5.708915E+03	1.478009E-01	2.018069E-03
5.718809E+03	1.491246E-01	2.037779E-03
5.728703E+03	1.505442E-01	2.058048E-03
5.738597E+03	1.520453E-01	2.078635E-03
5.748491E+03	1.536142E-01	2.099310E-03
5.758385E+03	1.552334E-01	2.119790E-03
5.768279E+03	1.568836E-01	2.139766E-03
5.778174E+03	1.585425E-01	2.158892E-03
5.788068E+03	1.601878E-01	2.176825E-03
5.797962E+03	1.617984E-01	2.193241E-03
5.807856E+03	1.633494E-01	2.207774E-03
5.817750E+03	1.648182E-01	2.220093E-03
5.827644E+03	1.661845E-01	2.229907E-03
5.837538E+03	1.674250E-01	2.236898E-03
5.847432E+03	1.685236E-01	2.240855E-03
5.857327E+03	1.694645E-01	2.241579E-03
5.867221E+03	1.702407E-01	2.239005E-03
5.877115E+03	1.708421E-01	2.233033E-03
5.887009E+03	1.712720E-01	2.223753E-03
5.896903E+03	1.715349E-01	2.211276E-03
5.906797E+03	1.716428E-01	2.195817E-03
5.916691E+03	1.716136E-01	2.177670E-03
5.926586E+03	1.714707E-01	2.157198E-03
5.936480E+03	1.712407E-01	2.134803E-03
5.946374E+03	1.709560E-01	2.110953E-03
5.956268E+03	1.706542E-01	2.086165E-03
5.966162E+03	1.703701E-01	2.060915E-03
5.976056E+03	1.701451E-01	2.035741E-03
5.985950E+03	1.700196E-01	2.011150E-03
5.995844E+03	1.700308E-01	1.987597E-03
6.005739E+03	1.702218E-01	1.965581E-03
6.015633E+03	1.706274E-01	1.945491E-03
6.025527E+03	1.712840E-01	1.927713E-03
6.035421E+03	1.722235E-01	1.912569E-03
6.045315E+03	1.734777E-01	1.900366E-03
6.055209E+03	1.750689E-01	1.891298E-03
6.065103E+03	1.770174E-01	1.885531E-03
6.074998E+03	1.793343E-01	1.883142E-03
6.084892E+03	1.820201E-01	1.884102E-03
6.094786E+03	1.850670E-01	1.888324E-03
6.104680E+03	1.884472E-01	1.895543E-03
6.114574E+03	1.921180E-01	1.905393E-03
6.124468E+03	1.960179E-01	1.917381E-03
6.134362E+03	2.000571E-01	1.930805E-03
6.144256E+03	2.041237E-01	1.944834E-03
6.154151E+03	2.080655E-01	1.958342E-03
6.164045E+03	2.117035E-01	1.970048E-03
6.173939E+03	2.148224E-01	1.978425E-03
6.183833E+03	2.171981E-01	1.981940E-03
6.193727E+03	2.186040E-01	1.979082E-03
6.203621E+03	2.188580E-01	1.968740E-03
6.213515E+03	2.179100E-01	1.950933E-03
6.223410E+03	2.159180E-01	1.927427E-03
6.233304E+03	2.131719E-01	1.901014E-03
6.243198E+03	2.099884E-01	1.874596E-03
6.253092E+03	2.066545E-01	1.850726E-03
6.262986E+03	2.034166E-01	1.831444E-03
6.272880E+03	2.004715E-01	1.818229E-03
6.282774E+03	1.979633E-01	1.812127E-03
6.292668E+03	1.959854E-01	1.813793E-03
6.302563E+03	1.946049E-01	1.823719E-03
6.312457E+03	1.938572E-01	1.842176E-03
6.322351E+03	1.937552E-01	1.869289E-03
6.332245E+03	1.942987E-01	1.905117E-03
6.342139E+03	1.954781E-01	1.949669E-03
6.352033E+03	1.972700E-01	2.002852E-03
6.361927E+03	1.996423E-01	2.064504E-03
6.371822E+03	2.025586E-01	2.134426E-03
6.381716E+03	2.059700E-01	2.212281E-03
6.391610E+03	2.098209E-01	2.297635E-03
6.401504E+03	2.140422E-01	2.389877E-03
6.411398E+03	2.185632E-01	2.488323E-03
6.421292E+03	2.233038E-01	2.592124E-03
6.431186E+03	2.281740E-01	2.700248E-03
6.441080E+03	2.330908E-01	2.811662E-03
6.450975E+03	2.379669E-01	2.925206E-03
6.460869E+03	2.427207E-01	3.039705E-03
6.470763E+03	2.472717E-01	3.153927E-03
6.480657E+03	2.515463E-01	3.266647E-03
6.490551E+03	2.554746E-01	3.376628E-03
6.500445E+03	2.589915E-01	3.482630E-03
6.510339E+03	2.620315E-01	3.583352E-03
6.520234E+03	2.645442E-01	3.677652E-03
6.530128E+03	2.664830E-01	3.764400E-03
6.540022E+03	2.678125E-01	3.842600E-03
6.549916E+03	2.685117E-01	3.911446E-03
6.559810E+03	2.685749E-01	3.970353E-03
6.569704E+03	2.680065E-01	4.018899E-03
6.579598E+03	2.668214E-01	4.056849E-03
6.589492E+03	2.650479E-01	4.084197E-03
6.599387E+03	2.627138E-01	4.100980E-03
6.609281E+03	2.598660E-01	4.107574E-03
6.619175E+03	2.565488E-01	4.104371E-03
6.629069E+03	2.528136E-01	4.091933E-03
6.638963E+03	2.487176E-01	4.070970E-03
6.648857E+03	2.443140E-01	4.042184E-03
6.658751E+03	2.396617E-01	4.006427E-03
6.668645E+03	2.348107E-01	3.964455E-03
6.678540E+03	2.298204E-01	3.917225E-03
6.688434E+03	2.247421E-01	3.865611E-03
6.698328E+03	2.196222E-01	3.810431E-03
6.708222E+03	2.145033E-01	3.752479E-03
6.718116E+03	2.094340E-01	3.692681E-03
6.728010E+03	2.044437E-01	3.631648E-03
6.737904E+03	1.995670E-01	3.570105E-03
6.747799E+03	1.948339E-01	3.508706E-03
6.757693E+03	1.902650E-01	3.447952E-03
6.767587E+03	1.858793E-01	3.388316E-03
6.777481E+03	1.816918E-01	3.330202E-03
6.787375E+03	1.777136E-01	3.273947E-03
6.797269E+03	1.739548E-01	3.219864E-03
6.807163E+03	1.704165E-01	3.168093E-03
6.817057E+03	1.671031E-01	3.118836E-03
6.826952E+03	1.640168E-01	3.072241E-03
6.836846E+03	1.611513E-01	3.028292E-03
6.846740E+03	1.585060E-01	2.987068E-03
6.856634E+03	1.560723E-01	2.948495E-03
6.866528E+03	1.538398E-01	2.912451E-03
6.876422E+03	1.518021E-01	2.878880E-03
6.886316E+03	1.499459E-01	2.847587E-03
6.896211E+03	1.482566E-01	2.818349E-03
6.906105E+03	1.467243E-01	2.791021E-03
6.915999E+03	1.453331E-01	2.765334E-03
6.925893E+03	1.440663E-01	2.741007E-03
6.935787E+03	1.429125E-01	2.717846E-03
6.945681E+03	1.418545E-01	2.695550E-03
6.955575E+03	1.408772E-01	2.673851E-03
6.965469E+03	1.399638E-01	2.652449E-03
6.975364E+03	1.391031E-01	2.631150E-03
6.985258E+03	1.382795E-01	2.609675E-03
6.995152E+03	1.374796E-01	2.587793E-03
7.005046E+03	1.366913E-01	2.565293E-03
7.014940E+03	1.359035E-01	2.541991E-03
7.024834E+03	1.351067E-01	2.517732E-03
7.034728E+03	1.342947E-01	2.492428E-03
7.044623E+03	1.334578E-01	2.465933E-03
7.054517E+03	1.325937E-01	2.438237E-03
7.064411E+03	1.317019E-01	2.409363E-03
7.074305E+03	1.307800E-01	2.379313E-03
7.084199E+03	1.298293E-01	2.348146E-03
7.094093E+03	1.288521E-01	2.315947E-03
7.103987E+03	1.278516E-01	2.282819E-03
7.113881E+03	1.268334E-01	2.248905E-03
7.123776E+03	1.257986E-01	2.214268E-03
7.133670E+03	1.247566E-01	2.179120E-03
7.143564E+03	1.237070E-01	2.143496E-03
7.153458E+03	1.226576E-01	2.107575E-03
7.163352E+03	1.216108E-01	2.071440E-03
7.173246E+03	1.205719E-01	2.035225E-03
7.183140E+03	1.195426E-01	1.999000E-03
7.193035E+03	1.185270E-01	1.962877E-03
7.202929E+03	1.175271E-01	1.926928E-03
7.212823E+03	1.165425E-01	1.891191E-03
7.222717E+03	1.155751E-01	1.855741E-03
7.232611E+03	1.146248E-01	1.820619E-03
7.242505E+03	1.136892E-01	1.785835E-03
7.252399E+03	1.127699E-01	1.751465E-03
7.262293E+03	1.118638E-01	1.717513E-03
7.272188E+03	1.109692E-01	1.684009E-03
7.282082E+03	1.100860E-01	1.651008E-03
7.291976E+03	1.092112E-01	1.618530E-03
7.301870E+03	1.083453E-01	1.586647E-03
7.311764E+03	1.074861E-01	1.555398E-03
7.321658E+03	1.066336E-01	1.524854E-03
7.331552E+03	1.057896E-01	1.495116E-03
7.341447E+03	1.049548E-01	1.466274E-03
7.351341E+03	1.041277E-01	1.438386E-03
7.361235E+03	1.033114E-01	1.411579E-03
7.371129E+03	1.025081E-01	1.385966E-03
7.381023E+03	1.017202E-01	1.361667E-03
7.390917E+03	1.009518E-01	1.338821E-03
7.400811E+03	1.002044E-01	1.317535E-03
7.410705E+03	9.948083E-02	1.297933E-03
7.420600E+03	9.878375E-02	1.280134E-03
7.430494E+03	9.811569E-02	1.264256E-03
7.440388E+03	9.747761E-02	1.250395E-03
7.450282E+03	9.687431E-02	1.238691E-03
7.460176E+03	9.630401E-02	1.229199E-03
7.470070E+03	9.577152E-02	1.222053E-03
7.479964E+03	9.527766E-02	1.217331E-03
7.489859E+03	9.482558E-02	1.215137E-03
7.499753E+03	9.441425E-02	1.215513E-03
7.509647E+03	9.404596E-02	1.218537E-03
7.519541E+03	9.371968E-02	1.224199E-03
7.529435E+03	9.343740E-02	1.232480E-03
7.539329E+03	9.319493E-02	1.243274E-03
7.549223E+03	9.298937E-02	1.256487E-03
7.559117E+03	9.281755E-02	1.272014E-03
7.569012E+03	9.267191E-02	1.289690E-03
7.578906E+03	9.254496E-02	1.309341E-03
7.588800E+03	9.242407E-02	1.330711E-03
7.598694E+03	9.229678E-02	1.353536E-03
7.608588E+03	9.214631E-02	1.377472E-03
7.618482E+03	9.195663E-02	1.402166E-03
7.628376E+03	9.171440E-02	1.427286E-03
7.638271E+03	9.141717E-02	1.452656E-03
7.648165E+03	9.107031E-02	1.478221E-03
7.658059E+03	9.068529E-02	1.504035E-03
7.667953E+03	9.027159E-02	1.530133E-03
7.677847E+03	8.983906E-02	1.556576E-03
