#wls	flux	fluxerr
1.583061E+03	9.940016E-02	9.304807E-03
1.622638E+03	1.018879E-01	9.420427E-03
1.662214E+03	1.044463E-01	9.535547E-03
1.701791E+03	1.070680E-01	9.649218E-03
1.741367E+03	1.097193E-01	9.758202E-03
1.780944E+03	1.124243E-01	9.864482E-03
1.820520E+03	1.151368E-01	9.963871E-03
1.860097E+03	1.178474E-01	1.005553E-02
1.899673E+03	1.204957E-01	1.013442E-02
1.939250E+03	1.230651E-01	1.019942E-02
1.978827E+03	1.255455E-01	1.025004E-02
2.018403E+03	1.278935E-01	1.028321E-02
2.057980E+03	1.301140E-01	1.029988E-02
2.097556E+03	1.322630E-01	1.030499E-02
2.137133E+03	1.344160E-01	1.030471E-02
2.176709E+03	1.366013E-01	1.030127E-02
2.216286E+03	1.390012E-01	1.030806E-02
2.255862E+03	1.416476E-01	1.032664E-02
2.295439E+03	1.446784E-01	1.036595E-02
2.335015E+03	1.480732E-01	1.042306E-02
2.374592E+03	1.518060E-01	1.049475E-02
2.414168E+03	1.558498E-01	1.057784E-02
2.453745E+03	1.601225E-01	1.066566E-02
2.493321E+03	1.645201E-01	1.075050E-02
2.532898E+03	1.689622E-01	1.082673E-02
2.572475E+03	1.733634E-01	1.088881E-02
2.612051E+03	1.777083E-01	1.093596E-02
2.651628E+03	1.819331E-01	1.096459E-02
2.691204E+03	1.861173E-01	1.097991E-02
2.730781E+03	1.902834E-01	1.098336E-02
2.770357E+03	1.945891E-01	1.098378E-02
2.809934E+03	1.991569E-01	1.098734E-02
2.849510E+03	2.042043E-01	1.100465E-02
2.889087E+03	2.098548E-01	1.104035E-02
2.928663E+03	2.162810E-01	1.110098E-02
2.968240E+03	2.236738E-01	1.119313E-02
2.978134E+03	2.256845E-01	1.122124E-02
2.988028E+03	2.277566E-01	1.125107E-02
2.997922E+03	2.299214E-01	1.128412E-02
3.007816E+03	2.321500E-01	1.131887E-02
3.017710E+03	2.344427E-01	1.135530E-02
3.027605E+03	2.368309E-01	1.139484E-02
3.037499E+03	2.393151E-01	1.143745E-02
3.047393E+03	2.418653E-01	1.148159E-02
3.057287E+03	2.445122E-01	1.152867E-02
3.067181E+03	2.472255E-01	1.157717E-02
3.077075E+03	2.500654E-01	1.162984E-02
3.086969E+03	2.529710E-01	1.168374E-02
3.096864E+03	2.559713E-01	1.174016E-02
3.106758E+03	2.590651E-01	1.179895E-02
3.116652E+03	2.622199E-01	1.185856E-02
3.126546E+03	2.654949E-01	1.192159E-02
3.136440E+03	2.688563E-01	1.198644E-02
3.146334E+03	2.723003E-01	1.205287E-02
3.156228E+03	2.758539E-01	1.212198E-02
3.166122E+03	2.794808E-01	1.219211E-02
3.176017E+03	2.831744E-01	1.226291E-02
3.185911E+03	2.869278E-01	1.233403E-02
3.195805E+03	2.907637E-01	1.240640E-02
3.205699E+03	2.946729E-01	1.247957E-02
3.215593E+03	2.986126E-01	1.255167E-02
3.225487E+03	3.026024E-01	1.262352E-02
3.235381E+03	3.066281E-01	1.269451E-02
3.245276E+03	3.106743E-01	1.276397E-02
3.255170E+03	3.147235E-01	1.283121E-02
3.265064E+03	3.187567E-01	1.289546E-02
3.274958E+03	3.227534E-01	1.295594E-02
3.284852E+03	3.266903E-01	1.301179E-02
3.294746E+03	3.305751E-01	1.306337E-02
3.304640E+03	3.343496E-01	1.310850E-02
3.314534E+03	3.380178E-01	1.314746E-02
3.324429E+03	3.415500E-01	1.317921E-02
3.334323E+03	3.449157E-01	1.320275E-02
3.344217E+03	3.480511E-01	1.321584E-02
3.354111E+03	3.509558E-01	1.321870E-02
3.364005E+03	3.536281E-01	1.321151E-02
3.373899E+03	3.560035E-01	1.319212E-02
3.383793E+03	3.580499E-01	1.315964E-02
3.393688E+03	3.597666E-01	1.311439E-02
3.403582E+03	3.610927E-01	1.305448E-02
3.413476E+03	3.620305E-01	1.298038E-02
3.423370E+03	3.625529E-01	1.289148E-02
3.433264E+03	3.626351E-01	1.278732E-02
3.443158E+03	3.622521E-01	1.266742E-02
3.453052E+03	3.614045E-01	1.253223E-02
3.462946E+03	3.600454E-01	1.238052E-02
3.472841E+03	3.581739E-01	1.221267E-02
3.482735E+03	3.558275E-01	1.203038E-02
3.492629E+03	3.530502E-01	1.183548E-02
3.502523E+03	3.498159E-01	1.162745E-02
3.512417E+03	3.461821E-01	1.140855E-02
3.522311E+03	3.422095E-01	1.118105E-02
3.532205E+03	3.379124E-01	1.094568E-02
3.542100E+03	3.333559E-01	1.070477E-02
3.551994E+03	3.285606E-01	1.045916E-02
3.561888E+03	3.236129E-01	1.021174E-02
3.571782E+03	3.185125E-01	9.962608E-03
3.581676E+03	3.133426E-01	9.714431E-03
3.591570E+03	3.081406E-01	9.468392E-03
3.601464E+03	3.029251E-01	9.225057E-03
3.611358E+03	2.977498E-01	8.986035E-03
3.621253E+03	2.926463E-01	8.752218E-03
3.631147E+03	2.876446E-01	8.524411E-03
3.641041E+03	2.827722E-01	8.303321E-03
3.650935E+03	2.780699E-01	8.090014E-03
3.660829E+03	2.735597E-01	7.884973E-03
3.670723E+03	2.692478E-01	7.688203E-03
3.680617E+03	2.651817E-01	7.500875E-03
3.690512E+03	2.613458E-01	7.322349E-03
3.700406E+03	2.577674E-01	7.153187E-03
3.710300E+03	2.544405E-01	6.993012E-03
3.720194E+03	2.513457E-01	6.841089E-03
3.730088E+03	2.484862E-01	6.697316E-03
3.739982E+03	2.458630E-01	6.561535E-03
3.749876E+03	2.434428E-01	6.432675E-03
3.759770E+03	2.412373E-01	6.310889E-03
3.769665E+03	2.392347E-01	6.195700E-03
3.779559E+03	2.374136E-01	6.086408E-03
3.789453E+03	2.357718E-01	5.982819E-03
3.799347E+03	2.342957E-01	5.884466E-03
3.809241E+03	2.329819E-01	5.791144E-03
3.819135E+03	2.318058E-01	5.702134E-03
3.829029E+03	2.307523E-01	5.616976E-03
3.838924E+03	2.298160E-01	5.535464E-03
3.848818E+03	2.289741E-01	5.456982E-03
3.858712E+03	2.282215E-01	5.381359E-03
3.868606E+03	2.275545E-01	5.308465E-03
3.878500E+03	2.269453E-01	5.237619E-03
3.888394E+03	2.264009E-01	5.168963E-03
3.898288E+03	2.258972E-01	5.101936E-03
3.908182E+03	2.254430E-01	5.036735E-03
3.918077E+03	2.250331E-01	4.973244E-03
3.927971E+03	2.246486E-01	4.911052E-03
3.937865E+03	2.242994E-01	4.850399E-03
3.947759E+03	2.239817E-01	4.791217E-03
3.957653E+03	2.236859E-01	4.733324E-03
3.967547E+03	2.234100E-01	4.676712E-03
3.977441E+03	2.231593E-01	4.621525E-03
3.987336E+03	2.229270E-01	4.567659E-03
3.997230E+03	2.227179E-01	4.515252E-03
4.007124E+03	2.225195E-01	4.464097E-03
4.017018E+03	2.223426E-01	4.414458E-03
4.026912E+03	2.221713E-01	4.366074E-03
4.036806E+03	2.220073E-01	4.319038E-03
4.046700E+03	2.218451E-01	4.273305E-03
4.056594E+03	2.216713E-01	4.228687E-03
4.066489E+03	2.214774E-01	4.185098E-03
4.076383E+03	2.212569E-01	4.142500E-03
4.086277E+03	2.209990E-01	4.100774E-03
4.096171E+03	2.207002E-01	4.059950E-03
4.106065E+03	2.203602E-01	4.020109E-03
4.115959E+03	2.199775E-01	3.981315E-03
4.125853E+03	2.195585E-01	3.943768E-03
4.135748E+03	2.191073E-01	3.907624E-03
4.145642E+03	2.186311E-01	3.873085E-03
4.155536E+03	2.181472E-01	3.840527E-03
4.165430E+03	2.176609E-01	3.810104E-03
4.175324E+03	2.171815E-01	3.782034E-03
4.185218E+03	2.167228E-01	3.756607E-03
4.195112E+03	2.162935E-01	3.734015E-03
4.205006E+03	2.158988E-01	3.714388E-03
4.214901E+03	2.155393E-01	3.697770E-03
4.224795E+03	2.152273E-01	3.684394E-03
4.234689E+03	2.149577E-01	3.674112E-03
4.244583E+03	2.147367E-01	3.666931E-03
4.254477E+03	2.145613E-01	3.662702E-03
4.264371E+03	2.144264E-01	3.661236E-03
4.274265E+03	2.143141E-01	3.662122E-03
4.284159E+03	2.141853E-01	3.664591E-03
4.294054E+03	2.140110E-01	3.668035E-03
4.303948E+03	2.137498E-01	3.671629E-03
4.313842E+03	2.133734E-01	3.674764E-03
4.323736E+03	2.128601E-01	3.676937E-03
4.333630E+03	2.121996E-01	3.677827E-03
4.343524E+03	2.113884E-01	3.677234E-03
4.353418E+03	2.104317E-01	3.675102E-03
4.363313E+03	2.093407E-01	3.671480E-03
4.373207E+03	2.081339E-01	3.666548E-03
4.383101E+03	2.068279E-01	3.660465E-03
4.392995E+03	2.054538E-01	3.653647E-03
4.402889E+03	2.040312E-01	3.646324E-03
4.412783E+03	2.025850E-01	3.638830E-03
4.422677E+03	2.011336E-01	3.631397E-03
4.432571E+03	1.996944E-01	3.624250E-03
4.442466E+03	1.982753E-01	3.617452E-03
4.452360E+03	1.968910E-01	3.611198E-03
4.462254E+03	1.955400E-01	3.605397E-03
4.472148E+03	1.942278E-01	3.600095E-03
4.482042E+03	1.929579E-01	3.595298E-03
4.491936E+03	1.917270E-01	3.590903E-03
4.501830E+03	1.905365E-01	3.586887E-03
4.511725E+03	1.893866E-01	3.583216E-03
4.521619E+03	1.882776E-01	3.579859E-03
4.531513E+03	1.872103E-01	3.576800E-03
4.541407E+03	1.861836E-01	3.573985E-03
4.551301E+03	1.851984E-01	3.571410E-03
4.561195E+03	1.842618E-01	3.569186E-03
4.571089E+03	1.833714E-01	3.567247E-03
4.580983E+03	1.825319E-01	3.565669E-03
4.590878E+03	1.817470E-01	3.564506E-03
4.600772E+03	1.810221E-01	3.563858E-03
4.610666E+03	1.803584E-01	3.563735E-03
4.620560E+03	1.797594E-01	3.564202E-03
4.630454E+03	1.792331E-01	3.565409E-03
4.640348E+03	1.787779E-01	3.567321E-03
4.650242E+03	1.784009E-01	3.570075E-03
4.660137E+03	1.781020E-01	3.573669E-03
4.670031E+03	1.778826E-01	3.578128E-03
4.679925E+03	1.777458E-01	3.583510E-03
4.689819E+03	1.776894E-01	3.589771E-03
4.699713E+03	1.777121E-01	3.596879E-03
4.709607E+03	1.778112E-01	3.604775E-03
4.719501E+03	1.779803E-01	3.613323E-03
4.729395E+03	1.782111E-01	3.622352E-03
4.739290E+03	1.784974E-01	3.631724E-03
4.749184E+03	1.788269E-01	3.641184E-03
4.759078E+03	1.791844E-01	3.650413E-03
4.768972E+03	1.795588E-01	3.659175E-03
4.778866E+03	1.799343E-01	3.667137E-03
4.788760E+03	1.803007E-01	3.674088E-03
4.798654E+03	1.806398E-01	3.679648E-03
4.808549E+03	1.809373E-01	3.683525E-03
4.818443E+03	1.811843E-01	3.685531E-03
4.828337E+03	1.813631E-01	3.685312E-03
4.838231E+03	1.814679E-01	3.682755E-03
4.848125E+03	1.814880E-01	3.677650E-03
4.858019E+03	1.814166E-01	3.669874E-03
4.867913E+03	1.812464E-01	3.659298E-03
4.877807E+03	1.809757E-01	3.645909E-03
4.887702E+03	1.806012E-01	3.629666E-03
4.897596E+03	1.801252E-01	3.610646E-03
4.907490E+03	1.795466E-01	3.588863E-03
4.917384E+03	1.788773E-01	3.564589E-03
4.927278E+03	1.781231E-01	3.537977E-03
4.937172E+03	1.772962E-01	3.509314E-03
4.947066E+03	1.764070E-01	3.478842E-03
4.956961E+03	1.754654E-01	3.446800E-03
4.966855E+03	1.744776E-01	3.413350E-03
4.976749E+03	1.734599E-01	3.378850E-03
4.986643E+03	1.724163E-01	3.343421E-03
4.996537E+03	1.713606E-01	3.307365E-03
5.006431E+03	1.703022E-01	3.270902E-03
5.016325E+03	1.692464E-01	3.234169E-03
5.026219E+03	1.682059E-01	3.197442E-03
5.036114E+03	1.671883E-01	3.160896E-03
5.046008E+03	1.662047E-01	3.124769E-03
5.055902E+03	1.652607E-01	3.089193E-03
5.065796E+03	1.643700E-01	3.054448E-03
5.075690E+03	1.635407E-01	3.020705E-03
5.085584E+03	1.627834E-01	2.988174E-03
5.095478E+03	1.621020E-01	2.956942E-03
5.105373E+03	1.615061E-01	2.927196E-03
5.115267E+03	1.609976E-01	2.898982E-03
5.125161E+03	1.605766E-01	2.872309E-03
5.135055E+03	1.602423E-01	2.847177E-03
5.144949E+03	1.599891E-01	2.823496E-03
5.154843E+03	1.598108E-01	2.801174E-03
5.164737E+03	1.597015E-01	2.780127E-03
5.174631E+03	1.596516E-01	2.760208E-03
5.184526E+03	1.596530E-01	2.741307E-03
5.194420E+03	1.596974E-01	2.723314E-03
5.204314E+03	1.597784E-01	2.706154E-03
5.214208E+03	1.598866E-01	2.689711E-03
5.224102E+03	1.600162E-01	2.673932E-03
5.233996E+03	1.601577E-01	2.658709E-03
5.243890E+03	1.603033E-01	2.643963E-03
5.253785E+03	1.604448E-01	2.629616E-03
5.263679E+03	1.605737E-01	2.615589E-03
5.273573E+03	1.606822E-01	2.601821E-03
5.283467E+03	1.607596E-01	2.588200E-03
5.293361E+03	1.607966E-01	2.574648E-03
5.303255E+03	1.607829E-01	2.561064E-03
5.313149E+03	1.607137E-01	2.547445E-03
5.323043E+03	1.605804E-01	2.533721E-03
5.332938E+03	1.603771E-01	2.519862E-03
5.342832E+03	1.600994E-01	2.505864E-03
5.352726E+03	1.597435E-01	2.491722E-03
5.362620E+03	1.593099E-01	2.477500E-03
5.372514E+03	1.588029E-01	2.463267E-03
5.382408E+03	1.582308E-01	2.449102E-03
5.392302E+03	1.576068E-01	2.435148E-03
5.402196E+03	1.569435E-01	2.421538E-03
5.412091E+03	1.562523E-01	2.408379E-03
5.421985E+03	1.555447E-01	2.395778E-03
5.431879E+03	1.548314E-01	2.383833E-03
5.441773E+03	1.541241E-01	2.372649E-03
5.451667E+03	1.534289E-01	2.362253E-03
5.461561E+03	1.527526E-01	2.352680E-03
5.471455E+03	1.521024E-01	2.343974E-03
5.481350E+03	1.514817E-01	2.336121E-03
5.491244E+03	1.508913E-01	2.329074E-03
5.501138E+03	1.503363E-01	2.322848E-03
5.511032E+03	1.498163E-01	2.317381E-03
5.520926E+03	1.493324E-01	2.312632E-03
5.530820E+03	1.488861E-01	2.308572E-03
5.540714E+03	1.484814E-01	2.305212E-03
5.550608E+03	1.481186E-01	2.302509E-03
5.560503E+03	1.478049E-01	2.300527E-03
5.570397E+03	1.475447E-01	2.299292E-03
5.580291E+03	1.473449E-01	2.298871E-03
5.590185E+03	1.472129E-01	2.299339E-03
5.600079E+03	1.471575E-01	2.300795E-03
5.609973E+03	1.471890E-01	2.303366E-03
5.619867E+03	1.473147E-01	2.307132E-03
5.629762E+03	1.475429E-01	2.312192E-03
5.639656E+03	1.478816E-01	2.318636E-03
5.649550E+03	1.483377E-01	2.326543E-03
5.659444E+03	1.489180E-01	2.335986E-03
5.669338E+03	1.496252E-01	2.346974E-03
5.679232E+03	1.504604E-01	2.359494E-03
5.689126E+03	1.514261E-01	2.373548E-03
5.699020E+03	1.525170E-01	2.389019E-03
5.708915E+03	1.537315E-01	2.405846E-03
5.718809E+03	1.550584E-01	2.423815E-03
5.728703E+03	1.564884E-01	2.442741E-03
5.738597E+03	1.580085E-01	2.462384E-03
5.748491E+03	1.596008E-01	2.482425E-03
5.758385E+03	1.612480E-01	2.502560E-03
5.768279E+03	1.629301E-01	2.522441E-03
5.778174E+03	1.646218E-01	2.541646E-03
5.788068E+03	1.663030E-01	2.559835E-03
5.797962E+03	1.679481E-01	2.576592E-03
5.807856E+03	1.695308E-01	2.591498E-03
5.817750E+03	1.710295E-01	2.604215E-03
5.827644E+03	1.724171E-01	2.614330E-03
5.837538E+03	1.736718E-01	2.621522E-03
5.847432E+03	1.747753E-01	2.625535E-03
5.857327E+03	1.757073E-01	2.626096E-03
5.867221E+03	1.764593E-01	2.623119E-03
5.877115E+03	1.770201E-01	2.616490E-03
5.887009E+03	1.773872E-01	2.606230E-03
5.896903E+03	1.775682E-01	2.592519E-03
5.906797E+03	1.775708E-01	2.575546E-03
5.916691E+03	1.774135E-01	2.555654E-03
5.926586E+03	1.771192E-01	2.533249E-03
5.936480E+03	1.767168E-01	2.508825E-03
5.946374E+03	1.762372E-01	2.482890E-03
5.956268E+03	1.757191E-01	2.456055E-03
5.966162E+03	1.752001E-01	2.428904E-03
5.976056E+03	1.747183E-01	2.402016E-03
5.985950E+03	1.743144E-01	2.375984E-03
5.995844E+03	1.740269E-01	2.351365E-03
6.005739E+03	1.738964E-01	2.328719E-03
6.015633E+03	1.739559E-01	2.308497E-03
6.025527E+03	1.742416E-01	2.291176E-03
6.035421E+03	1.747818E-01	2.277118E-03
6.045315E+03	1.756043E-01	2.266672E-03
6.055209E+03	1.767302E-01	2.260094E-03
6.065103E+03	1.781776E-01	2.257601E-03
6.074998E+03	1.799547E-01	2.259290E-03
6.084892E+03	1.820637E-01	2.265190E-03
6.094786E+03	1.844996E-01	2.275260E-03
6.104680E+03	1.872408E-01	2.289272E-03
6.114574E+03	1.902542E-01	2.306887E-03
6.124468E+03	1.934909E-01	2.327611E-03
6.134362E+03	1.968707E-01	2.350616E-03
6.144256E+03	2.002912E-01	2.374860E-03
6.154151E+03	2.036308E-01	2.399119E-03
6.164045E+03	2.067350E-01	2.421836E-03
6.173939E+03	2.094346E-01	2.441323E-03
6.183833E+03	2.115518E-01	2.455819E-03
6.193727E+03	2.128993E-01	2.463464E-03
6.203621E+03	2.133327E-01	2.462874E-03
6.213515E+03	2.128079E-01	2.453778E-03
6.223410E+03	2.114413E-01	2.437680E-03
6.233304E+03	2.094523E-01	2.417192E-03
6.243198E+03	2.070934E-01	2.395251E-03
6.253092E+03	2.045904E-01	2.374431E-03
6.262986E+03	2.021449E-01	2.356899E-03
6.272880E+03	1.999340E-01	2.344535E-03
6.282774E+03	1.980783E-01	2.338602E-03
6.292668E+03	1.966697E-01	2.340084E-03
6.302563E+03	1.957827E-01	2.349818E-03
6.312457E+03	1.954505E-01	2.368201E-03
6.322351E+03	1.956950E-01	2.395544E-03
6.332245E+03	1.965266E-01	2.432056E-03
6.342139E+03	1.979367E-01	2.477748E-03
6.352033E+03	1.999095E-01	2.532560E-03
6.361927E+03	2.024198E-01	2.596328E-03
6.371822E+03	2.054339E-01	2.668782E-03
6.381716E+03	2.089077E-01	2.749507E-03
6.391610E+03	2.127931E-01	2.838018E-03
6.401504E+03	2.170210E-01	2.933524E-03
6.411398E+03	2.215236E-01	3.035202E-03
6.421292E+03	2.262193E-01	3.141995E-03
6.431186E+03	2.310238E-01	3.252741E-03
6.441080E+03	2.358427E-01	3.366072E-03
6.450975E+03	2.405841E-01	3.480577E-03
6.460869E+03	2.451740E-01	3.595034E-03
6.470763E+03	2.495484E-01	3.708307E-03
6.480657E+03	2.536338E-01	3.819061E-03
6.490551E+03	2.573715E-01	3.926133E-03
6.500445E+03	2.607006E-01	4.028272E-03
6.510339E+03	2.635580E-01	4.124149E-03
6.520234E+03	2.658974E-01	4.212656E-03
6.530128E+03	2.676687E-01	4.292589E-03
6.540022E+03	2.688411E-01	4.363030E-03
6.549916E+03	2.694007E-01	4.423317E-03
6.559810E+03	2.693380E-01	4.472869E-03
6.569704E+03	2.686620E-01	4.511414E-03
6.579598E+03	2.673891E-01	4.538830E-03
6.589492E+03	2.655468E-01	4.555212E-03
6.599387E+03	2.631628E-01	4.560693E-03
6.609281E+03	2.602828E-01	4.555755E-03
6.619175E+03	2.569503E-01	4.540893E-03
6.629069E+03	2.532182E-01	4.516806E-03
6.638963E+03	2.491336E-01	4.484146E-03
6.648857E+03	2.447563E-01	4.443839E-03
6.658751E+03	2.401409E-01	4.396761E-03
6.668645E+03	2.353383E-01	4.343771E-03
6.678540E+03	2.304033E-01	4.285837E-03
6.688434E+03	2.253837E-01	4.223838E-03
6.698328E+03	2.203328E-01	4.158788E-03
6.708222E+03	2.152882E-01	4.091438E-03
6.718116E+03	2.102982E-01	4.022770E-03
6.728010E+03	2.053961E-01	3.953497E-03
6.737904E+03	2.006106E-01	3.884268E-03
6.747799E+03	1.959712E-01	3.815752E-03
6.757693E+03	1.915000E-01	3.748488E-03
6.767587E+03	1.872151E-01	3.682948E-03
6.777481E+03	1.831333E-01	3.619573E-03
6.787375E+03	1.792603E-01	3.558589E-03
6.797269E+03	1.756052E-01	3.500289E-03
6.807163E+03	1.721730E-01	3.444880E-03
6.817057E+03	1.689666E-01	3.392519E-03
6.826952E+03	1.659870E-01	3.343327E-03
6.836846E+03	1.632352E-01	3.297408E-03
6.846740E+03	1.607023E-01	3.254670E-03
6.856634E+03	1.583855E-01	3.215130E-03
6.866528E+03	1.562746E-01	3.178648E-03
6.876422E+03	1.543567E-01	3.145022E-03
6.886316E+03	1.526232E-01	3.114130E-03
6.896211E+03	1.510593E-01	3.085718E-03
6.906105E+03	1.496509E-01	3.059534E-03
6.915999E+03	1.483851E-01	3.035349E-03
6.925893E+03	1.472431E-01	3.012812E-03
6.935787E+03	1.462128E-01	2.991696E-03
6.945681E+03	1.452744E-01	2.971621E-03
6.955575E+03	1.444156E-01	2.952354E-03
6.965469E+03	1.436189E-01	2.933557E-03
6.975364E+03	1.428691E-01	2.914932E-03
6.985258E+03	1.421511E-01	2.896195E-03
6.995152E+03	1.414514E-01	2.877084E-03
7.005046E+03	1.407568E-01	2.857353E-03
7.014940E+03	1.400554E-01	2.836783E-03
7.024834E+03	1.393389E-01	2.815229E-03
7.034728E+03	1.385952E-01	2.792471E-03
7.044623E+03	1.378209E-01	2.768475E-03
7.054517E+03	1.370110E-01	2.743172E-03
7.064411E+03	1.361643E-01	2.716571E-03
7.074305E+03	1.352793E-01	2.688682E-03
7.084199E+03	1.343639E-01	2.659701E-03
7.094093E+03	1.334170E-01	2.629645E-03
7.103987E+03	1.324449E-01	2.598680E-03
7.113881E+03	1.314526E-01	2.566947E-03
7.123776E+03	1.304471E-01	2.534624E-03
7.133670E+03	1.294321E-01	2.501822E-03
7.143564E+03	1.284128E-01	2.468684E-03
7.153458E+03	1.273940E-01	2.435344E-03
7.163352E+03	1.263806E-01	2.401933E-03
7.173246E+03	1.253781E-01	2.368598E-03
7.183140E+03	1.243886E-01	2.335416E-03
7.193035E+03	1.234151E-01	2.302483E-03
7.202929E+03	1.224593E-01	2.269868E-03
7.212823E+03	1.215237E-01	2.237659E-03
7.222717E+03	1.206070E-01	2.205870E-03
7.232611E+03	1.197093E-01	2.174548E-03
7.242505E+03	1.188272E-01	2.143669E-03
7.252399E+03	1.179582E-01	2.113238E-03
7.262293E+03	1.171009E-01	2.083275E-03
7.272188E+03	1.162504E-01	2.053747E-03
7.282082E+03	1.154055E-01	2.024680E-03
7.291976E+03	1.145623E-01	1.996064E-03
7.301870E+03	1.137205E-01	1.967948E-03
7.311764E+03	1.128771E-01	1.940344E-03
7.321658E+03	1.120333E-01	1.913328E-03
7.331552E+03	1.111889E-01	1.886960E-03
7.341447E+03	1.103429E-01	1.861286E-03
7.351341E+03	1.094979E-01	1.836409E-03
7.361235E+03	1.086539E-01	1.812392E-03
7.371129E+03	1.078142E-01	1.789352E-03
7.381023E+03	1.069802E-01	1.767373E-03
7.390917E+03	1.061552E-01	1.746567E-03
7.400811E+03	1.053439E-01	1.727070E-03
7.410705E+03	1.045495E-01	1.708989E-03
7.420600E+03	1.037724E-01	1.692388E-03
7.430494E+03	1.030183E-01	1.677409E-03
7.440388E+03	1.022876E-01	1.664110E-03
7.450282E+03	1.015820E-01	1.652566E-03
7.460176E+03	1.009019E-01	1.642831E-03
7.470070E+03	1.002530E-01	1.635042E-03
7.479964E+03	9.963736E-02	1.629271E-03
7.489859E+03	9.905641E-02	1.625583E-03
7.499753E+03	9.851394E-02	1.624077E-03
7.509647E+03	9.801183E-02	1.624817E-03
7.519541E+03	9.755000E-02	1.627828E-03
7.529435E+03	9.713026E-02	1.633121E-03
7.539329E+03	9.675233E-02	1.640656E-03
7.549223E+03	9.641378E-02	1.650357E-03
7.559117E+03	9.611244E-02	1.662152E-03
7.569012E+03	9.584631E-02	1.675969E-03
7.578906E+03	9.560864E-02	1.691653E-03
7.588800E+03	9.539169E-02	1.709025E-03
7.598694E+03	9.518343E-02	1.727823E-03
7.608588E+03	9.497377E-02	1.747810E-03
7.618482E+03	9.474843E-02	1.768658E-03
7.628376E+03	9.450060E-02	1.790167E-03
7.638271E+03	9.422733E-02	1.812201E-03
7.648165E+03	9.393054E-02	1.834716E-03
7.658059E+03	9.361643E-02	1.857753E-03
7.667953E+03	9.329335E-02	1.881405E-03
7.677847E+03	9.296600E-02	1.905704E-03
