#wls	flux	fluxerr
1.583061E+03	8.543741E-02	8.964185E-03
1.622638E+03	8.768582E-02	9.080181E-03
1.662214E+03	8.995563E-02	9.190564E-03
1.701791E+03	9.221875E-02	9.292313E-03
1.741367E+03	9.447922E-02	9.385762E-03
1.780944E+03	9.674137E-02	9.471260E-03
1.820520E+03	9.897390E-02	9.545697E-03
1.860097E+03	1.011829E-01	9.609711E-03
1.899673E+03	1.033602E-01	9.662578E-03
1.939250E+03	1.055040E-01	9.704216E-03
1.978827E+03	1.076219E-01	9.735425E-03
2.018403E+03	1.097334E-01	9.758037E-03
2.057980E+03	1.119118E-01	9.778454E-03
2.097556E+03	1.141595E-01	9.796567E-03
2.137133E+03	1.165613E-01	9.819197E-03
2.176709E+03	1.191476E-01	9.848126E-03
2.216286E+03	1.219969E-01	9.888821E-03
2.255862E+03	1.251857E-01	9.946054E-03
2.295439E+03	1.287203E-01	1.001862E-02
2.335015E+03	1.326445E-01	1.010812E-02
2.374592E+03	1.369265E-01	1.021018E-02
2.414168E+03	1.415771E-01	1.032377E-02
2.453745E+03	1.466142E-01	1.044827E-02
2.493321E+03	1.520459E-01	1.058228E-02
2.532898E+03	1.579248E-01	1.072737E-02
2.572475E+03	1.643270E-01	1.088635E-02
2.612051E+03	1.713359E-01	1.106197E-02
2.651628E+03	1.789487E-01	1.125108E-02
2.691204E+03	1.871588E-01	1.145032E-02
2.730781E+03	1.959281E-01	1.165455E-02
2.770357E+03	2.052252E-01	1.185925E-02
2.809934E+03	2.150273E-01	1.206064E-02
2.849510E+03	2.253420E-01	1.225687E-02
2.889087E+03	2.361704E-01	1.244575E-02
2.928663E+03	2.475231E-01	1.262575E-02
2.968240E+03	2.592862E-01	1.278927E-02
2.978134E+03	2.622775E-01	1.282676E-02
2.988028E+03	2.653289E-01	1.286481E-02
2.997922E+03	2.683450E-01	1.289878E-02
3.007816E+03	2.714142E-01	1.293293E-02
3.017710E+03	2.745013E-01	1.296556E-02
3.027605E+03	2.775716E-01	1.299504E-02
3.037499E+03	2.806507E-01	1.302260E-02
3.047393E+03	2.837643E-01	1.304942E-02
3.057287E+03	2.868454E-01	1.307244E-02
3.067181E+03	2.899185E-01	1.309283E-02
3.077075E+03	2.930086E-01	1.311173E-02
3.086969E+03	2.960466E-01	1.312609E-02
3.096864E+03	2.990877E-01	1.313843E-02
3.106758E+03	3.021237E-01	1.314842E-02
3.116652E+03	3.050851E-01	1.315307E-02
3.126546E+03	3.080251E-01	1.315481E-02
3.136440E+03	3.109039E-01	1.315199E-02
3.146334E+03	3.137430E-01	1.314562E-02
3.156228E+03	3.165327E-01	1.313539E-02
3.166122E+03	3.192321E-01	1.311969E-02
3.176017E+03	3.218615E-01	1.309951E-02
3.185911E+03	3.244102E-01	1.307454E-02
3.195805E+03	3.268669E-01	1.304444E-02
3.205699E+03	3.291904E-01	1.300775E-02
3.215593E+03	3.314298E-01	1.296658E-02
3.225487E+03	3.335135E-01	1.291828E-02
3.235381E+03	3.354902E-01	1.286496E-02
3.245276E+03	3.373185E-01	1.280520E-02
3.255170E+03	3.389873E-01	1.273879E-02
3.265064E+03	3.405155E-01	1.266666E-02
3.274958E+03	3.418633E-01	1.258755E-02
3.284852E+03	3.430497E-01	1.250239E-02
3.294746E+03	3.440651E-01	1.241106E-02
3.304640E+03	3.448729E-01	1.231248E-02
3.314534E+03	3.454940E-01	1.220765E-02
3.324429E+03	3.459213E-01	1.209657E-02
3.334323E+03	3.461492E-01	1.197931E-02
3.344217E+03	3.461735E-01	1.185594E-02
3.354111E+03	3.460174E-01	1.172753E-02
3.364005E+03	3.456527E-01	1.159335E-02
3.373899E+03	3.450789E-01	1.145362E-02
3.383793E+03	3.443226E-01	1.130947E-02
3.393688E+03	3.433609E-01	1.116037E-02
3.403582E+03	3.422221E-01	1.100747E-02
3.413476E+03	3.409104E-01	1.085108E-02
3.423370E+03	3.394307E-01	1.069157E-02
3.433264E+03	3.377885E-01	1.052928E-02
3.443158E+03	3.360100E-01	1.036518E-02
3.453052E+03	3.340515E-01	1.019803E-02
3.462946E+03	3.319583E-01	1.002931E-02
3.472841E+03	3.297299E-01	9.859029E-03
3.482735E+03	3.273478E-01	9.686711E-03
3.492629E+03	3.248562E-01	9.513703E-03
3.502523E+03	3.222205E-01	9.339032E-03
3.512417E+03	3.194680E-01	9.163536E-03
3.522311E+03	3.166268E-01	8.988039E-03
3.532205E+03	3.136691E-01	8.811769E-03
3.542100E+03	3.106612E-01	8.636597E-03
3.551994E+03	3.075786E-01	8.461825E-03
3.561888E+03	3.044507E-01	8.288249E-03
3.571782E+03	3.012738E-01	8.115742E-03
3.581676E+03	2.980927E-01	7.945480E-03
3.591570E+03	2.949030E-01	7.777287E-03
3.601464E+03	2.917164E-01	7.611420E-03
3.611358E+03	2.885440E-01	7.448107E-03
3.621253E+03	2.854241E-01	7.288267E-03
3.631147E+03	2.823369E-01	7.131302E-03
3.641041E+03	2.792904E-01	6.977344E-03
3.650935E+03	2.763185E-01	6.827156E-03
3.660829E+03	2.734126E-01	6.680424E-03
3.670723E+03	2.705765E-01	6.537154E-03
3.680617E+03	2.678244E-01	6.397593E-03
3.690512E+03	2.651450E-01	6.261379E-03
3.700406E+03	2.625494E-01	6.128686E-03
3.710300E+03	2.600247E-01	5.999124E-03
3.720194E+03	2.575905E-01	5.873061E-03
3.730088E+03	2.552309E-01	5.750055E-03
3.739982E+03	2.529314E-01	5.629700E-03
3.749876E+03	2.507070E-01	5.512273E-03
3.759770E+03	2.485509E-01	5.397558E-03
3.769665E+03	2.464467E-01	5.285138E-03
3.779559E+03	2.443881E-01	5.174841E-03
3.789453E+03	2.423853E-01	5.066843E-03
3.799347E+03	2.404128E-01	4.960577E-03
3.809241E+03	2.384636E-01	4.855883E-03
3.819135E+03	2.365465E-01	4.752931E-03
3.829029E+03	2.346445E-01	4.651373E-03
3.838924E+03	2.327506E-01	4.551075E-03
3.848818E+03	2.308567E-01	4.451897E-03
3.858712E+03	2.289562E-01	4.353737E-03
3.868606E+03	2.270436E-01	4.256525E-03
3.878500E+03	2.251146E-01	4.160223E-03
3.888394E+03	2.231727E-01	4.064941E-03
3.898288E+03	2.212031E-01	3.970461E-03
3.908182E+03	2.192190E-01	3.877082E-03
3.918077E+03	2.172151E-01	3.784766E-03
3.927971E+03	2.151944E-01	3.693629E-03
3.937865E+03	2.131527E-01	3.603667E-03
3.947759E+03	2.111056E-01	3.515210E-03
3.957653E+03	2.090459E-01	3.428199E-03
3.967547E+03	2.069826E-01	3.342858E-03
3.977441E+03	2.049144E-01	3.259228E-03
3.987336E+03	2.028519E-01	3.177551E-03
3.997230E+03	2.007937E-01	3.097872E-03
4.007124E+03	1.987447E-01	3.020335E-03
4.017018E+03	1.967053E-01	2.945017E-03
4.026912E+03	1.946844E-01	2.872124E-03
4.036806E+03	1.926772E-01	2.801654E-03
4.046700E+03	1.906979E-01	2.733886E-03
4.056594E+03	1.887447E-01	2.668861E-03
4.066489E+03	1.868128E-01	2.606581E-03
4.076383E+03	1.849115E-01	2.547245E-03
4.086277E+03	1.830454E-01	2.490986E-03
4.096171E+03	1.812167E-01	2.437894E-03
4.106065E+03	1.794330E-01	2.388135E-03
4.115959E+03	1.777000E-01	2.341837E-03
4.125853E+03	1.760247E-01	2.299142E-03
4.135748E+03	1.744221E-01	2.260288E-03
4.145642E+03	1.729000E-01	2.225411E-03
4.155536E+03	1.714665E-01	2.194643E-03
4.165430E+03	1.701323E-01	2.168145E-03
4.175324E+03	1.689024E-01	2.145995E-03
4.185218E+03	1.677833E-01	2.128288E-03
4.195112E+03	1.667757E-01	2.115028E-03
4.205006E+03	1.658781E-01	2.106080E-03
4.214901E+03	1.650824E-01	2.101179E-03
4.224795E+03	1.643767E-01	2.100012E-03
4.234689E+03	1.637490E-01	2.102258E-03
4.244583E+03	1.631773E-01	2.107475E-03
4.254477E+03	1.626374E-01	2.115182E-03
4.264371E+03	1.621038E-01	2.124875E-03
4.274265E+03	1.615635E-01	2.136210E-03
4.284159E+03	1.610085E-01	2.148900E-03
4.294054E+03	1.604326E-01	2.162686E-03
4.303948E+03	1.598345E-01	2.177374E-03
4.313842E+03	1.592058E-01	2.192678E-03
4.323736E+03	1.585486E-01	2.208456E-03
4.333630E+03	1.578608E-01	2.224516E-03
4.343524E+03	1.571434E-01	2.240716E-03
4.353418E+03	1.563995E-01	2.256950E-03
4.363313E+03	1.556309E-01	2.273104E-03
4.373207E+03	1.548471E-01	2.289187E-03
4.383101E+03	1.540502E-01	2.305112E-03
4.392995E+03	1.532475E-01	2.320879E-03
4.402889E+03	1.524490E-01	2.336543E-03
4.412783E+03	1.516585E-01	2.352077E-03
4.422677E+03	1.508861E-01	2.367564E-03
4.432571E+03	1.501371E-01	2.383021E-03
4.442466E+03	1.494166E-01	2.398477E-03
4.452360E+03	1.487249E-01	2.413887E-03
4.462254E+03	1.480674E-01	2.429301E-03
4.472148E+03	1.474471E-01	2.444729E-03
4.482042E+03	1.468620E-01	2.460116E-03
4.491936E+03	1.463141E-01	2.475464E-03
4.501830E+03	1.458065E-01	2.490809E-03
4.511725E+03	1.453368E-01	2.506087E-03
4.521619E+03	1.449075E-01	2.521330E-03
4.531513E+03	1.445198E-01	2.536545E-03
4.541407E+03	1.441711E-01	2.551678E-03
4.551301E+03	1.438661E-01	2.566800E-03
4.561195E+03	1.436029E-01	2.581871E-03
4.571089E+03	1.433849E-01	2.596950E-03
4.580983E+03	1.432138E-01	2.612062E-03
4.590878E+03	1.430915E-01	2.627240E-03
4.600772E+03	1.430200E-01	2.642518E-03
4.610666E+03	1.429991E-01	2.657892E-03
4.620560E+03	1.430336E-01	2.673453E-03
4.630454E+03	1.431215E-01	2.689160E-03
4.640348E+03	1.432668E-01	2.705088E-03
4.650242E+03	1.434661E-01	2.721174E-03
4.660137E+03	1.437206E-01	2.737437E-03
4.670031E+03	1.440292E-01	2.753854E-03
4.679925E+03	1.443870E-01	2.770324E-03
4.689819E+03	1.447915E-01	2.786796E-03
4.699713E+03	1.452380E-01	2.803169E-03
4.709607E+03	1.457205E-01	2.819321E-03
4.719501E+03	1.462308E-01	2.835078E-03
4.729395E+03	1.467626E-01	2.850309E-03
4.739290E+03	1.473027E-01	2.864747E-03
4.749184E+03	1.478485E-01	2.878324E-03
4.759078E+03	1.483883E-01	2.890801E-03
4.768972E+03	1.489138E-01	2.902004E-03
4.778866E+03	1.494145E-01	2.911721E-03
4.788760E+03	1.498831E-01	2.919795E-03
4.798654E+03	1.503035E-01	2.925908E-03
4.808549E+03	1.506680E-01	2.929906E-03
4.818443E+03	1.509647E-01	2.931561E-03
4.828337E+03	1.511858E-01	2.930724E-03
4.838231E+03	1.513230E-01	2.927244E-03
4.848125E+03	1.513712E-01	2.921035E-03
4.858019E+03	1.513237E-01	2.911991E-03
4.867913E+03	1.511805E-01	2.900134E-03
4.877807E+03	1.509397E-01	2.885460E-03
4.887702E+03	1.506016E-01	2.868008E-03
4.897596E+03	1.501681E-01	2.847854E-03
4.907490E+03	1.496428E-01	2.825113E-03
4.917384E+03	1.490346E-01	2.799994E-03
4.927278E+03	1.483519E-01	2.772708E-03
4.937172E+03	1.476057E-01	2.743506E-03
4.947066E+03	1.468020E-01	2.712552E-03
4.956961E+03	1.459549E-01	2.680155E-03
4.966855E+03	1.450711E-01	2.646485E-03
4.976749E+03	1.441602E-01	2.611767E-03
4.986643E+03	1.432363E-01	2.576301E-03
4.996537E+03	1.423044E-01	2.540219E-03
5.006431E+03	1.413763E-01	2.503772E-03
5.016325E+03	1.404587E-01	2.467117E-03
5.026219E+03	1.395613E-01	2.430458E-03
5.036114E+03	1.386918E-01	2.393960E-03
5.046008E+03	1.378576E-01	2.357781E-03
5.055902E+03	1.370657E-01	2.322063E-03
5.065796E+03	1.363230E-01	2.286946E-03
5.075690E+03	1.356372E-01	2.252578E-03
5.085584E+03	1.350125E-01	2.219044E-03
5.095478E+03	1.344531E-01	2.186428E-03
5.105373E+03	1.339638E-01	2.154820E-03
5.115267E+03	1.335468E-01	2.124266E-03
5.125161E+03	1.332012E-01	2.094762E-03
5.135055E+03	1.329289E-01	2.066352E-03
5.144949E+03	1.327253E-01	2.038981E-03
5.154843E+03	1.325887E-01	2.012640E-03
5.164737E+03	1.325163E-01	1.987309E-03
5.174631E+03	1.325021E-01	1.962926E-03
5.184526E+03	1.325413E-01	1.939454E-03
5.194420E+03	1.326286E-01	1.916857E-03
5.204314E+03	1.327610E-01	1.895137E-03
5.214208E+03	1.329293E-01	1.874216E-03
5.224102E+03	1.331320E-01	1.854133E-03
5.233996E+03	1.333603E-01	1.834834E-03
5.243890E+03	1.336106E-01	1.816343E-03
5.253785E+03	1.338732E-01	1.798612E-03
5.263679E+03	1.341432E-01	1.781663E-03
5.273573E+03	1.344121E-01	1.765480E-03
5.283467E+03	1.346696E-01	1.750027E-03
5.293361E+03	1.349070E-01	1.735299E-03
5.303255E+03	1.351140E-01	1.721275E-03
5.313149E+03	1.352808E-01	1.707946E-03
5.323043E+03	1.353949E-01	1.695266E-03
5.332938E+03	1.354458E-01	1.683220E-03
5.342832E+03	1.354238E-01	1.671796E-03
5.352726E+03	1.353158E-01	1.660936E-03
5.362620E+03	1.351162E-01	1.650666E-03
5.372514E+03	1.348243E-01	1.641059E-03
5.382408E+03	1.344485E-01	1.632252E-03
5.392302E+03	1.340049E-01	1.624369E-03
5.402196E+03	1.335068E-01	1.617471E-03
5.412091E+03	1.329687E-01	1.611624E-03
5.421985E+03	1.324057E-01	1.606892E-03
5.431879E+03	1.318303E-01	1.603306E-03
5.441773E+03	1.312525E-01	1.600865E-03
5.451667E+03	1.306822E-01	1.599570E-03
5.461561E+03	1.301298E-01	1.599426E-03
5.471455E+03	1.296028E-01	1.600412E-03
5.481350E+03	1.291064E-01	1.602480E-03
5.491244E+03	1.286460E-01	1.605592E-03
5.501138E+03	1.282262E-01	1.609707E-03
5.511032E+03	1.278510E-01	1.614781E-03
5.520926E+03	1.275239E-01	1.620769E-03
5.530820E+03	1.272467E-01	1.627615E-03
5.540714E+03	1.270231E-01	1.635286E-03
5.550608E+03	1.268578E-01	1.643775E-03
5.560503E+03	1.267518E-01	1.653031E-03
5.570397E+03	1.267096E-01	1.663050E-03
5.580291E+03	1.267367E-01	1.673852E-03
5.590185E+03	1.268365E-01	1.685428E-03
5.600079E+03	1.270137E-01	1.697796E-03
5.609973E+03	1.272730E-01	1.710975E-03
5.619867E+03	1.276176E-01	1.724968E-03
5.629762E+03	1.280513E-01	1.739790E-03
5.639656E+03	1.285776E-01	1.755451E-03
5.649550E+03	1.292007E-01	1.771972E-03
5.659444E+03	1.299193E-01	1.789305E-03
5.669338E+03	1.307342E-01	1.807420E-03
5.679232E+03	1.316461E-01	1.826295E-03
5.689126E+03	1.326512E-01	1.845837E-03
5.699020E+03	1.337454E-01	1.865953E-03
5.708915E+03	1.349249E-01	1.886547E-03
5.718809E+03	1.361795E-01	1.907434E-03
5.728703E+03	1.375000E-01	1.928440E-03
5.738597E+03	1.388788E-01	1.949412E-03
5.748491E+03	1.402997E-01	1.970073E-03
5.758385E+03	1.417521E-01	1.990225E-03
5.768279E+03	1.432219E-01	2.009623E-03
5.778174E+03	1.446914E-01	2.027969E-03
5.788068E+03	1.461468E-01	2.045023E-03
5.797962E+03	1.475739E-01	2.060546E-03
5.807856E+03	1.489550E-01	2.074249E-03
5.817750E+03	1.502753E-01	2.085895E-03
5.827644E+03	1.515244E-01	2.095308E-03
5.837538E+03	1.526861E-01	2.102248E-03
5.847432E+03	1.537537E-01	2.106608E-03
5.857327E+03	1.547196E-01	2.108278E-03
5.867221E+03	1.555773E-01	2.107174E-03
5.877115E+03	1.563292E-01	2.103340E-03
5.887009E+03	1.569765E-01	2.096811E-03
5.896903E+03	1.575262E-01	2.087704E-03
5.906797E+03	1.579934E-01	2.076247E-03
5.916691E+03	1.583913E-01	2.062646E-03
5.926586E+03	1.587404E-01	2.047197E-03
5.936480E+03	1.590632E-01	2.030221E-03
5.946374E+03	1.593846E-01	2.012059E-03
5.956268E+03	1.597328E-01	1.993083E-03
5.966162E+03	1.601385E-01	1.973688E-03
5.976056E+03	1.606286E-01	1.954200E-03
5.985950E+03	1.612386E-01	1.935038E-03
5.995844E+03	1.619959E-01	1.916501E-03
6.005739E+03	1.629334E-01	1.898935E-03
6.015633E+03	1.640759E-01	1.882572E-03
6.025527E+03	1.654545E-01	1.867700E-03
6.035421E+03	1.670895E-01	1.854468E-03
6.045315E+03	1.690049E-01	1.843052E-03
6.055209E+03	1.712129E-01	1.833490E-03
6.065103E+03	1.737268E-01	1.825835E-03
6.074998E+03	1.765455E-01	1.819990E-03
6.084892E+03	1.796643E-01	1.815838E-03
6.094786E+03	1.830670E-01	1.813178E-03
6.104680E+03	1.867149E-01	1.811624E-03
6.114574E+03	1.905642E-01	1.810810E-03
6.124468E+03	1.945516E-01	1.810258E-03
6.134362E+03	1.985935E-01	1.809392E-03
6.144256E+03	2.025818E-01	1.807532E-03
6.154151E+03	2.063906E-01	1.803967E-03
6.164045E+03	2.098434E-01	1.797685E-03
6.173939E+03	2.127579E-01	1.787779E-03
6.183833E+03	2.149481E-01	1.773449E-03
6.193727E+03	2.162172E-01	1.753909E-03
6.203621E+03	2.164239E-01	1.728886E-03
6.213515E+03	2.155273E-01	1.698885E-03
6.223410E+03	2.136372E-01	1.665488E-03
6.233304E+03	2.109594E-01	1.630837E-03
6.243198E+03	2.077558E-01	1.597303E-03
6.253092E+03	2.042835E-01	1.567034E-03
6.262986E+03	2.007827E-01	1.541914E-03
6.272880E+03	1.974634E-01	1.523466E-03
6.282774E+03	1.944818E-01	1.512546E-03
6.292668E+03	1.919529E-01	1.509645E-03
6.302563E+03	1.899659E-01	1.515123E-03
6.312457E+03	1.885728E-01	1.529132E-03
6.322351E+03	1.878067E-01	1.551760E-03
6.332245E+03	1.876823E-01	1.583032E-03
6.342139E+03	1.882030E-01	1.622959E-03
6.352033E+03	1.893541E-01	1.671461E-03
6.361927E+03	1.911201E-01	1.728504E-03
6.371822E+03	1.934725E-01	1.793972E-03
6.381716E+03	1.963727E-01	1.867674E-03
6.391610E+03	1.997805E-01	1.949405E-03
6.401504E+03	2.036433E-01	2.038825E-03
6.411398E+03	2.078979E-01	2.135455E-03
6.421292E+03	2.124802E-01	2.238756E-03
6.431186E+03	2.173156E-01	2.348019E-03
6.441080E+03	2.223300E-01	2.462467E-03
6.450975E+03	2.274326E-01	2.581054E-03
6.460869E+03	2.325493E-01	2.702837E-03
6.470763E+03	2.375923E-01	2.826621E-03
6.480657E+03	2.424791E-01	2.951185E-03
6.490551E+03	2.471226E-01	3.075162E-03
6.500445E+03	2.514507E-01	3.197280E-03
6.510339E+03	2.553777E-01	3.316019E-03
6.520234E+03	2.588374E-01	3.430031E-03
6.530128E+03	2.617645E-01	3.537923E-03
6.540022E+03	2.641000E-01	3.638327E-03
6.549916E+03	2.658032E-01	3.730088E-03
6.559810E+03	2.668484E-01	3.812245E-03
6.569704E+03	2.672197E-01	3.883968E-03
6.579598E+03	2.669178E-01	3.944685E-03
6.589492E+03	2.659536E-01	3.993998E-03
6.599387E+03	2.643572E-01	4.031840E-03
6.609281E+03	2.621615E-01	4.058240E-03
6.619175E+03	2.594104E-01	4.073457E-03
6.629069E+03	2.561546E-01	4.077921E-03
6.638963E+03	2.524517E-01	4.072240E-03
6.648857E+03	2.483596E-01	4.057100E-03
6.658751E+03	2.439371E-01	4.033273E-03
6.668645E+03	2.392432E-01	4.001591E-03
6.678540E+03	2.343379E-01	3.962974E-03
6.688434E+03	2.292743E-01	3.918275E-03
6.698328E+03	2.241054E-01	3.868402E-03
6.708222E+03	2.188839E-01	3.814297E-03
6.718116E+03	2.136554E-01	3.756824E-03
6.728010E+03	2.084614E-01	3.696805E-03
6.737904E+03	2.033388E-01	3.635009E-03
6.747799E+03	1.983223E-01	3.572185E-03
6.757693E+03	1.934375E-01	3.508935E-03
6.767587E+03	1.887099E-01	3.445872E-03
6.777481E+03	1.841565E-01	3.383458E-03
6.787375E+03	1.797940E-01	3.322155E-03
6.797269E+03	1.756333E-01	3.262313E-03
6.807163E+03	1.716819E-01	3.204219E-03
6.817057E+03	1.679437E-01	3.148085E-03
6.826952E+03	1.644217E-01	3.094104E-03
6.836846E+03	1.611111E-01	3.042304E-03
6.846740E+03	1.580118E-01	2.992803E-03
6.856634E+03	1.551164E-01	2.945565E-03
6.866528E+03	1.524198E-01	2.900586E-03
6.876422E+03	1.499114E-01	2.857753E-03
6.886316E+03	1.475834E-01	2.816992E-03
6.896211E+03	1.454235E-01	2.778136E-03
6.906105E+03	1.434221E-01	2.741060E-03
6.915999E+03	1.415673E-01	2.705592E-03
6.925893E+03	1.398453E-01	2.671511E-03
6.935787E+03	1.382437E-01	2.638620E-03
6.945681E+03	1.367535E-01	2.606782E-03
6.955575E+03	1.353588E-01	2.575725E-03
6.965469E+03	1.340493E-01	2.545279E-03
6.975364E+03	1.328114E-01	2.515214E-03
6.985258E+03	1.316354E-01	2.485368E-03
6.995152E+03	1.305087E-01	2.455528E-03
7.005046E+03	1.294228E-01	2.425557E-03
7.014940E+03	1.283679E-01	2.395297E-03
7.024834E+03	1.273340E-01	2.364586E-03
7.034728E+03	1.263148E-01	2.333334E-03
7.044623E+03	1.253018E-01	2.301416E-03
7.054517E+03	1.242894E-01	2.268760E-03
7.064411E+03	1.232747E-01	2.235348E-03
7.074305E+03	1.222521E-01	2.201118E-03
7.084199E+03	1.212194E-01	2.166068E-03
7.094093E+03	1.201763E-01	2.130236E-03
7.103987E+03	1.191189E-01	2.093596E-03
7.113881E+03	1.180500E-01	2.056246E-03
7.123776E+03	1.169685E-01	2.018213E-03
7.133670E+03	1.158752E-01	1.979560E-03
7.143564E+03	1.147712E-01	1.940359E-03
7.153458E+03	1.136580E-01	1.900686E-03
7.163352E+03	1.125357E-01	1.860594E-03
7.173246E+03	1.114089E-01	1.820217E-03
7.183140E+03	1.102781E-01	1.779615E-03
7.193035E+03	1.091450E-01	1.738870E-03
7.202929E+03	1.080116E-01	1.698073E-03
7.212823E+03	1.068798E-01	1.657312E-03
7.222717E+03	1.057515E-01	1.616673E-03
7.232611E+03	1.046287E-01	1.576245E-03
7.242505E+03	1.035133E-01	1.536119E-03
7.252399E+03	1.024082E-01	1.496401E-03
7.262293E+03	1.013151E-01	1.457176E-03
7.272188E+03	1.002351E-01	1.418530E-03
7.282082E+03	9.916975E-02	1.380547E-03
7.291976E+03	9.812143E-02	1.343334E-03
7.301870E+03	9.709147E-02	1.306982E-03
7.311764E+03	9.608238E-02	1.271601E-03
7.321658E+03	9.509547E-02	1.237288E-03
7.331552E+03	9.413213E-02	1.204144E-03
7.341447E+03	9.319636E-02	1.172309E-03
7.351341E+03	9.228846E-02	1.141877E-03
7.361235E+03	9.140886E-02	1.112951E-03
7.371129E+03	9.055931E-02	1.085653E-03
7.381023E+03	8.974049E-02	1.060097E-03
7.390917E+03	8.895427E-02	1.036414E-03
7.400811E+03	8.820135E-02	1.014727E-03
7.410705E+03	8.748249E-02	9.951578E-04
7.420600E+03	8.679950E-02	9.778427E-04
7.430494E+03	8.615414E-02	9.629152E-04
7.440388E+03	8.554567E-02	9.504775E-04
7.450282E+03	8.497786E-02	9.406757E-04
7.460176E+03	8.444954E-02	9.335935E-04
7.470070E+03	8.396162E-02	9.293268E-04
7.479964E+03	8.351570E-02	9.279669E-04
7.489859E+03	8.310961E-02	9.295478E-04
7.499753E+03	8.274512E-02	9.340882E-04
7.509647E+03	8.241894E-02	9.414824E-04
7.519541E+03	8.213158E-02	9.516526E-04
7.529435E+03	8.187826E-02	9.644514E-04
7.539329E+03	8.165672E-02	9.797523E-04
7.549223E+03	8.146260E-02	9.973982E-04
7.559117E+03	8.129059E-02	1.017215E-03
7.569012E+03	8.113436E-02	1.039012E-03
7.578906E+03	8.098664E-02	1.062579E-03
7.588800E+03	8.083834E-02	1.087679E-03
7.598694E+03	8.068321E-02	1.114102E-03
7.608588E+03	8.051063E-02	1.141575E-03
7.618482E+03	8.031505E-02	1.169885E-03
7.628376E+03	8.008822E-02	1.198776E-03
7.638271E+03	7.982937E-02	1.228097E-03
7.648165E+03	7.953788E-02	1.257702E-03
7.658059E+03	7.921609E-02	1.287498E-03
7.667953E+03	7.886857E-02	1.317437E-03
7.677847E+03	7.849808E-02	1.347453E-03
