#wls	flux	fluxerr
1.583061E+03	8.621155E-02	8.944443E-03
1.622638E+03	8.848928E-02	9.060095E-03
1.662214E+03	9.077541E-02	9.168731E-03
1.701791E+03	9.309303E-02	9.272515E-03
1.741367E+03	9.539468E-02	9.366562E-03
1.780944E+03	9.770153E-02	9.452898E-03
1.820520E+03	9.998103E-02	9.528319E-03
1.860097E+03	1.022381E-01	9.593335E-03
1.899673E+03	1.044630E-01	9.647070E-03
1.939250E+03	1.066320E-01	9.687483E-03
1.978827E+03	1.087900E-01	9.718777E-03
2.018403E+03	1.109558E-01	9.742641E-03
2.057980E+03	1.131417E-01	9.760064E-03
2.097556E+03	1.154098E-01	9.776233E-03
2.137133E+03	1.178052E-01	9.794494E-03
2.176709E+03	1.204012E-01	9.820242E-03
2.216286E+03	1.232580E-01	9.857334E-03
2.255862E+03	1.264331E-01	9.908975E-03
2.295439E+03	1.299769E-01	9.977457E-03
2.335015E+03	1.338885E-01	1.006087E-02
2.374592E+03	1.381785E-01	1.015813E-02
2.414168E+03	1.428089E-01	1.026458E-02
2.453745E+03	1.478157E-01	1.038101E-02
2.493321E+03	1.532011E-01	1.050568E-02
2.532898E+03	1.590369E-01	1.064149E-02
2.572475E+03	1.653195E-01	1.078595E-02
2.612051E+03	1.722036E-01	1.094670E-02
2.651628E+03	1.796329E-01	1.111733E-02
2.691204E+03	1.876275E-01	1.129641E-02
2.730781E+03	1.961542E-01	1.147932E-02
2.770357E+03	2.051622E-01	1.166064E-02
2.809934E+03	2.146969E-01	1.184064E-02
2.849510E+03	2.247533E-01	1.201667E-02
2.889087E+03	2.353195E-01	1.218590E-02
2.928663E+03	2.464251E-01	1.234776E-02
2.968240E+03	2.580367E-01	1.249862E-02
2.978134E+03	2.610340E-01	1.253515E-02
2.988028E+03	2.640362E-01	1.256959E-02
2.997922E+03	2.670399E-01	1.260177E-02
3.007816E+03	2.701036E-01	1.263445E-02
3.017710E+03	2.731616E-01	1.266454E-02
3.027605E+03	2.762410E-01	1.269329E-02
3.037499E+03	2.793372E-01	1.272051E-02
3.047393E+03	2.824454E-01	1.274596E-02
3.057287E+03	2.855607E-01	1.276945E-02
3.067181E+03	2.887084E-01	1.279210E-02
3.077075E+03	2.918202E-01	1.281090E-02
3.086969E+03	2.949208E-01	1.282699E-02
3.096864E+03	2.980346E-01	1.284148E-02
3.106758E+03	3.011229E-01	1.285272E-02
3.116652E+03	3.041778E-01	1.286043E-02
3.126546E+03	3.072224E-01	1.286566E-02
3.136440E+03	3.102165E-01	1.286678E-02
3.146334E+03	3.131513E-01	1.286352E-02
3.156228E+03	3.160478E-01	1.285685E-02
3.166122E+03	3.188959E-01	1.284644E-02
3.176017E+03	3.216851E-01	1.283196E-02
3.185911E+03	3.243733E-01	1.281186E-02
3.195805E+03	3.269806E-01	1.278707E-02
3.205699E+03	3.295256E-01	1.275847E-02
3.215593E+03	3.319353E-01	1.272334E-02
3.225487E+03	3.342284E-01	1.268262E-02
3.235381E+03	3.363927E-01	1.263601E-02
3.245276E+03	3.384461E-01	1.258437E-02
3.255170E+03	3.403467E-01	1.252632E-02
3.265064E+03	3.420826E-01	1.246166E-02
3.274958E+03	3.436717E-01	1.239124E-02
3.284852E+03	3.451024E-01	1.231487E-02
3.294746E+03	3.463352E-01	1.223136E-02
3.304640E+03	3.473607E-01	1.214066E-02
3.314534E+03	3.482265E-01	1.204466E-02
3.324429E+03	3.488953E-01	1.194232E-02
3.334323E+03	3.493326E-01	1.183270E-02
3.344217E+03	3.495874E-01	1.171775E-02
3.354111E+03	3.496272E-01	1.159661E-02
3.364005E+03	3.494488E-01	1.146943E-02
3.373899E+03	3.490760E-01	1.133725E-02
3.383793E+03	3.485078E-01	1.120026E-02
3.393688E+03	3.477188E-01	1.105789E-02
3.403582E+03	3.467116E-01	1.091046E-02
3.413476E+03	3.455390E-01	1.075986E-02
3.423370E+03	3.441792E-01	1.060560E-02
3.433264E+03	3.426130E-01	1.044729E-02
3.443158E+03	3.408901E-01	1.028663E-02
3.453052E+03	3.390097E-01	1.012372E-02
3.462946E+03	3.369480E-01	9.957914E-03
3.472841E+03	3.347066E-01	9.789353E-03
3.482735E+03	3.323094E-01	9.618809E-03
3.492629E+03	3.297604E-01	9.446461E-03
3.502523E+03	3.270658E-01	9.272540E-03
3.512417E+03	3.242339E-01	9.097328E-03
3.522311E+03	3.212944E-01	8.921687E-03
3.532205E+03	3.182205E-01	8.744902E-03
3.542100E+03	3.150814E-01	8.568889E-03
3.551994E+03	3.118534E-01	8.392996E-03
3.561888E+03	3.085513E-01	8.217615E-03
3.571782E+03	3.052239E-01	8.044031E-03
3.581676E+03	3.018681E-01	7.872110E-03
3.591570E+03	2.984975E-01	7.702171E-03
3.601464E+03	2.951259E-01	7.534510E-03
3.611358E+03	2.917811E-01	7.369774E-03
3.621253E+03	2.884594E-01	7.207797E-03
3.631147E+03	2.851859E-01	7.049128E-03
3.641041E+03	2.819700E-01	6.893907E-03
3.650935E+03	2.788323E-01	6.742549E-03
3.660829E+03	2.757524E-01	6.594454E-03
3.670723E+03	2.727614E-01	6.450281E-03
3.680617E+03	2.698495E-01	6.309691E-03
3.690512E+03	2.670188E-01	6.172640E-03
3.700406E+03	2.642931E-01	6.039581E-03
3.710300E+03	2.616478E-01	5.909848E-03
3.720194E+03	2.590921E-01	5.783567E-03
3.730088E+03	2.566329E-01	5.660795E-03
3.739982E+03	2.542440E-01	5.540873E-03
3.749876E+03	2.519413E-01	5.424077E-03
3.759770E+03	2.497078E-01	5.309965E-03
3.769665E+03	2.475466E-01	5.198544E-03
3.779559E+03	2.454501E-01	5.089597E-03
3.789453E+03	2.434010E-01	4.982720E-03
3.799347E+03	2.414004E-01	4.877900E-03
3.809241E+03	2.394402E-01	4.774945E-03
3.819135E+03	2.375115E-01	4.673657E-03
3.829029E+03	2.356060E-01	4.573865E-03
3.838924E+03	2.337153E-01	4.475408E-03
3.848818E+03	2.318319E-01	4.378149E-03
3.858712E+03	2.299485E-01	4.281973E-03
3.868606E+03	2.280590E-01	4.186796E-03
3.878500E+03	2.261658E-01	4.092695E-03
3.888394E+03	2.242581E-01	3.999517E-03
3.898288E+03	2.223270E-01	3.907155E-03
3.908182E+03	2.203863E-01	3.815905E-03
3.918077E+03	2.184294E-01	3.725711E-03
3.927971E+03	2.164588E-01	3.636675E-03
3.937865E+03	2.144761E-01	3.548887E-03
3.947759E+03	2.124790E-01	3.462378E-03
3.957653E+03	2.104769E-01	3.377365E-03
3.967547E+03	2.084732E-01	3.293973E-03
3.977441E+03	2.064612E-01	3.212165E-03
3.987336E+03	2.044560E-01	3.132249E-03
3.997230E+03	2.024563E-01	3.054276E-03
4.007124E+03	2.004664E-01	2.978382E-03
4.017018E+03	1.984855E-01	2.904633E-03
4.026912E+03	1.965180E-01	2.833163E-03
4.036806E+03	1.945722E-01	2.764173E-03
4.046700E+03	1.926381E-01	2.697594E-03
4.056594E+03	1.907281E-01	2.633681E-03
4.066489E+03	1.888411E-01	2.572493E-03
4.076383E+03	1.869772E-01	2.514109E-03
4.086277E+03	1.851453E-01	2.458725E-03
4.096171E+03	1.833435E-01	2.406389E-03
4.106065E+03	1.815799E-01	2.357275E-03
4.115959E+03	1.798638E-01	2.311569E-03
4.125853E+03	1.782025E-01	2.269419E-03
4.135748E+03	1.766074E-01	2.231022E-03
4.145642E+03	1.750871E-01	2.196529E-03
4.155536E+03	1.736501E-01	2.166081E-03
4.165430E+03	1.723109E-01	2.139885E-03
4.175324E+03	1.710750E-01	2.118035E-03
4.185218E+03	1.699464E-01	2.100591E-03
4.195112E+03	1.689257E-01	2.087561E-03
4.205006E+03	1.680124E-01	2.078831E-03
4.214901E+03	1.672017E-01	2.074171E-03
4.224795E+03	1.664807E-01	2.073256E-03
4.234689E+03	1.658312E-01	2.075691E-03
4.244583E+03	1.652352E-01	2.081079E-03
4.254477E+03	1.646620E-01	2.088865E-03
4.264371E+03	1.640860E-01	2.098540E-03
4.274265E+03	1.634937E-01	2.109749E-03
4.284159E+03	1.628796E-01	2.122232E-03
4.294054E+03	1.622405E-01	2.135764E-03
4.303948E+03	1.615754E-01	2.150147E-03
4.313842E+03	1.608828E-01	2.165183E-03
4.323736E+03	1.601646E-01	2.180725E-03
4.333630E+03	1.594164E-01	2.196546E-03
4.343524E+03	1.586421E-01	2.212541E-03
4.353418E+03	1.578444E-01	2.228599E-03
4.363313E+03	1.570254E-01	2.244606E-03
4.373207E+03	1.561929E-01	2.260545E-03
4.383101E+03	1.553536E-01	2.276392E-03
4.392995E+03	1.545127E-01	2.292120E-03
4.402889E+03	1.536806E-01	2.307786E-03
4.412783E+03	1.528654E-01	2.323428E-03
4.422677E+03	1.520707E-01	2.339032E-03
4.432571E+03	1.513057E-01	2.354675E-03
4.442466E+03	1.505736E-01	2.370357E-03
4.452360E+03	1.498767E-01	2.386068E-03
4.462254E+03	1.492223E-01	2.401887E-03
4.472148E+03	1.486069E-01	2.417727E-03
4.482042E+03	1.480323E-01	2.433592E-03
4.491936E+03	1.475018E-01	2.449511E-03
4.501830E+03	1.470126E-01	2.465420E-03
4.511725E+03	1.465655E-01	2.481313E-03
4.521619E+03	1.461629E-01	2.497219E-03
4.531513E+03	1.458017E-01	2.513076E-03
4.541407E+03	1.454829E-01	2.528886E-03
4.551301E+03	1.452074E-01	2.544659E-03
4.561195E+03	1.449766E-01	2.560411E-03
4.571089E+03	1.447919E-01	2.576164E-03
4.580983E+03	1.446549E-01	2.591943E-03
4.590878E+03	1.445659E-01	2.607746E-03
4.600772E+03	1.445266E-01	2.623606E-03
4.610666E+03	1.445421E-01	2.639612E-03
4.620560E+03	1.446088E-01	2.655699E-03
4.630454E+03	1.447316E-01	2.671951E-03
4.640348E+03	1.449093E-01	2.688349E-03
4.650242E+03	1.451407E-01	2.704866E-03
4.660137E+03	1.454254E-01	2.721492E-03
4.670031E+03	1.457626E-01	2.738206E-03
4.679925E+03	1.461474E-01	2.754911E-03
4.689819E+03	1.465759E-01	2.771526E-03
4.699713E+03	1.470433E-01	2.787951E-03
4.709607E+03	1.475422E-01	2.804036E-03
4.719501E+03	1.480625E-01	2.819576E-03
4.729395E+03	1.485962E-01	2.834405E-03
4.739290E+03	1.491319E-01	2.848292E-03
4.749184E+03	1.496654E-01	2.861142E-03
4.759078E+03	1.501862E-01	2.872744E-03
4.768972E+03	1.506895E-01	2.882992E-03
4.778866E+03	1.511664E-01	2.891705E-03
4.788760E+03	1.516043E-01	2.898635E-03
4.798654E+03	1.519970E-01	2.903655E-03
4.808549E+03	1.523318E-01	2.906523E-03
4.818443E+03	1.525972E-01	2.907019E-03
4.828337E+03	1.527880E-01	2.905051E-03
4.838231E+03	1.528943E-01	2.900439E-03
4.848125E+03	1.529123E-01	2.893130E-03
4.858019E+03	1.528370E-01	2.883047E-03
4.867913E+03	1.526648E-01	2.870152E-03
4.877807E+03	1.523958E-01	2.854475E-03
4.887702E+03	1.520303E-01	2.836059E-03
4.897596E+03	1.515702E-01	2.814982E-03
4.907490E+03	1.510215E-01	2.791398E-03
4.917384E+03	1.503909E-01	2.765479E-03
4.927278E+03	1.496853E-01	2.737401E-03
4.937172E+03	1.489169E-01	2.707439E-03
4.947066E+03	1.480937E-01	2.675786E-03
4.956961E+03	1.472269E-01	2.642696E-03
4.966855E+03	1.463247E-01	2.608365E-03
4.976749E+03	1.453999E-01	2.573070E-03
4.986643E+03	1.444592E-01	2.536974E-03
4.996537E+03	1.435120E-01	2.500287E-03
5.006431E+03	1.425718E-01	2.463282E-03
5.016325E+03	1.416426E-01	2.426067E-03
5.026219E+03	1.407342E-01	2.388844E-03
5.036114E+03	1.398559E-01	2.351802E-03
5.046008E+03	1.390152E-01	2.315096E-03
5.055902E+03	1.382180E-01	2.278846E-03
5.065796E+03	1.374725E-01	2.243212E-03
5.075690E+03	1.367839E-01	2.208292E-03
5.085584E+03	1.361589E-01	2.174213E-03
5.095478E+03	1.356020E-01	2.141060E-03
5.105373E+03	1.351167E-01	2.108897E-03
5.115267E+03	1.347063E-01	2.077787E-03
5.125161E+03	1.343687E-01	2.047709E-03
5.135055E+03	1.341044E-01	2.018685E-03
5.144949E+03	1.339130E-01	1.990720E-03
5.154843E+03	1.337900E-01	1.963767E-03
5.164737E+03	1.337326E-01	1.937809E-03
5.174631E+03	1.337347E-01	1.912787E-03
5.184526E+03	1.337928E-01	1.888685E-03
5.194420E+03	1.338999E-01	1.865447E-03
5.204314E+03	1.340533E-01	1.843083E-03
5.214208E+03	1.342446E-01	1.821535E-03
5.224102E+03	1.344706E-01	1.800825E-03
5.233996E+03	1.347223E-01	1.780904E-03
5.243890E+03	1.349957E-01	1.761800E-03
5.253785E+03	1.352837E-01	1.743506E-03
5.263679E+03	1.355766E-01	1.725997E-03
5.273573E+03	1.358672E-01	1.709283E-03
5.283467E+03	1.361444E-01	1.693335E-03
5.293361E+03	1.364007E-01	1.678177E-03
5.303255E+03	1.366252E-01	1.663794E-03
5.313149E+03	1.368036E-01	1.650138E-03
5.323043E+03	1.369283E-01	1.637240E-03
5.332938E+03	1.369843E-01	1.625046E-03
5.342832E+03	1.369615E-01	1.613554E-03
5.352726E+03	1.368492E-01	1.602749E-03
5.362620E+03	1.366406E-01	1.592651E-03
5.372514E+03	1.363342E-01	1.583329E-03
5.382408E+03	1.359412E-01	1.574943E-03
5.392302E+03	1.354748E-01	1.567563E-03
5.402196E+03	1.349518E-01	1.561277E-03
5.412091E+03	1.343892E-01	1.556158E-03
5.421985E+03	1.337984E-01	1.552214E-03
5.431879E+03	1.331941E-01	1.549481E-03
5.441773E+03	1.325880E-01	1.547962E-03
5.451667E+03	1.319890E-01	1.547631E-03
5.461561E+03	1.314088E-01	1.548495E-03
5.471455E+03	1.308525E-01	1.550491E-03
5.481350E+03	1.303290E-01	1.553605E-03
5.491244E+03	1.298412E-01	1.557760E-03
5.501138E+03	1.293938E-01	1.562905E-03
5.511032E+03	1.289918E-01	1.569003E-03
5.520926E+03	1.286388E-01	1.576003E-03
5.530820E+03	1.283355E-01	1.583829E-03
5.540714E+03	1.280878E-01	1.592476E-03
5.550608E+03	1.278968E-01	1.601882E-03
5.560503E+03	1.277676E-01	1.612045E-03
5.570397E+03	1.277031E-01	1.622941E-03
5.580291E+03	1.277078E-01	1.634572E-03
5.590185E+03	1.277879E-01	1.646964E-03
5.600079E+03	1.279455E-01	1.660100E-03
5.609973E+03	1.281869E-01	1.674019E-03
5.619867E+03	1.285153E-01	1.688725E-03
5.629762E+03	1.289351E-01	1.704236E-03
5.639656E+03	1.294512E-01	1.720584E-03
5.649550E+03	1.300638E-01	1.737740E-03
5.659444E+03	1.307762E-01	1.755713E-03
5.669338E+03	1.315877E-01	1.774462E-03
5.679232E+03	1.324991E-01	1.793963E-03
5.689126E+03	1.335067E-01	1.814132E-03
5.699020E+03	1.346055E-01	1.834862E-03
5.708915E+03	1.357924E-01	1.856072E-03
5.718809E+03	1.370574E-01	1.877583E-03
5.728703E+03	1.383925E-01	1.899243E-03
5.738597E+03	1.397857E-01	1.920839E-03
5.748491E+03	1.412245E-01	1.942152E-03
5.758385E+03	1.426951E-01	1.962945E-03
5.768279E+03	1.441828E-01	1.982965E-03
5.778174E+03	1.456721E-01	2.001951E-03
5.788068E+03	1.471454E-01	2.019614E-03
5.797962E+03	1.485881E-01	2.035710E-03
5.807856E+03	1.499827E-01	2.049959E-03
5.817750E+03	1.513152E-01	2.062136E-03
5.827644E+03	1.525684E-01	2.071977E-03
5.837538E+03	1.537327E-01	2.079333E-03
5.847432E+03	1.547947E-01	2.084006E-03
5.857327E+03	1.557479E-01	2.085908E-03
5.867221E+03	1.565881E-01	2.084982E-03
5.877115E+03	1.573127E-01	2.081210E-03
5.887009E+03	1.579266E-01	2.074672E-03
5.896903E+03	1.584360E-01	2.065479E-03
5.906797E+03	1.588529E-01	2.053818E-03
5.916691E+03	1.591949E-01	2.039948E-03
5.926586E+03	1.594790E-01	2.024123E-03
5.936480E+03	1.597333E-01	2.006732E-03
5.946374E+03	1.599793E-01	1.988072E-03
5.956268E+03	1.602487E-01	1.968561E-03
5.966162E+03	1.605706E-01	1.948565E-03
5.976056E+03	1.609762E-01	1.928467E-03
5.985950E+03	1.614993E-01	1.908658E-03
5.995844E+03	1.621717E-01	1.889491E-03
6.005739E+03	1.630231E-01	1.871271E-03
6.015633E+03	1.640865E-01	1.854321E-03
6.025527E+03	1.653899E-01	1.838890E-03
6.035421E+03	1.669585E-01	1.825176E-03
6.045315E+03	1.688140E-01	1.813325E-03
6.055209E+03	1.709754E-01	1.803445E-03
6.065103E+03	1.734577E-01	1.795599E-03
6.074998E+03	1.762652E-01	1.789738E-03
6.084892E+03	1.793955E-01	1.785760E-03
6.094786E+03	1.828372E-01	1.783501E-03
6.104680E+03	1.865691E-01	1.782735E-03
6.114574E+03	1.905474E-01	1.783076E-03
6.124468E+03	1.947059E-01	1.784002E-03
6.134362E+03	1.989516E-01	1.784849E-03
6.144256E+03	2.031731E-01	1.784906E-03
6.154151E+03	2.072235E-01	1.783287E-03
6.164045E+03	2.109275E-01	1.779016E-03
6.173939E+03	2.140827E-01	1.771047E-03
6.183833E+03	2.164798E-01	1.758428E-03
6.193727E+03	2.179095E-01	1.740322E-03
6.203621E+03	2.182088E-01	1.716325E-03
6.213515E+03	2.173263E-01	1.686895E-03
6.223410E+03	2.153817E-01	1.653696E-03
6.233304E+03	2.126114E-01	1.619091E-03
6.243198E+03	2.092949E-01	1.585551E-03
6.253092E+03	2.057026E-01	1.555289E-03
6.262986E+03	2.020885E-01	1.530255E-03
6.272880E+03	1.986669E-01	1.511956E-03
6.282774E+03	1.955976E-01	1.501232E-03
6.292668E+03	1.929999E-01	1.498592E-03
6.302563E+03	1.909586E-01	1.504352E-03
6.312457E+03	1.895303E-01	1.518696E-03
6.322351E+03	1.887405E-01	1.541653E-03
6.332245E+03	1.886051E-01	1.573263E-03
6.342139E+03	1.891218E-01	1.613495E-03
6.352033E+03	1.902772E-01	1.662286E-03
6.361927E+03	1.920510E-01	1.719565E-03
6.371822E+03	1.944102E-01	1.785184E-03
6.381716E+03	1.973204E-01	1.858992E-03
6.391610E+03	2.007374E-01	1.940753E-03
6.401504E+03	2.046027E-01	2.030072E-03
6.411398E+03	2.088606E-01	2.126547E-03
6.421292E+03	2.134402E-01	2.229575E-03
6.431186E+03	2.182698E-01	2.338479E-03
6.441080E+03	2.232726E-01	2.452455E-03
6.450975E+03	2.283613E-01	2.570504E-03
6.460869E+03	2.334554E-01	2.691610E-03
6.470763E+03	2.384688E-01	2.814602E-03
6.480657E+03	2.433199E-01	2.938275E-03
6.490551E+03	2.479240E-01	3.061293E-03
6.500445E+03	2.521987E-01	3.182263E-03
6.510339E+03	2.560731E-01	3.299852E-03
6.520234E+03	2.594710E-01	3.412595E-03
6.530128E+03	2.623289E-01	3.519121E-03
6.540022E+03	2.645963E-01	3.618185E-03
6.549916E+03	2.662333E-01	3.708653E-03
6.559810E+03	2.672071E-01	3.789468E-03
6.569704E+03	2.675130E-01	3.859969E-03
6.579598E+03	2.671436E-01	3.919470E-03
6.589492E+03	2.661194E-01	3.967721E-03
6.599387E+03	2.644665E-01	4.004598E-03
6.609281E+03	2.622205E-01	4.030175E-03
6.619175E+03	2.594237E-01	4.044690E-03
6.629069E+03	2.561294E-01	4.048614E-03
6.638963E+03	2.523956E-01	4.042564E-03
6.648857E+03	2.482774E-01	4.027178E-03
6.658751E+03	2.438335E-01	4.003226E-03
6.668645E+03	2.391255E-01	3.971583E-03
6.678540E+03	2.342107E-01	3.933118E-03
6.688434E+03	2.291419E-01	3.888680E-03
6.698328E+03	2.239770E-01	3.839253E-03
6.708222E+03	2.187628E-01	3.785679E-03
6.718116E+03	2.135446E-01	3.728810E-03
6.728010E+03	2.083660E-01	3.669501E-03
6.737904E+03	2.032634E-01	3.608510E-03
6.747799E+03	1.982664E-01	3.546492E-03
6.757693E+03	1.934071E-01	3.484161E-03
6.767587E+03	1.887062E-01	3.422040E-03
6.777481E+03	1.841824E-01	3.360618E-03
6.787375E+03	1.798500E-01	3.300311E-03
6.797269E+03	1.757218E-01	3.241503E-03
6.807163E+03	1.718029E-01	3.184433E-03
6.817057E+03	1.680990E-01	3.129347E-03
6.826952E+03	1.646113E-01	3.076396E-03
6.836846E+03	1.613381E-01	3.025675E-03
6.846740E+03	1.582758E-01	2.977226E-03
6.856634E+03	1.554166E-01	2.931009E-03
6.866528E+03	1.527570E-01	2.887051E-03
6.876422E+03	1.502864E-01	2.845235E-03
6.886316E+03	1.479948E-01	2.805449E-03
6.896211E+03	1.458716E-01	2.767555E-03
6.906105E+03	1.439068E-01	2.731423E-03
6.915999E+03	1.420867E-01	2.696844E-03
6.925893E+03	1.403988E-01	2.663626E-03
6.935787E+03	1.388305E-01	2.631566E-03
6.945681E+03	1.373708E-01	2.600489E-03
6.955575E+03	1.360052E-01	2.570154E-03
6.965469E+03	1.347232E-01	2.540384E-03
6.975364E+03	1.335109E-01	2.510945E-03
6.985258E+03	1.323567E-01	2.481642E-03
6.995152E+03	1.312511E-01	2.452321E-03
7.005046E+03	1.301822E-01	2.422780E-03
7.014940E+03	1.291403E-01	2.392866E-03
7.024834E+03	1.281184E-01	2.362472E-03
7.034728E+03	1.271085E-01	2.331482E-03
7.044623E+03	1.261009E-01	2.299746E-03
7.054517E+03	1.250931E-01	2.267252E-03
7.064411E+03	1.240791E-01	2.233926E-03
7.074305E+03	1.230570E-01	2.199772E-03
7.084199E+03	1.220230E-01	2.164762E-03
7.094093E+03	1.209757E-01	2.128913E-03
7.103987E+03	1.199159E-01	2.092286E-03
7.113881E+03	1.188409E-01	2.054878E-03
7.123776E+03	1.177558E-01	2.016826E-03
7.133670E+03	1.166571E-01	1.978121E-03
7.143564E+03	1.155494E-01	1.938889E-03
7.153458E+03	1.144329E-01	1.899184E-03
7.163352E+03	1.133108E-01	1.859114E-03
7.173246E+03	1.121836E-01	1.818738E-03
7.183140E+03	1.110533E-01	1.778142E-03
7.193035E+03	1.099247E-01	1.737458E-03
7.202929E+03	1.087955E-01	1.696704E-03
7.212823E+03	1.076719E-01	1.656032E-03
7.222717E+03	1.065528E-01	1.615484E-03
7.232611E+03	1.054430E-01	1.575186E-03
7.242505E+03	1.043413E-01	1.535181E-03
7.252399E+03	1.032520E-01	1.495593E-03
7.262293E+03	1.021750E-01	1.456483E-03
7.272188E+03	1.011130E-01	1.417953E-03
7.282082E+03	1.000671E-01	1.380083E-03
7.291976E+03	9.903697E-02	1.342942E-03
7.301870E+03	9.802513E-02	1.306636E-03
7.311764E+03	9.703276E-02	1.271258E-03
7.321658E+03	9.606110E-02	1.236905E-03
7.331552E+03	9.511274E-02	1.203696E-03
7.341447E+03	9.418543E-02	1.171692E-03
7.351341E+03	9.328454E-02	1.141056E-03
7.361235E+03	9.240929E-02	1.111877E-03
7.371129E+03	9.156149E-02	1.084281E-03
7.381023E+03	9.074312E-02	1.058402E-03
7.390917E+03	8.995727E-02	1.034387E-03
7.400811E+03	8.920476E-02	1.012362E-03
7.410705E+03	8.848629E-02	9.924521E-04
7.420600E+03	8.780383E-02	9.747990E-04
7.430494E+03	8.715919E-02	9.595399E-04
7.440388E+03	8.655517E-02	9.468203E-04
7.450282E+03	8.598976E-02	9.367267E-04
7.460176E+03	8.546773E-02	9.294121E-04
7.470070E+03	8.498650E-02	9.249394E-04
7.479964E+03	8.454901E-02	9.234184E-04
7.489859E+03	8.415307E-02	9.248885E-04
7.499753E+03	8.379944E-02	9.293682E-04
7.509647E+03	8.348710E-02	9.367813E-04
7.519541E+03	8.321318E-02	9.470131E-04
7.529435E+03	8.297624E-02	9.599549E-04
7.539329E+03	8.277158E-02	9.754527E-04
7.549223E+03	8.259576E-02	9.933605E-04
7.559117E+03	8.244081E-02	1.013472E-03
7.569012E+03	8.230210E-02	1.035615E-03
7.578906E+03	8.217152E-02	1.059570E-03
7.588800E+03	8.203779E-02	1.085068E-03
7.598694E+03	8.189340E-02	1.111880E-03
7.608588E+03	8.172721E-02	1.139721E-03
7.618482E+03	8.152992E-02	1.168319E-03
7.628376E+03	8.129424E-02	1.197421E-03
7.638271E+03	8.101833E-02	1.226849E-03
7.648165E+03	8.070275E-02	1.256463E-03
7.658059E+03	8.035156E-02	1.286185E-03
7.667953E+03	7.997098E-02	1.315984E-03
7.677847E+03	7.956639E-02	1.345830E-03
