#wls	flux	fluxerr
1.583061E+03	8.496669E-02	8.939472E-03
1.622638E+03	8.720902E-02	9.056103E-03
1.662214E+03	8.945531E-02	9.165359E-03
1.701791E+03	9.171078E-02	9.267651E-03
1.741367E+03	9.398055E-02	9.363355E-03
1.780944E+03	9.623428E-02	9.449341E-03
1.820520E+03	9.845821E-02	9.524266E-03
1.860097E+03	1.006586E-01	9.588780E-03
1.899673E+03	1.028276E-01	9.642191E-03
1.939250E+03	1.049446E-01	9.682687E-03
1.978827E+03	1.070752E-01	9.716402E-03
2.018403E+03	1.091817E-01	9.739884E-03
2.057980E+03	1.113560E-01	9.761289E-03
2.097556E+03	1.136010E-01	9.780531E-03
2.137133E+03	1.160008E-01	9.804384E-03
2.176709E+03	1.186062E-01	9.836338E-03
2.216286E+03	1.214537E-01	9.878351E-03
2.255862E+03	1.246395E-01	9.936886E-03
2.295439E+03	1.281914E-01	1.001244E-02
2.335015E+03	1.321102E-01	1.010320E-02
2.374592E+03	1.364086E-01	1.020825E-02
2.414168E+03	1.410763E-01	1.032490E-02
2.453745E+03	1.461322E-01	1.045260E-02
2.493321E+03	1.515857E-01	1.059002E-02
2.532898E+03	1.574903E-01	1.073880E-02
2.572475E+03	1.639233E-01	1.090181E-02
2.612051E+03	1.709682E-01	1.108180E-02
2.651628E+03	1.786489E-01	1.127728E-02
2.691204E+03	1.869333E-01	1.148314E-02
2.730781E+03	1.957548E-01	1.169249E-02
2.770357E+03	2.051338E-01	1.190392E-02
2.809934E+03	2.150177E-01	1.211181E-02
2.849510E+03	2.254392E-01	1.231566E-02
2.889087E+03	2.363667E-01	1.251143E-02
2.928663E+03	2.477761E-01	1.269583E-02
2.968240E+03	2.596072E-01	1.286412E-02
2.978134E+03	2.626423E-01	1.290409E-02
2.988028E+03	2.656750E-01	1.294154E-02
2.997922E+03	2.687320E-01	1.297778E-02
3.007816E+03	2.718094E-01	1.301261E-02
3.017710E+03	2.748724E-01	1.304437E-02
3.027605E+03	2.779776E-01	1.307577E-02
3.037499E+03	2.810590E-01	1.310370E-02
3.047393E+03	2.841418E-01	1.312936E-02
3.057287E+03	2.872512E-01	1.315393E-02
3.067181E+03	2.903197E-01	1.317435E-02
3.077075E+03	2.934024E-01	1.319316E-02
3.086969E+03	2.964617E-01	1.320869E-02
3.096864E+03	2.994900E-01	1.322067E-02
3.106758E+03	3.024799E-01	1.322884E-02
3.116652E+03	3.054541E-01	1.323425E-02
3.126546E+03	3.083731E-01	1.323526E-02
3.136440E+03	3.112588E-01	1.323290E-02
3.146334E+03	3.140711E-01	1.322556E-02
3.156228E+03	3.168004E-01	1.321294E-02
3.166122E+03	3.194975E-01	1.319730E-02
3.176017E+03	3.220913E-01	1.317578E-02
3.185911E+03	3.246014E-01	1.314934E-02
3.195805E+03	3.270168E-01	1.311769E-02
3.205699E+03	3.293263E-01	1.308052E-02
3.215593E+03	3.314891E-01	1.303639E-02
3.225487E+03	3.335536E-01	1.298739E-02
3.235381E+03	3.354787E-01	1.293211E-02
3.245276E+03	3.372534E-01	1.287031E-02
3.255170E+03	3.388961E-01	1.280290E-02
3.265064E+03	3.403669E-01	1.272859E-02
3.274958E+03	3.416562E-01	1.264726E-02
3.284852E+03	3.428110E-01	1.256086E-02
3.294746E+03	3.437379E-01	1.246622E-02
3.304640E+03	3.445129E-01	1.236633E-02
3.314534E+03	3.450727E-01	1.225918E-02
3.324429E+03	3.454395E-01	1.214581E-02
3.334323E+03	3.456076E-01	1.202625E-02
3.344217E+03	3.455998E-01	1.190157E-02
3.354111E+03	3.453604E-01	1.177007E-02
3.364005E+03	3.449402E-01	1.163375E-02
3.373899E+03	3.443139E-01	1.149198E-02
3.383793E+03	3.435078E-01	1.134587E-02
3.393688E+03	3.425236E-01	1.119570E-02
3.403582E+03	3.413413E-01	1.104101E-02
3.413476E+03	3.399899E-01	1.088296E-02
3.423370E+03	3.384746E-01	1.072191E-02
3.433264E+03	3.368009E-01	1.055819E-02
3.443158E+03	3.349956E-01	1.039281E-02
3.453052E+03	3.330158E-01	1.022452E-02
3.462946E+03	3.309060E-01	1.005478E-02
3.472841E+03	3.286666E-01	9.883642E-03
3.482735E+03	3.262784E-01	9.710585E-03
3.492629E+03	3.237658E-01	9.536388E-03
3.502523E+03	3.211344E-01	9.361253E-03
3.512417E+03	3.183913E-01	9.185413E-03
3.522311E+03	3.155633E-01	9.009667E-03
3.532205E+03	3.126234E-01	8.833255E-03
3.542100E+03	3.096191E-01	8.657527E-03
3.551994E+03	3.065614E-01	8.482779E-03
3.561888E+03	3.034450E-01	8.308845E-03
3.571782E+03	3.002988E-01	8.136495E-03
3.581676E+03	2.971506E-01	7.966436E-03
3.591570E+03	2.939801E-01	7.798071E-03
3.601464E+03	2.908147E-01	7.632085E-03
3.611358E+03	2.876796E-01	7.469071E-03
3.621253E+03	2.845832E-01	7.309170E-03
3.631147E+03	2.815202E-01	7.152167E-03
3.641041E+03	2.785116E-01	6.998519E-03
3.650935E+03	2.755641E-01	6.848303E-03
3.660829E+03	2.726823E-01	6.701548E-03
3.670723E+03	2.698817E-01	6.558538E-03
3.680617E+03	2.671398E-01	6.418636E-03
3.690512E+03	2.644818E-01	6.282363E-03
3.700406E+03	2.619064E-01	6.149592E-03
3.710300E+03	2.594113E-01	6.020182E-03
3.720194E+03	2.569829E-01	5.893739E-03
3.730088E+03	2.546386E-01	5.770580E-03
3.739982E+03	2.523523E-01	5.650044E-03
3.749876E+03	2.501393E-01	5.532409E-03
3.759770E+03	2.479829E-01	5.417244E-03
3.769665E+03	2.458865E-01	5.304570E-03
3.779559E+03	2.438339E-01	5.193995E-03
3.789453E+03	2.418265E-01	5.085511E-03
3.799347E+03	2.398564E-01	4.978926E-03
3.809241E+03	2.379086E-01	4.873906E-03
3.819135E+03	2.359829E-01	4.770441E-03
3.829029E+03	2.340790E-01	4.668524E-03
3.838924E+03	2.321746E-01	4.567712E-03
3.848818E+03	2.302767E-01	4.468165E-03
3.858712E+03	2.283637E-01	4.369488E-03
3.868606E+03	2.264452E-01	4.271901E-03
3.878500E+03	2.245093E-01	4.175217E-03
3.888394E+03	2.225532E-01	4.079433E-03
3.898288E+03	2.205820E-01	3.984699E-03
3.908182E+03	2.185824E-01	3.890827E-03
3.918077E+03	2.165690E-01	3.798142E-03
3.927971E+03	2.145381E-01	3.706638E-03
3.937865E+03	2.124923E-01	3.616424E-03
3.947759E+03	2.104344E-01	3.527615E-03
3.957653E+03	2.083636E-01	3.440263E-03
3.967547E+03	2.062944E-01	3.354676E-03
3.977441E+03	2.042199E-01	3.270807E-03
3.987336E+03	2.021508E-01	3.188895E-03
3.997230E+03	2.000858E-01	3.108987E-03
4.007124E+03	1.980297E-01	3.031227E-03
4.017018E+03	1.959927E-01	2.955840E-03
4.026912E+03	1.939692E-01	2.882803E-03
4.036806E+03	1.919638E-01	2.812260E-03
4.046700E+03	1.899863E-01	2.744420E-03
4.056594E+03	1.880350E-01	2.679323E-03
4.066489E+03	1.861133E-01	2.617087E-03
4.076383E+03	1.842220E-01	2.557789E-03
4.086277E+03	1.823620E-01	2.501507E-03
4.096171E+03	1.805471E-01	2.448491E-03
4.106065E+03	1.787772E-01	2.398797E-03
4.115959E+03	1.770577E-01	2.352552E-03
4.125853E+03	1.754065E-01	2.310038E-03
4.135748E+03	1.738238E-01	2.271300E-03
4.145642E+03	1.723211E-01	2.236520E-03
4.155536E+03	1.709130E-01	2.205919E-03
4.165430E+03	1.696035E-01	2.179566E-03
4.175324E+03	1.684035E-01	2.157620E-03
4.185218E+03	1.673131E-01	2.140093E-03
4.195112E+03	1.663363E-01	2.127032E-03
4.205006E+03	1.654682E-01	2.118264E-03
4.214901E+03	1.647037E-01	2.113563E-03
4.224795E+03	1.640343E-01	2.112658E-03
4.234689E+03	1.634392E-01	2.115124E-03
4.244583E+03	1.629030E-01	2.120598E-03
4.254477E+03	1.624021E-01	2.128611E-03
4.264371E+03	1.619092E-01	2.138636E-03
4.274265E+03	1.614114E-01	2.150332E-03
4.284159E+03	1.609000E-01	2.163407E-03
4.294054E+03	1.603706E-01	2.177626E-03
4.303948E+03	1.598138E-01	2.192688E-03
4.313842E+03	1.592280E-01	2.208401E-03
4.323736E+03	1.586104E-01	2.224556E-03
4.333630E+03	1.579590E-01	2.240962E-03
4.343524E+03	1.572771E-01	2.257508E-03
4.353418E+03	1.565630E-01	2.274023E-03
4.363313E+03	1.558211E-01	2.290426E-03
4.373207E+03	1.550586E-01	2.306692E-03
4.383101E+03	1.542800E-01	2.322768E-03
4.392995E+03	1.534905E-01	2.338623E-03
4.402889E+03	1.527003E-01	2.354308E-03
4.412783E+03	1.519153E-01	2.369832E-03
4.422677E+03	1.511420E-01	2.385214E-03
4.432571E+03	1.503876E-01	2.400505E-03
4.442466E+03	1.496575E-01	2.415733E-03
4.452360E+03	1.489522E-01	2.430854E-03
4.462254E+03	1.482774E-01	2.445919E-03
4.472148E+03	1.476340E-01	2.460909E-03
4.482042E+03	1.470246E-01	2.475832E-03
4.491936E+03	1.464489E-01	2.490660E-03
4.501830E+03	1.459087E-01	2.505398E-03
4.511725E+03	1.454071E-01	2.520080E-03
4.521619E+03	1.449412E-01	2.534642E-03
4.531513E+03	1.445124E-01	2.549094E-03
4.541407E+03	1.441237E-01	2.563477E-03
4.551301E+03	1.437742E-01	2.577767E-03
4.561195E+03	1.434659E-01	2.591991E-03
4.571089E+03	1.432022E-01	2.606206E-03
4.580983E+03	1.429811E-01	2.620374E-03
4.590878E+03	1.428082E-01	2.634592E-03
4.600772E+03	1.426853E-01	2.648893E-03
4.610666E+03	1.426122E-01	2.663275E-03
4.620560E+03	1.425904E-01	2.677763E-03
4.630454E+03	1.426243E-01	2.692442E-03
4.640348E+03	1.427128E-01	2.707292E-03
4.650242E+03	1.428559E-01	2.722310E-03
4.660137E+03	1.430546E-01	2.737515E-03
4.670031E+03	1.433093E-01	2.752913E-03
4.679925E+03	1.436165E-01	2.768434E-03
4.689819E+03	1.439753E-01	2.784057E-03
4.699713E+03	1.443810E-01	2.799683E-03
4.709607E+03	1.448306E-01	2.815248E-03
4.719501E+03	1.453190E-01	2.830645E-03
4.729395E+03	1.458401E-01	2.845742E-03
4.739290E+03	1.463855E-01	2.860367E-03
4.749184E+03	1.469460E-01	2.874327E-03
4.759078E+03	1.475118E-01	2.887416E-03
4.768972E+03	1.480696E-01	2.899366E-03
4.778866E+03	1.486076E-01	2.909929E-03
4.788760E+03	1.491152E-01	2.918890E-03
4.798654E+03	1.495796E-01	2.925991E-03
4.808549E+03	1.499864E-01	2.930949E-03
4.818443E+03	1.503274E-01	2.933597E-03
4.828337E+03	1.505897E-01	2.933692E-03
4.838231E+03	1.507668E-01	2.931113E-03
4.848125E+03	1.508533E-01	2.925770E-03
4.858019E+03	1.508444E-01	2.917590E-03
4.867913E+03	1.507350E-01	2.906498E-03
4.877807E+03	1.505266E-01	2.892552E-03
4.887702E+03	1.502177E-01	2.875760E-03
4.897596E+03	1.498119E-01	2.856226E-03
4.907490E+03	1.493126E-01	2.834063E-03
4.917384E+03	1.487271E-01	2.809452E-03
4.927278E+03	1.480656E-01	2.782636E-03
4.937172E+03	1.473373E-01	2.753837E-03
4.947066E+03	1.465515E-01	2.723278E-03
4.956961E+03	1.457190E-01	2.691210E-03
4.966855E+03	1.448481E-01	2.657833E-03
4.976749E+03	1.439514E-01	2.623429E-03
4.986643E+03	1.430371E-01	2.588190E-03
4.996537E+03	1.421146E-01	2.552331E-03
5.006431E+03	1.411942E-01	2.516076E-03
5.016325E+03	1.402842E-01	2.479611E-03
5.026219E+03	1.393926E-01	2.443114E-03
5.036114E+03	1.385287E-01	2.406777E-03
5.046008E+03	1.376985E-01	2.370733E-03
5.055902E+03	1.369088E-01	2.335127E-03
5.065796E+03	1.361680E-01	2.300124E-03
5.075690E+03	1.354839E-01	2.265872E-03
5.085584E+03	1.348590E-01	2.232433E-03
5.095478E+03	1.342993E-01	2.199915E-03
5.105373E+03	1.338092E-01	2.168410E-03
5.115267E+03	1.333899E-01	2.137941E-03
5.125161E+03	1.330428E-01	2.108549E-03
5.135055E+03	1.327660E-01	2.080212E-03
5.144949E+03	1.325590E-01	2.052940E-03
5.154843E+03	1.324172E-01	2.026683E-03
5.164737E+03	1.323394E-01	2.001440E-03
5.174631E+03	1.323181E-01	1.977129E-03
5.184526E+03	1.323499E-01	1.953734E-03
5.194420E+03	1.324310E-01	1.931236E-03
5.204314E+03	1.325529E-01	1.909558E-03
5.214208E+03	1.327133E-01	1.888721E-03
5.224102E+03	1.329053E-01	1.868686E-03
5.233996E+03	1.331241E-01	1.849452E-03
5.243890E+03	1.333635E-01	1.831008E-03
5.253785E+03	1.336154E-01	1.813321E-03
5.263679E+03	1.338735E-01	1.796394E-03
5.273573E+03	1.341295E-01	1.780210E-03
5.283467E+03	1.343757E-01	1.764766E-03
5.293361E+03	1.346022E-01	1.750039E-03
5.303255E+03	1.347975E-01	1.735987E-03
5.313149E+03	1.349521E-01	1.722599E-03
5.323043E+03	1.350561E-01	1.709862E-03
5.332938E+03	1.350966E-01	1.697725E-03
5.342832E+03	1.350639E-01	1.686172E-03
5.352726E+03	1.349491E-01	1.675197E-03
5.362620E+03	1.347426E-01	1.664771E-03
5.372514E+03	1.344450E-01	1.654981E-03
5.382408E+03	1.340660E-01	1.645982E-03
5.392302E+03	1.336186E-01	1.637867E-03
5.402196E+03	1.331200E-01	1.630746E-03
5.412091E+03	1.325819E-01	1.624654E-03
5.421985E+03	1.320190E-01	1.619655E-03
5.431879E+03	1.314450E-01	1.615800E-03
5.441773E+03	1.308686E-01	1.613073E-03
5.451667E+03	1.303021E-01	1.611510E-03
5.461561E+03	1.297532E-01	1.611085E-03
5.471455E+03	1.292295E-01	1.611782E-03
5.481350E+03	1.287373E-01	1.613570E-03
5.491244E+03	1.282820E-01	1.616412E-03
5.501138E+03	1.278671E-01	1.620256E-03
5.511032E+03	1.274964E-01	1.625057E-03
5.520926E+03	1.271735E-01	1.630772E-03
5.530820E+03	1.269015E-01	1.637363E-03
5.540714E+03	1.266827E-01	1.644784E-03
5.550608E+03	1.265219E-01	1.653026E-03
5.560503E+03	1.264202E-01	1.662040E-03
5.570397E+03	1.263831E-01	1.671838E-03
5.580291E+03	1.264137E-01	1.682407E-03
5.590185E+03	1.265166E-01	1.693757E-03
5.600079E+03	1.266964E-01	1.705903E-03
5.609973E+03	1.269578E-01	1.718865E-03
5.619867E+03	1.273039E-01	1.732645E-03
5.629762E+03	1.277384E-01	1.747257E-03
5.639656E+03	1.282662E-01	1.762728E-03
5.649550E+03	1.288875E-01	1.779027E-03
5.659444E+03	1.296061E-01	1.796172E-03
5.669338E+03	1.304200E-01	1.814099E-03
5.679232E+03	1.313288E-01	1.832767E-03
5.689126E+03	1.323312E-01	1.852117E-03
5.699020E+03	1.334218E-01	1.872039E-03
5.708915E+03	1.345969E-01	1.892436E-03
5.718809E+03	1.358462E-01	1.913121E-03
5.728703E+03	1.371632E-01	1.933960E-03
5.738597E+03	1.385367E-01	1.954742E-03
5.748491E+03	1.399530E-01	1.975230E-03
5.758385E+03	1.414003E-01	1.995207E-03
5.768279E+03	1.428647E-01	2.014429E-03
5.778174E+03	1.443316E-01	2.032640E-03
5.788068E+03	1.457844E-01	2.049562E-03
5.797962E+03	1.472093E-01	2.064958E-03
5.807856E+03	1.485887E-01	2.078542E-03
5.817750E+03	1.499125E-01	2.090139E-03
5.827644E+03	1.511629E-01	2.099475E-03
5.837538E+03	1.523318E-01	2.106413E-03
5.847432E+03	1.534063E-01	2.110766E-03
5.857327E+03	1.543821E-01	2.112467E-03
5.867221E+03	1.552544E-01	2.111453E-03
5.877115E+03	1.560212E-01	2.107709E-03
5.887009E+03	1.566880E-01	2.101327E-03
5.896903E+03	1.572606E-01	2.092407E-03
5.906797E+03	1.577523E-01	2.081153E-03
5.916691E+03	1.581779E-01	2.067791E-03
5.926586E+03	1.585576E-01	2.052615E-03
5.936480E+03	1.589139E-01	2.035942E-03
5.946374E+03	1.592714E-01	2.018111E-03
5.956268E+03	1.596581E-01	1.999491E-03
5.966162E+03	1.601030E-01	1.980453E-03
5.976056E+03	1.606357E-01	1.961359E-03
5.985950E+03	1.612884E-01	1.942585E-03
5.995844E+03	1.620900E-01	1.924447E-03
6.005739E+03	1.630713E-01	1.907270E-03
6.015633E+03	1.642601E-01	1.891318E-03
6.025527E+03	1.656824E-01	1.876821E-03
6.035421E+03	1.673633E-01	1.863980E-03
6.045315E+03	1.693179E-01	1.852875E-03
6.055209E+03	1.715647E-01	1.843616E-03
6.065103E+03	1.741117E-01	1.836198E-03
6.074998E+03	1.769552E-01	1.830501E-03
6.084892E+03	1.800914E-01	1.826422E-03
6.094786E+03	1.834983E-01	1.823706E-03
6.104680E+03	1.871432E-01	1.822034E-03
6.114574E+03	1.909780E-01	1.820998E-03
6.124468E+03	1.949396E-01	1.820129E-03
6.134362E+03	1.989431E-01	1.818845E-03
6.144256E+03	2.028807E-01	1.816472E-03
6.154151E+03	2.066294E-01	1.812327E-03
6.164045E+03	2.100185E-01	1.805447E-03
6.173939E+03	2.128643E-01	1.794910E-03
6.183833E+03	2.149912E-01	1.779998E-03
6.193727E+03	2.162070E-01	1.759952E-03
6.203621E+03	2.163725E-01	1.734508E-03
6.213515E+03	2.154558E-01	1.704236E-03
6.223410E+03	2.135541E-01	1.670614E-03
6.233304E+03	2.108822E-01	1.635857E-03
6.243198E+03	2.076900E-01	1.602250E-03
6.253092E+03	2.042299E-01	1.571911E-03
6.262986E+03	2.007421E-01	1.546731E-03
6.272880E+03	1.974387E-01	1.528257E-03
6.282774E+03	1.944674E-01	1.517286E-03
6.292668E+03	1.919489E-01	1.514355E-03
6.302563E+03	1.899694E-01	1.519807E-03
6.312457E+03	1.885829E-01	1.533805E-03
6.322351E+03	1.878207E-01	1.556426E-03
6.332245E+03	1.877007E-01	1.587720E-03
6.342139E+03	1.882247E-01	1.627684E-03
6.352033E+03	1.893785E-01	1.676243E-03
6.361927E+03	1.911474E-01	1.733367E-03
6.371822E+03	1.935012E-01	1.798925E-03
6.381716E+03	1.964057E-01	1.872766E-03
6.391610E+03	1.998150E-01	1.954629E-03
6.401504E+03	2.036810E-01	2.044217E-03
6.411398E+03	2.079382E-01	2.141027E-03
6.421292E+03	2.125181E-01	2.244470E-03
6.431186E+03	2.173529E-01	2.353905E-03
6.441080E+03	2.223613E-01	2.468476E-03
6.450975E+03	2.274589E-01	2.587202E-03
6.460869E+03	2.325646E-01	2.709055E-03
6.470763E+03	2.375951E-01	2.832890E-03
6.480657E+03	2.424673E-01	2.957473E-03
6.490551E+03	2.470969E-01	3.081464E-03
6.500445E+03	2.514087E-01	3.203556E-03
6.510339E+03	2.553223E-01	3.322289E-03
6.520234E+03	2.587660E-01	3.436243E-03
6.530128E+03	2.616741E-01	3.544014E-03
6.540022E+03	2.639957E-01	3.644342E-03
6.549916E+03	2.656815E-01	3.735956E-03
6.559810E+03	2.667120E-01	3.817973E-03
6.569704E+03	2.670672E-01	3.889511E-03
6.579598E+03	2.667489E-01	3.950010E-03
6.589492E+03	2.657702E-01	3.999106E-03
6.599387E+03	2.641609E-01	4.036726E-03
6.609281E+03	2.619488E-01	4.062824E-03
6.619175E+03	2.591863E-01	4.077792E-03
6.629069E+03	2.559208E-01	4.082010E-03
6.638963E+03	2.522073E-01	4.076050E-03
6.648857E+03	2.481036E-01	4.060596E-03
6.658751E+03	2.436716E-01	4.036469E-03
6.668645E+03	2.389700E-01	4.004504E-03
6.678540E+03	2.340535E-01	3.965532E-03
6.688434E+03	2.289832E-01	3.920544E-03
6.698328E+03	2.238095E-01	3.870406E-03
6.708222E+03	2.185822E-01	3.816016E-03
6.718116E+03	2.133473E-01	3.758240E-03
6.728010E+03	2.081508E-01	3.697988E-03
6.737904E+03	2.030250E-01	3.635944E-03
6.747799E+03	1.980045E-01	3.572860E-03
6.757693E+03	1.931171E-01	3.509378E-03
6.767587E+03	1.883862E-01	3.446073E-03
6.777481E+03	1.838308E-01	3.383447E-03
6.787375E+03	1.794677E-01	3.321961E-03
6.797269E+03	1.753055E-01	3.261928E-03
6.807163E+03	1.713539E-01	3.203671E-03
6.817057E+03	1.676145E-01	3.147367E-03
6.826952E+03	1.640907E-01	3.093208E-03
6.836846E+03	1.607794E-01	3.041261E-03
6.846740E+03	1.576806E-01	2.991642E-03
6.856634E+03	1.547849E-01	2.944279E-03
6.866528E+03	1.520875E-01	2.899172E-03
6.876422E+03	1.495813E-01	2.856276E-03
6.886316E+03	1.472532E-01	2.815415E-03
6.896211E+03	1.450944E-01	2.776489E-03
6.906105E+03	1.430938E-01	2.739345E-03
6.915999E+03	1.412395E-01	2.703808E-03
6.925893E+03	1.395195E-01	2.669694E-03
6.935787E+03	1.379216E-01	2.636806E-03
6.945681E+03	1.364349E-01	2.604974E-03
6.955575E+03	1.350439E-01	2.573929E-03
6.965469E+03	1.337381E-01	2.543503E-03
6.975364E+03	1.325059E-01	2.513495E-03
6.985258E+03	1.313358E-01	2.483715E-03
6.995152E+03	1.302170E-01	2.453982E-03
7.005046E+03	1.291393E-01	2.424126E-03
7.014940E+03	1.280916E-01	2.393961E-03
7.024834E+03	1.270668E-01	2.363383E-03
7.034728E+03	1.260572E-01	2.332275E-03
7.044623E+03	1.250557E-01	2.300536E-03
7.054517E+03	1.240554E-01	2.268067E-03
7.064411E+03	1.230514E-01	2.234819E-03
7.074305E+03	1.220415E-01	2.200785E-03
7.084199E+03	1.210232E-01	2.165962E-03
7.094093E+03	1.199917E-01	2.130304E-03
7.103987E+03	1.189489E-01	2.093890E-03
7.113881E+03	1.178932E-01	2.056738E-03
7.123776E+03	1.168249E-01	2.018901E-03
7.133670E+03	1.157431E-01	1.980412E-03
7.143564E+03	1.146519E-01	1.941395E-03
7.153458E+03	1.135499E-01	1.901875E-03
7.163352E+03	1.124398E-01	1.861953E-03
7.173246E+03	1.113235E-01	1.821714E-03
7.183140E+03	1.102013E-01	1.781219E-03
7.193035E+03	1.090763E-01	1.740575E-03
7.202929E+03	1.079507E-01	1.699872E-03
7.212823E+03	1.068250E-01	1.659176E-03
7.222717E+03	1.057010E-01	1.618576E-03
7.232611E+03	1.045821E-01	1.578185E-03
7.242505E+03	1.034702E-01	1.538092E-03
7.252399E+03	1.023671E-01	1.498387E-03
7.262293E+03	1.012730E-01	1.459137E-03
7.272188E+03	1.001933E-01	1.420486E-03
7.282082E+03	9.912663E-02	1.382485E-03
7.291976E+03	9.807566E-02	1.345241E-03
7.301870E+03	9.704297E-02	1.308865E-03
7.311764E+03	9.603114E-02	1.273466E-03
7.321658E+03	9.504270E-02	1.239159E-03
7.331552E+03	9.407909E-02	1.206046E-03
7.341447E+03	9.314300E-02	1.174248E-03
7.351341E+03	9.223596E-02	1.143876E-03
7.361235E+03	9.135962E-02	1.115046E-03
7.371129E+03	9.051449E-02	1.087865E-03
7.381023E+03	8.970000E-02	1.062431E-03
7.390917E+03	8.891803E-02	1.038878E-03
7.400811E+03	8.816814E-02	1.017311E-03
7.410705E+03	8.745340E-02	9.978829E-04
7.420600E+03	8.677217E-02	9.806888E-04
7.430494E+03	8.612737E-02	9.658756E-04
7.440388E+03	8.552062E-02	9.535716E-04
7.450282E+03	8.495102E-02	9.438704E-04
7.460176E+03	8.442204E-02	9.369064E-04
7.470070E+03	8.393227E-02	9.327488E-04
7.479964E+03	8.348334E-02	9.314879E-04
7.489859E+03	8.307417E-02	9.331679E-04
7.499753E+03	8.270544E-02	9.377905E-04
7.509647E+03	8.237610E-02	9.452731E-04
7.519541E+03	8.208326E-02	9.554984E-04
7.529435E+03	8.182446E-02	9.683442E-04
7.539329E+03	8.159743E-02	9.836834E-04
7.549223E+03	8.139677E-02	1.001346E-03
7.559117E+03	8.121837E-02	1.021171E-03
7.569012E+03	8.105604E-02	1.042970E-03
7.578906E+03	8.090158E-02	1.066521E-03
7.588800E+03	8.074833E-02	1.091616E-03
7.598694E+03	8.058920E-02	1.118039E-03
7.608588E+03	8.041391E-02	1.145519E-03
7.618482E+03	8.021616E-02	1.173836E-03
7.628376E+03	7.999008E-02	1.202769E-03
7.638271E+03	7.973278E-02	1.232137E-03
7.648165E+03	7.944441E-02	1.261810E-03
7.658059E+03	7.912806E-02	1.291709E-03
7.667953E+03	7.878571E-02	1.321746E-03
7.677847E+03	7.842202E-02	1.351888E-03
