#wls	flux	fluxerr
1.583061E+03	8.643574E-02	8.910649E-03
1.622638E+03	8.872925E-02	9.026428E-03
1.662214E+03	9.103361E-02	9.135409E-03
1.701791E+03	9.337203E-02	9.239743E-03
1.741367E+03	9.569685E-02	9.334544E-03
1.780944E+03	9.802902E-02	9.421795E-03
1.820520E+03	1.003354E-01	9.498245E-03
1.860097E+03	1.026201E-01	9.564323E-03
1.899673E+03	1.048724E-01	9.619062E-03
1.939250E+03	1.070672E-01	9.660317E-03
1.978827E+03	1.092484E-01	9.692179E-03
2.018403E+03	1.114338E-01	9.716243E-03
2.057980E+03	1.136348E-01	9.733441E-03
2.097556E+03	1.159134E-01	9.748934E-03
2.137133E+03	1.183149E-01	9.766084E-03
2.176709E+03	1.209135E-01	9.790340E-03
2.216286E+03	1.237708E-01	9.825649E-03
2.255862E+03	1.269455E-01	9.875303E-03
2.295439E+03	1.304887E-01	9.941622E-03
2.335015E+03	1.343991E-01	1.002268E-02
2.374592E+03	1.386861E-01	1.011730E-02
2.414168E+03	1.433095E-01	1.022072E-02
2.453745E+03	1.483027E-01	1.033355E-02
2.493321E+03	1.536644E-01	1.045385E-02
2.532898E+03	1.594625E-01	1.058428E-02
2.572475E+03	1.656899E-01	1.072222E-02
2.612051E+03	1.724991E-01	1.087520E-02
2.651628E+03	1.798326E-01	1.103684E-02
2.691204E+03	1.877108E-01	1.120588E-02
2.730781E+03	1.961037E-01	1.137801E-02
2.770357E+03	2.049656E-01	1.154822E-02
2.809934E+03	2.143486E-01	1.171720E-02
2.849510E+03	2.242565E-01	1.188284E-02
2.889087E+03	2.346867E-01	1.204275E-02
2.928663E+03	2.456792E-01	1.219686E-02
2.968240E+03	2.572131E-01	1.234203E-02
2.978134E+03	2.601979E-01	1.237751E-02
2.988028E+03	2.631906E-01	1.241105E-02
2.997922E+03	2.661886E-01	1.244255E-02
3.007816E+03	2.692502E-01	1.247470E-02
3.017710E+03	2.723103E-01	1.250447E-02
3.027605E+03	2.753954E-01	1.253308E-02
3.037499E+03	2.785019E-01	1.256036E-02
3.047393E+03	2.816251E-01	1.258610E-02
3.057287E+03	2.847600E-01	1.261007E-02
3.067181E+03	2.879323E-01	1.263341E-02
3.077075E+03	2.910740E-01	1.265315E-02
3.086969E+03	2.942099E-01	1.267043E-02
3.096864E+03	2.973647E-01	1.268631E-02
3.106758E+03	3.004997E-01	1.269919E-02
3.116652E+03	3.036073E-01	1.270879E-02
3.126546E+03	3.067105E-01	1.271613E-02
3.136440E+03	3.097696E-01	1.271963E-02
3.146334E+03	3.127752E-01	1.271898E-02
3.156228E+03	3.157491E-01	1.271515E-02
3.166122E+03	3.186808E-01	1.270782E-02
3.176017E+03	3.215597E-01	1.269664E-02
3.185911E+03	3.243437E-01	1.268007E-02
3.195805E+03	3.270528E-01	1.265903E-02
3.205699E+03	3.297053E-01	1.263435E-02
3.215593E+03	3.322282E-01	1.260337E-02
3.225487E+03	3.346394E-01	1.256696E-02
3.235381E+03	3.369265E-01	1.252482E-02
3.245276E+03	3.391073E-01	1.247779E-02
3.255170E+03	3.411389E-01	1.242447E-02
3.265064E+03	3.430086E-01	1.236463E-02
3.274958E+03	3.447343E-01	1.229911E-02
3.284852E+03	3.463035E-01	1.222770E-02
3.294746E+03	3.476756E-01	1.214917E-02
3.304640E+03	3.488400E-01	1.206343E-02
3.314534E+03	3.498442E-01	1.197237E-02
3.324429E+03	3.506494E-01	1.187489E-02
3.334323E+03	3.512203E-01	1.177006E-02
3.344217E+03	3.516050E-01	1.165976E-02
3.354111E+03	3.517696E-01	1.154311E-02
3.364005E+03	3.517101E-01	1.142026E-02
3.373899E+03	3.514495E-01	1.129219E-02
3.383793E+03	3.509853E-01	1.115908E-02
3.393688E+03	3.502914E-01	1.102033E-02
3.403582E+03	3.493694E-01	1.087624E-02
3.413476E+03	3.482711E-01	1.072868E-02
3.423370E+03	3.469744E-01	1.057714E-02
3.433264E+03	3.454587E-01	1.042123E-02
3.443158E+03	3.437732E-01	1.026261E-02
3.453052E+03	3.419161E-01	1.010137E-02
3.462946E+03	3.398636E-01	9.936892E-03
3.472841E+03	3.376166E-01	9.769288E-03
3.482735E+03	3.351998E-01	9.599368E-03
3.492629E+03	3.326177E-01	9.427323E-03
3.502523E+03	3.298770E-01	9.253410E-03
3.512417E+03	3.269872E-01	9.077947E-03
3.522311E+03	3.239787E-01	8.901815E-03
3.532205E+03	3.208254E-01	8.724328E-03
3.542100E+03	3.175981E-01	8.547435E-03
3.551994E+03	3.142738E-01	8.370510E-03
3.561888E+03	3.108688E-01	8.193987E-03
3.571782E+03	3.074335E-01	8.019174E-03
3.581676E+03	3.039654E-01	7.845968E-03
3.591570E+03	3.004798E-01	7.674713E-03
3.601464E+03	2.969912E-01	7.505733E-03
3.611358E+03	2.935288E-01	7.339697E-03
3.621253E+03	2.900900E-01	7.176465E-03
3.631147E+03	2.867009E-01	7.016604E-03
3.641041E+03	2.833717E-01	6.860272E-03
3.650935E+03	2.801242E-01	6.707897E-03
3.660829E+03	2.769380E-01	6.558891E-03
3.670723E+03	2.738454E-01	6.413920E-03
3.680617E+03	2.708368E-01	6.272660E-03
3.690512E+03	2.679152E-01	6.135075E-03
3.700406E+03	2.651049E-01	6.001623E-03
3.710300E+03	2.623813E-01	5.871640E-03
3.720194E+03	2.597540E-01	5.745249E-03
3.730088E+03	2.572300E-01	5.622510E-03
3.739982E+03	2.547835E-01	5.502769E-03
3.749876E+03	2.524300E-01	5.386284E-03
3.759770E+03	2.501526E-01	5.272618E-03
3.769665E+03	2.479543E-01	5.161769E-03
3.779559E+03	2.458269E-01	5.053499E-03
3.789453E+03	2.437529E-01	4.947405E-03
3.799347E+03	2.417336E-01	4.843469E-03
3.809241E+03	2.397596E-01	4.741473E-03
3.819135E+03	2.378224E-01	4.641226E-03
3.829029E+03	2.359132E-01	4.542537E-03
3.838924E+03	2.340235E-01	4.445248E-03
3.848818E+03	2.321452E-01	4.349206E-03
3.858712E+03	2.302708E-01	4.254288E-03
3.868606E+03	2.283945E-01	4.160414E-03
3.878500E+03	2.265181E-01	4.067648E-03
3.888394E+03	2.246307E-01	3.975831E-03
3.898288E+03	2.227229E-01	3.884847E-03
3.908182E+03	2.208083E-01	3.794985E-03
3.918077E+03	2.188800E-01	3.706179E-03
3.927971E+03	2.169397E-01	3.618518E-03
3.937865E+03	2.149897E-01	3.532101E-03
3.947759E+03	2.130266E-01	3.446939E-03
3.957653E+03	2.110599E-01	3.363249E-03
3.967547E+03	2.090931E-01	3.281156E-03
3.977441E+03	2.071188E-01	3.200612E-03
3.987336E+03	2.051521E-01	3.121925E-03
3.997230E+03	2.031915E-01	3.045141E-03
4.007124E+03	2.012409E-01	2.970391E-03
4.017018E+03	1.992992E-01	2.897733E-03
4.026912E+03	1.973701E-01	2.827301E-03
4.036806E+03	1.954618E-01	2.759285E-03
4.046700E+03	1.935636E-01	2.693616E-03
4.056594E+03	1.916878E-01	2.630543E-03
4.066489E+03	1.898329E-01	2.570127E-03
4.076383E+03	1.879988E-01	2.512445E-03
4.086277E+03	1.861943E-01	2.457695E-03
4.096171E+03	1.844175E-01	2.405925E-03
4.106065E+03	1.826763E-01	2.357312E-03
4.115959E+03	1.809802E-01	2.312045E-03
4.125853E+03	1.793363E-01	2.270273E-03
4.135748E+03	1.777562E-01	2.232197E-03
4.145642E+03	1.762485E-01	2.197970E-03
4.155536E+03	1.748220E-01	2.167738E-03
4.165430E+03	1.734912E-01	2.141713E-03
4.175324E+03	1.722621E-01	2.119993E-03
4.185218E+03	1.711388E-01	2.102643E-03
4.195112E+03	1.701220E-01	2.089678E-03
4.205006E+03	1.692120E-01	2.080996E-03
4.214901E+03	1.684040E-01	2.076372E-03
4.224795E+03	1.676853E-01	2.075481E-03
4.234689E+03	1.670373E-01	2.077929E-03
4.244583E+03	1.664417E-01	2.083317E-03
4.254477E+03	1.658667E-01	2.091072E-03
4.264371E+03	1.652847E-01	2.100667E-03
4.274265E+03	1.646820E-01	2.111742E-03
4.284159E+03	1.640544E-01	2.124055E-03
4.294054E+03	1.634004E-01	2.137398E-03
4.303948E+03	1.627197E-01	2.151583E-03
4.313842E+03	1.620114E-01	2.166421E-03
4.323736E+03	1.612774E-01	2.181762E-03
4.333630E+03	1.605129E-01	2.197376E-03
4.343524E+03	1.597219E-01	2.213158E-03
4.353418E+03	1.589074E-01	2.228997E-03
4.363313E+03	1.580714E-01	2.244781E-03
4.373207E+03	1.572219E-01	2.260494E-03
4.383101E+03	1.563660E-01	2.276119E-03
4.392995E+03	1.555092E-01	2.291628E-03
4.402889E+03	1.546621E-01	2.307083E-03
4.412783E+03	1.538331E-01	2.322526E-03
4.422677E+03	1.530257E-01	2.337941E-03
4.432571E+03	1.522492E-01	2.353406E-03
4.442466E+03	1.515070E-01	2.368924E-03
4.452360E+03	1.508016E-01	2.384488E-03
4.462254E+03	1.501400E-01	2.400174E-03
4.472148E+03	1.495189E-01	2.415898E-03
4.482042E+03	1.489400E-01	2.431659E-03
4.491936E+03	1.484063E-01	2.447486E-03
4.501830E+03	1.479150E-01	2.463311E-03
4.511725E+03	1.474665E-01	2.479128E-03
4.521619E+03	1.470631E-01	2.494960E-03
4.531513E+03	1.467018E-01	2.510744E-03
4.541407E+03	1.463832E-01	2.526479E-03
4.551301E+03	1.461082E-01	2.542173E-03
4.561195E+03	1.458779E-01	2.557839E-03
4.571089E+03	1.456938E-01	2.573497E-03
4.580983E+03	1.455574E-01	2.589169E-03
4.590878E+03	1.454688E-01	2.604853E-03
4.600772E+03	1.454297E-01	2.620578E-03
4.610666E+03	1.454453E-01	2.636434E-03
4.620560E+03	1.455120E-01	2.652356E-03
4.630454E+03	1.456345E-01	2.668427E-03
4.640348E+03	1.458119E-01	2.684628E-03
4.650242E+03	1.460429E-01	2.700933E-03
4.660137E+03	1.463273E-01	2.717333E-03
4.670031E+03	1.466643E-01	2.733809E-03
4.679925E+03	1.470490E-01	2.750264E-03
4.689819E+03	1.474775E-01	2.766619E-03
4.699713E+03	1.479452E-01	2.782774E-03
4.709607E+03	1.484446E-01	2.798578E-03
4.719501E+03	1.489655E-01	2.813827E-03
4.729395E+03	1.494996E-01	2.828354E-03
4.739290E+03	1.500358E-01	2.841930E-03
4.749184E+03	1.505697E-01	2.854460E-03
4.759078E+03	1.510909E-01	2.865734E-03
4.768972E+03	1.515946E-01	2.875646E-03
4.778866E+03	1.520717E-01	2.884019E-03
4.788760E+03	1.525098E-01	2.890602E-03
4.798654E+03	1.529024E-01	2.895272E-03
4.808549E+03	1.532372E-01	2.897790E-03
4.818443E+03	1.535025E-01	2.897938E-03
4.828337E+03	1.536930E-01	2.895622E-03
4.838231E+03	1.537986E-01	2.890661E-03
4.848125E+03	1.538154E-01	2.883001E-03
4.858019E+03	1.537382E-01	2.872564E-03
4.867913E+03	1.535636E-01	2.859313E-03
4.877807E+03	1.532916E-01	2.843280E-03
4.887702E+03	1.529223E-01	2.824507E-03
4.897596E+03	1.524582E-01	2.803078E-03
4.907490E+03	1.519052E-01	2.779148E-03
4.917384E+03	1.512700E-01	2.752888E-03
4.927278E+03	1.505592E-01	2.724468E-03
4.937172E+03	1.497851E-01	2.694162E-03
4.947066E+03	1.489558E-01	2.662164E-03
4.956961E+03	1.480825E-01	2.628728E-03
4.966855E+03	1.471735E-01	2.594050E-03
4.976749E+03	1.462418E-01	2.558409E-03
4.986643E+03	1.452940E-01	2.521964E-03
4.996537E+03	1.443398E-01	2.484926E-03
5.006431E+03	1.433925E-01	2.447569E-03
5.016325E+03	1.424565E-01	2.410002E-03
5.026219E+03	1.415415E-01	2.372425E-03
5.036114E+03	1.406570E-01	2.335029E-03
5.046008E+03	1.398108E-01	2.297969E-03
5.055902E+03	1.390087E-01	2.261366E-03
5.065796E+03	1.382590E-01	2.225376E-03
5.075690E+03	1.375668E-01	2.190098E-03
5.085584E+03	1.369390E-01	2.155657E-03
5.095478E+03	1.363801E-01	2.122138E-03
5.105373E+03	1.358935E-01	2.089601E-03
5.115267E+03	1.354825E-01	2.058112E-03
5.125161E+03	1.351450E-01	2.027646E-03
5.135055E+03	1.348817E-01	1.998228E-03
5.144949E+03	1.346921E-01	1.969862E-03
5.154843E+03	1.345715E-01	1.942503E-03
5.164737E+03	1.345173E-01	1.916135E-03
5.174631E+03	1.345234E-01	1.890700E-03
5.184526E+03	1.345861E-01	1.866182E-03
5.194420E+03	1.346986E-01	1.842529E-03
5.204314E+03	1.348578E-01	1.819752E-03
5.214208E+03	1.350553E-01	1.797792E-03
5.224102E+03	1.352877E-01	1.776673E-03
5.233996E+03	1.355458E-01	1.756348E-03
5.243890E+03	1.358255E-01	1.736849E-03
5.253785E+03	1.361192E-01	1.718168E-03
5.263679E+03	1.364173E-01	1.700286E-03
5.273573E+03	1.367121E-01	1.683214E-03
5.283467E+03	1.369925E-01	1.666929E-03
5.293361E+03	1.372506E-01	1.651459E-03
5.303255E+03	1.374754E-01	1.636794E-03
5.313149E+03	1.376523E-01	1.622892E-03
5.323043E+03	1.377735E-01	1.609790E-03
5.332938E+03	1.378240E-01	1.597441E-03
5.342832E+03	1.377934E-01	1.585846E-03
5.352726E+03	1.376711E-01	1.574998E-03
5.362620E+03	1.374504E-01	1.564923E-03
5.372514E+03	1.371298E-01	1.555691E-03
5.382408E+03	1.367211E-01	1.547462E-03
5.392302E+03	1.362378E-01	1.540299E-03
5.402196E+03	1.356974E-01	1.534287E-03
5.412091E+03	1.351169E-01	1.529492E-03
5.421985E+03	1.345083E-01	1.525917E-03
5.431879E+03	1.338864E-01	1.523592E-03
5.441773E+03	1.332630E-01	1.522515E-03
5.451667E+03	1.326473E-01	1.522651E-03
5.461561E+03	1.320508E-01	1.524000E-03
5.471455E+03	1.314786E-01	1.526493E-03
5.481350E+03	1.309398E-01	1.530112E-03
5.491244E+03	1.304370E-01	1.534773E-03
5.501138E+03	1.299748E-01	1.540420E-03
5.511032E+03	1.295585E-01	1.547012E-03
5.520926E+03	1.291914E-01	1.554497E-03
5.530820E+03	1.288743E-01	1.562796E-03
5.540714E+03	1.286132E-01	1.571900E-03
5.550608E+03	1.284091E-01	1.581749E-03
5.560503E+03	1.282672E-01	1.592337E-03
5.570397E+03	1.281905E-01	1.603640E-03
5.580291E+03	1.281835E-01	1.615661E-03
5.590185E+03	1.282524E-01	1.628424E-03
5.600079E+03	1.283995E-01	1.641915E-03
5.609973E+03	1.286311E-01	1.656171E-03
5.619867E+03	1.289507E-01	1.671200E-03
5.629762E+03	1.293627E-01	1.687021E-03
5.639656E+03	1.298720E-01	1.703667E-03
5.649550E+03	1.304791E-01	1.721113E-03
5.659444E+03	1.311874E-01	1.739368E-03
5.669338E+03	1.319963E-01	1.758396E-03
5.679232E+03	1.329065E-01	1.778172E-03
5.689126E+03	1.339146E-01	1.798617E-03
5.699020E+03	1.350154E-01	1.819624E-03
5.708915E+03	1.362059E-01	1.841114E-03
5.718809E+03	1.374761E-01	1.862911E-03
5.728703E+03	1.388179E-01	1.884862E-03
5.738597E+03	1.402190E-01	1.906755E-03
5.748491E+03	1.416668E-01	1.928371E-03
5.758385E+03	1.431474E-01	1.949472E-03
5.768279E+03	1.446458E-01	1.969802E-03
5.778174E+03	1.461459E-01	1.989097E-03
5.788068E+03	1.476300E-01	2.007066E-03
5.797962E+03	1.490827E-01	2.023458E-03
5.807856E+03	1.504862E-01	2.037990E-03
5.817750E+03	1.518261E-01	2.050433E-03
5.827644E+03	1.530847E-01	2.060517E-03
5.837538E+03	1.542520E-01	2.068088E-03
5.847432E+03	1.553140E-01	2.072944E-03
5.857327E+03	1.562641E-01	2.074994E-03
5.867221E+03	1.570978E-01	2.074180E-03
5.877115E+03	1.578123E-01	2.070479E-03
5.887009E+03	1.584125E-01	2.063975E-03
5.896903E+03	1.589045E-01	2.054774E-03
5.906797E+03	1.593004E-01	2.043065E-03
5.916691E+03	1.596180E-01	2.029111E-03
5.926586E+03	1.598745E-01	2.013167E-03
5.936480E+03	1.600984E-01	1.995626E-03
5.946374E+03	1.603118E-01	1.976791E-03
5.956268E+03	1.605469E-01	1.957085E-03
5.966162E+03	1.608333E-01	1.936881E-03
5.976056E+03	1.612031E-01	1.916571E-03
5.985950E+03	1.616908E-01	1.896552E-03
5.995844E+03	1.623291E-01	1.877186E-03
6.005739E+03	1.631486E-01	1.858785E-03
6.015633E+03	1.641834E-01	1.841685E-03
6.025527E+03	1.654625E-01	1.826141E-03
6.035421E+03	1.670124E-01	1.812362E-03
6.045315E+03	1.688559E-01	1.800507E-03
6.055209E+03	1.710133E-01	1.790692E-03
6.065103E+03	1.735013E-01	1.782991E-03
6.074998E+03	1.763256E-01	1.777367E-03
6.084892E+03	1.794853E-01	1.773728E-03
6.094786E+03	1.829702E-01	1.771916E-03
6.104680E+03	1.867605E-01	1.771713E-03
6.114574E+03	1.908129E-01	1.772734E-03
6.124468E+03	1.950605E-01	1.774450E-03
6.134362E+03	1.994096E-01	1.776187E-03
6.144256E+03	2.037453E-01	1.777207E-03
6.154151E+03	2.079153E-01	1.776583E-03
6.164045E+03	2.117398E-01	1.773313E-03
6.173939E+03	2.150088E-01	1.766303E-03
6.183833E+03	2.175022E-01	1.754531E-03
6.193727E+03	2.190017E-01	1.737109E-03
6.203621E+03	2.193339E-01	1.713574E-03
6.213515E+03	2.184383E-01	1.684325E-03
6.223410E+03	2.164469E-01	1.651123E-03
6.233304E+03	2.136106E-01	1.616432E-03
6.243198E+03	2.102204E-01	1.582791E-03
6.253092E+03	2.065564E-01	1.552466E-03
6.262986E+03	2.028770E-01	1.527421E-03
6.272880E+03	1.993983E-01	1.509153E-03
6.282774E+03	1.962829E-01	1.498501E-03
6.292668E+03	1.936510E-01	1.495978E-03
6.302563E+03	1.915860E-01	1.501887E-03
6.312457E+03	1.901442E-01	1.516409E-03
6.322351E+03	1.893494E-01	1.539566E-03
6.332245E+03	1.892159E-01	1.571387E-03
6.342139E+03	1.897398E-01	1.611831E-03
6.352033E+03	1.909063E-01	1.660830E-03
6.361927E+03	1.926934E-01	1.718301E-03
6.371822E+03	1.950669E-01	1.784088E-03
6.381716E+03	1.979912E-01	1.858032E-03
6.391610E+03	2.014208E-01	1.939886E-03
6.401504E+03	2.052963E-01	2.029248E-03
6.411398E+03	2.095614E-01	2.125708E-03
6.421292E+03	2.141447E-01	2.228659E-03
6.431186E+03	2.189737E-01	2.337415E-03
6.441080E+03	2.239713E-01	2.451170E-03
6.450975E+03	2.290502E-01	2.568922E-03
6.460869E+03	2.341291E-01	2.689646E-03
6.470763E+03	2.391212E-01	2.812165E-03
6.480657E+03	2.439451E-01	2.935273E-03
6.490551E+03	2.485159E-01	3.057633E-03
6.500445E+03	2.527512E-01	3.177850E-03
6.510339E+03	2.565807E-01	3.294602E-03
6.520234E+03	2.599289E-01	3.406431E-03
6.530128E+03	2.627336E-01	3.511988E-03
6.540022E+03	2.649458E-01	3.610049E-03
6.549916E+03	2.665265E-01	3.699497E-03
6.559810E+03	2.674437E-01	3.779289E-03
6.569704E+03	2.676947E-01	3.848796E-03
6.579598E+03	2.672724E-01	3.907343E-03
6.589492E+03	2.661979E-01	3.954689E-03
6.599387E+03	2.644980E-01	3.990728E-03
6.609281E+03	2.622095E-01	4.015553E-03
6.619175E+03	2.593740E-01	4.029394E-03
6.629069E+03	2.560454E-01	4.032735E-03
6.638963E+03	2.522819E-01	4.026196E-03
6.648857E+03	2.481386E-01	4.010419E-03
6.658751E+03	2.436741E-01	3.986171E-03
6.668645E+03	2.389501E-01	3.954328E-03
6.678540E+03	2.340237E-01	3.915757E-03
6.688434E+03	2.289476E-01	3.871304E-03
6.698328E+03	2.237795E-01	3.821950E-03
6.708222E+03	2.185656E-01	3.768527E-03
6.718116E+03	2.133513E-01	3.711883E-03
6.728010E+03	2.081795E-01	3.652866E-03
6.737904E+03	2.030867E-01	3.592226E-03
6.747799E+03	1.981019E-01	3.530612E-03
6.757693E+03	1.932571E-01	3.468732E-03
6.767587E+03	1.885726E-01	3.407100E-03
6.777481E+03	1.840667E-01	3.346200E-03
6.787375E+03	1.797538E-01	3.286442E-03
6.797269E+03	1.756463E-01	3.228206E-03
6.807163E+03	1.717490E-01	3.171725E-03
6.817057E+03	1.680679E-01	3.117244E-03
6.826952E+03	1.646035E-01	3.064908E-03
6.836846E+03	1.613545E-01	3.014809E-03
6.846740E+03	1.583167E-01	2.966986E-03
6.856634E+03	1.554826E-01	2.921399E-03
6.866528E+03	1.528484E-01	2.878070E-03
6.876422E+03	1.504034E-01	2.836881E-03
6.886316E+03	1.481376E-01	2.797716E-03
6.896211E+03	1.460400E-01	2.760435E-03
6.906105E+03	1.441008E-01	2.724907E-03
6.915999E+03	1.423059E-01	2.690919E-03
6.925893E+03	1.406428E-01	2.658274E-03
6.935787E+03	1.390987E-01	2.626770E-03
6.945681E+03	1.376624E-01	2.596226E-03
6.955575E+03	1.363194E-01	2.566401E-03
6.965469E+03	1.350588E-01	2.537114E-03
6.975364E+03	1.338667E-01	2.508128E-03
6.985258E+03	1.327314E-01	2.479247E-03
6.995152E+03	1.316433E-01	2.450315E-03
7.005046E+03	1.305904E-01	2.421130E-03
7.014940E+03	1.295629E-01	2.391537E-03
7.024834E+03	1.285537E-01	2.361429E-03
7.034728E+03	1.275550E-01	2.330693E-03
7.044623E+03	1.265571E-01	2.299178E-03
7.054517E+03	1.255576E-01	2.266876E-03
7.064411E+03	1.245506E-01	2.233714E-03
7.074305E+03	1.235342E-01	2.199700E-03
7.084199E+03	1.225049E-01	2.164806E-03
7.094093E+03	1.214614E-01	2.129056E-03
7.103987E+03	1.204047E-01	2.092512E-03
7.113881E+03	1.193323E-01	2.055174E-03
7.123776E+03	1.182494E-01	2.017184E-03
7.133670E+03	1.171529E-01	1.978534E-03
7.143564E+03	1.160474E-01	1.939354E-03
7.153458E+03	1.149333E-01	1.899700E-03
7.163352E+03	1.138140E-01	1.859682E-03
7.173246E+03	1.126900E-01	1.819361E-03
7.183140E+03	1.115635E-01	1.778823E-03
7.193035E+03	1.104394E-01	1.738201E-03
7.202929E+03	1.093153E-01	1.697511E-03
7.212823E+03	1.081975E-01	1.656906E-03
7.222717E+03	1.070849E-01	1.616426E-03
7.232611E+03	1.059821E-01	1.576195E-03
7.242505E+03	1.048878E-01	1.536255E-03
7.252399E+03	1.038064E-01	1.496726E-03
7.262293E+03	1.027376E-01	1.457669E-03
7.272188E+03	1.016839E-01	1.419182E-03
7.282082E+03	1.006463E-01	1.381346E-03
7.291976E+03	9.962455E-02	1.344227E-03
7.301870E+03	9.862101E-02	1.307930E-03
7.311764E+03	9.763676E-02	1.272548E-03
7.321658E+03	9.667301E-02	1.238177E-03
7.331552E+03	9.573233E-02	1.204937E-03
7.341447E+03	9.481237E-02	1.172887E-03
7.351341E+03	9.391855E-02	1.142193E-03
7.361235E+03	9.305003E-02	1.112943E-03
7.371129E+03	9.220871E-02	1.085266E-03
7.381023E+03	9.139649E-02	1.059295E-03
7.390917E+03	9.061662E-02	1.035183E-03
7.400811E+03	8.986985E-02	1.013054E-03
7.410705E+03	8.915699E-02	9.930377E-04
7.420600E+03	8.848001E-02	9.752779E-04
7.430494E+03	8.784077E-02	9.599146E-04
7.440388E+03	8.724221E-02	9.470967E-04
7.450282E+03	8.668231E-02	9.369139E-04
7.460176E+03	8.616592E-02	9.295223E-04
7.470070E+03	8.569057E-02	9.249886E-04
7.479964E+03	8.525921E-02	9.234254E-04
7.489859E+03	8.486975E-02	9.248760E-04
7.499753E+03	8.452302E-02	9.293645E-04
7.509647E+03	8.421804E-02	9.368175E-04
7.519541E+03	8.395199E-02	9.471213E-04
7.529435E+03	8.372339E-02	9.601674E-04
7.539329E+03	8.352755E-02	9.758019E-04
7.549223E+03	8.336090E-02	9.938768E-04
7.559117E+03	8.321529E-02	1.014184E-03
7.569012E+03	8.308579E-02	1.036547E-03
7.578906E+03	8.296388E-02	1.060741E-03
7.588800E+03	8.283768E-02	1.086488E-03
7.598694E+03	8.269888E-02	1.113547E-03
7.608588E+03	8.253544E-02	1.141618E-03
7.618482E+03	8.233705E-02	1.170412E-03
7.628376E+03	8.209558E-02	1.199658E-03
7.638271E+03	8.180911E-02	1.229170E-03
7.648165E+03	8.147907E-02	1.258814E-03
7.658059E+03	8.111055E-02	1.288523E-03
7.667953E+03	8.071075E-02	1.318273E-03
7.677847E+03	8.028592E-02	1.348047E-03
