#wls	flux	fluxerr
1.583061E+03	8.359038E-02	9.045268E-03
1.622638E+03	8.576321E-02	9.162414E-03
1.662214E+03	8.793000E-02	9.271308E-03
1.701791E+03	9.009578E-02	9.372398E-03
1.741367E+03	9.226604E-02	9.466156E-03
1.780944E+03	9.439506E-02	9.547851E-03
1.820520E+03	9.652383E-02	9.621667E-03
1.860097E+03	9.859123E-02	9.681530E-03
1.899673E+03	1.006468E-01	9.732441E-03
1.939250E+03	1.026759E-01	9.773005E-03
1.978827E+03	1.047097E-01	9.806213E-03
2.018403E+03	1.067342E-01	9.830723E-03
2.057980E+03	1.088415E-01	9.854894E-03
2.097556E+03	1.110554E-01	9.880443E-03
2.137133E+03	1.134187E-01	9.910582E-03
2.176709E+03	1.160183E-01	9.952053E-03
2.216286E+03	1.188669E-01	1.000477E-02
2.255862E+03	1.220339E-01	1.007319E-02
2.295439E+03	1.255870E-01	1.016119E-02
2.335015E+03	1.295097E-01	1.026548E-02
2.374592E+03	1.338202E-01	1.038556E-02
2.414168E+03	1.385171E-01	1.051933E-02
2.453745E+03	1.436299E-01	1.066697E-02
2.493321E+03	1.492046E-01	1.082965E-02
2.532898E+03	1.552852E-01	1.100812E-02
2.572475E+03	1.619594E-01	1.120587E-02
2.612051E+03	1.693420E-01	1.142759E-02
2.651628E+03	1.774120E-01	1.166835E-02
2.691204E+03	1.861609E-01	1.192414E-02
2.730781E+03	1.955652E-01	1.219013E-02
2.770357E+03	2.055454E-01	1.245824E-02
2.809934E+03	2.160740E-01	1.272404E-02
2.849510E+03	2.271189E-01	1.298312E-02
2.889087E+03	2.386045E-01	1.322897E-02
2.928663E+03	2.504558E-01	1.345579E-02
2.968240E+03	2.625875E-01	1.365789E-02
2.978134E+03	2.656713E-01	1.370484E-02
2.988028E+03	2.687076E-01	1.374686E-02
2.997922E+03	2.717818E-01	1.378837E-02
3.007816E+03	2.748591E-01	1.382757E-02
3.017710E+03	2.779040E-01	1.386273E-02
3.027605E+03	2.809415E-01	1.389512E-02
3.037499E+03	2.839654E-01	1.392447E-02
3.047393E+03	2.869699E-01	1.395055E-02
3.057287E+03	2.899789E-01	1.397454E-02
3.067181E+03	2.929248E-01	1.399323E-02
3.077075E+03	2.958307E-01	1.400782E-02
3.086969E+03	2.987196E-01	1.401945E-02
3.096864E+03	3.015531E-01	1.402641E-02
3.106758E+03	3.043232E-01	1.402839E-02
3.116652E+03	3.070518E-01	1.402653E-02
3.126546E+03	3.096996E-01	1.401910E-02
3.136440E+03	3.122578E-01	1.400585E-02
3.146334E+03	3.147469E-01	1.398783E-02
3.156228E+03	3.171580E-01	1.396476E-02
3.166122E+03	3.194509E-01	1.393501E-02
3.176017E+03	3.216459E-01	1.389964E-02
3.185911E+03	3.237331E-01	1.385837E-02
3.195805E+03	3.256730E-01	1.380970E-02
3.205699E+03	3.275151E-01	1.375591E-02
3.215593E+03	3.291906E-01	1.369429E-02
3.225487E+03	3.307489E-01	1.362711E-02
3.235381E+03	3.321512E-01	1.355296E-02
3.245276E+03	3.333888E-01	1.347171E-02
3.255170E+03	3.344540E-01	1.338328E-02
3.265064E+03	3.353667E-01	1.328870E-02
3.274958E+03	3.360922E-01	1.318680E-02
3.284852E+03	3.366517E-01	1.307868E-02
3.294746E+03	3.370125E-01	1.296329E-02
3.304640E+03	3.371970E-01	1.284176E-02
3.314534E+03	3.372018E-01	1.271417E-02
3.324429E+03	3.369985E-01	1.257971E-02
3.334323E+03	3.366375E-01	1.244050E-02
3.344217E+03	3.360932E-01	1.229580E-02
3.354111E+03	3.353665E-01	1.214589E-02
3.364005E+03	3.344600E-01	1.199107E-02
3.373899E+03	3.334022E-01	1.183258E-02
3.383793E+03	3.321732E-01	1.166991E-02
3.393688E+03	3.308031E-01	1.150429E-02
3.403582E+03	3.292751E-01	1.133533E-02
3.413476E+03	3.276203E-01	1.116426E-02
3.423370E+03	3.258463E-01	1.099148E-02
3.433264E+03	3.239605E-01	1.081737E-02
3.443158E+03	3.219897E-01	1.064293E-02
3.453052E+03	3.198959E-01	1.046697E-02
3.462946E+03	3.177235E-01	1.029097E-02
3.472841E+03	3.154540E-01	1.011434E-02
3.482735E+03	3.131095E-01	9.937832E-03
3.492629E+03	3.106926E-01	9.761521E-03
3.502523E+03	3.081890E-01	9.584967E-03
3.512417E+03	3.056404E-01	9.409472E-03
3.522311E+03	3.030168E-01	9.234105E-03
3.532205E+03	3.003607E-01	9.060151E-03
3.542100E+03	2.976618E-01	8.887274E-03
3.551994E+03	2.949443E-01	8.716172E-03
3.561888E+03	2.922003E-01	8.546574E-03
3.571782E+03	2.894535E-01	8.379136E-03
3.581676E+03	2.867117E-01	8.214029E-03
3.591570E+03	2.839820E-01	8.051401E-03
3.601464E+03	2.812716E-01	7.891397E-03
3.611358E+03	2.785869E-01	7.734134E-03
3.621253E+03	2.759472E-01	7.580077E-03
3.631147E+03	2.733435E-01	7.428898E-03
3.641041E+03	2.707927E-01	7.280988E-03
3.650935E+03	2.682976E-01	7.136341E-03
3.660829E+03	2.658594E-01	6.994905E-03
3.670723E+03	2.634789E-01	6.856624E-03
3.680617E+03	2.611551E-01	6.721399E-03
3.690512E+03	2.588981E-01	6.589413E-03
3.700406E+03	2.566936E-01	6.460228E-03
3.710300E+03	2.545491E-01	6.333969E-03
3.720194E+03	2.524496E-01	6.210197E-03
3.730088E+03	2.504105E-01	6.089240E-03
3.739982E+03	2.484060E-01	5.970414E-03
3.749876E+03	2.464500E-01	5.854014E-03
3.759770E+03	2.445259E-01	5.739601E-03
3.769665E+03	2.426274E-01	5.627003E-03
3.779559E+03	2.407570E-01	5.516255E-03
3.789453E+03	2.388985E-01	5.406972E-03
3.799347E+03	2.370624E-01	5.299386E-03
3.809241E+03	2.352243E-01	5.192945E-03
3.819135E+03	2.333779E-01	5.087525E-03
3.829029E+03	2.315324E-01	4.983349E-03
3.838924E+03	2.296729E-01	4.880116E-03
3.848818E+03	2.277936E-01	4.777735E-03
3.858712E+03	2.258965E-01	4.676287E-03
3.868606E+03	2.239624E-01	4.575422E-03
3.878500E+03	2.220027E-01	4.475427E-03
3.888394E+03	2.200084E-01	4.376177E-03
3.898288E+03	2.179855E-01	4.277851E-03
3.908182E+03	2.159285E-01	4.180402E-03
3.918077E+03	2.138391E-01	4.083929E-03
3.927971E+03	2.117266E-01	3.988675E-03
3.937865E+03	2.095884E-01	3.894655E-03
3.947759E+03	2.074344E-01	3.802117E-03
3.957653E+03	2.052633E-01	3.711095E-03
3.967547E+03	2.030803E-01	3.621751E-03
3.977441E+03	2.008907E-01	3.534236E-03
3.987336E+03	1.986999E-01	3.448704E-03
3.997230E+03	1.965184E-01	3.365391E-03
4.007124E+03	1.943417E-01	3.284274E-03
4.017018E+03	1.921806E-01	3.205586E-03
4.026912E+03	1.900358E-01	3.129390E-03
4.036806E+03	1.879171E-01	3.055894E-03
4.046700E+03	1.858252E-01	2.985152E-03
4.056594E+03	1.837650E-01	2.917286E-03
4.066489E+03	1.817413E-01	2.852411E-03
4.076383E+03	1.797592E-01	2.790646E-03
4.086277E+03	1.778166E-01	2.731993E-03
4.096171E+03	1.759280E-01	2.676707E-03
4.106065E+03	1.740934E-01	2.624814E-03
4.115959E+03	1.723217E-01	2.576471E-03
4.125853E+03	1.706223E-01	2.531837E-03
4.135748E+03	1.690050E-01	2.491074E-03
4.145642E+03	1.674764E-01	2.454285E-03
4.155536E+03	1.660461E-01	2.421616E-03
4.165430E+03	1.647192E-01	2.393147E-03
4.175324E+03	1.635028E-01	2.368978E-03
4.185218E+03	1.623988E-01	2.349136E-03
4.195112E+03	1.614066E-01	2.333596E-03
4.205006E+03	1.605285E-01	2.322279E-03
4.214901E+03	1.597553E-01	2.314907E-03
4.224795E+03	1.590806E-01	2.311248E-03
4.234689E+03	1.584953E-01	2.311030E-03
4.244583E+03	1.579831E-01	2.313884E-03
4.254477E+03	1.575323E-01	2.319502E-03
4.264371E+03	1.571283E-01	2.327534E-03
4.274265E+03	1.567549E-01	2.337608E-03
4.284159E+03	1.563976E-01	2.349372E-03
4.294054E+03	1.560380E-01	2.362411E-03
4.303948E+03	1.556651E-01	2.376418E-03
4.313842E+03	1.552676E-01	2.391081E-03
4.323736E+03	1.548374E-01	2.406132E-03
4.333630E+03	1.543690E-01	2.421344E-03
4.343524E+03	1.538592E-01	2.436527E-03
4.353418E+03	1.533090E-01	2.451564E-03
4.363313E+03	1.527150E-01	2.466264E-03
4.373207E+03	1.520840E-01	2.480615E-03
4.383101E+03	1.514199E-01	2.494562E-03
4.392995E+03	1.507278E-01	2.508078E-03
4.402889E+03	1.500135E-01	2.521158E-03
4.412783E+03	1.492852E-01	2.533850E-03
4.422677E+03	1.485511E-01	2.546209E-03
4.432571E+03	1.478168E-01	2.558256E-03
4.442466E+03	1.470869E-01	2.570009E-03
4.452360E+03	1.463672E-01	2.581509E-03
4.462254E+03	1.456646E-01	2.592829E-03
4.472148E+03	1.449812E-01	2.603965E-03
4.482042E+03	1.443209E-01	2.614946E-03
4.491936E+03	1.436847E-01	2.625762E-03
4.501830E+03	1.430790E-01	2.636501E-03
4.511725E+03	1.425025E-01	2.647117E-03
4.521619E+03	1.419591E-01	2.657661E-03
4.531513E+03	1.414506E-01	2.668154E-03
4.541407E+03	1.409791E-01	2.678620E-03
4.551301E+03	1.405446E-01	2.689050E-03
4.561195E+03	1.401508E-01	2.699505E-03
4.571089E+03	1.397996E-01	2.710018E-03
4.580983E+03	1.394913E-01	2.720588E-03
4.590878E+03	1.392294E-01	2.731281E-03
4.600772E+03	1.390172E-01	2.742159E-03
4.610666E+03	1.388528E-01	2.753186E-03
4.620560E+03	1.387407E-01	2.764447E-03
4.630454E+03	1.386798E-01	2.775925E-03
4.640348E+03	1.386737E-01	2.787688E-03
4.650242E+03	1.387235E-01	2.799757E-03
4.660137E+03	1.388265E-01	2.812082E-03
4.670031E+03	1.389860E-01	2.824723E-03
4.679925E+03	1.392011E-01	2.837661E-03
4.689819E+03	1.394735E-01	2.850930E-03
4.699713E+03	1.398011E-01	2.864478E-03
4.709607E+03	1.401883E-01	2.878396E-03
4.719501E+03	1.406311E-01	2.892592E-03
4.729395E+03	1.411306E-01	2.907082E-03
4.739290E+03	1.416742E-01	2.921595E-03
4.749184E+03	1.422496E-01	2.935871E-03
4.759078E+03	1.428424E-01	2.949597E-03
4.768972E+03	1.434339E-01	2.962375E-03
4.778866E+03	1.440142E-01	2.973990E-03
4.788760E+03	1.445652E-01	2.984058E-03
4.798654E+03	1.450736E-01	2.992294E-03
4.808549E+03	1.455276E-01	2.998452E-03
4.818443E+03	1.459166E-01	3.002310E-03
4.828337E+03	1.462279E-01	3.003611E-03
4.838231E+03	1.464565E-01	3.002261E-03
4.848125E+03	1.465929E-01	2.998074E-03
4.858019E+03	1.466335E-01	2.991000E-03
4.867913E+03	1.465751E-01	2.980993E-03
4.877807E+03	1.464177E-01	2.968084E-03
4.887702E+03	1.461600E-01	2.952277E-03
4.897596E+03	1.458071E-01	2.933714E-03
4.907490E+03	1.453615E-01	2.912489E-03
4.917384E+03	1.448324E-01	2.888826E-03
4.927278E+03	1.442242E-01	2.862861E-03
4.937172E+03	1.435499E-01	2.834898E-03
4.947066E+03	1.428154E-01	2.805104E-03
4.956961E+03	1.420330E-01	2.773765E-03
4.966855E+03	1.412119E-01	2.741112E-03
4.976749E+03	1.403616E-01	2.707372E-03
4.986643E+03	1.394929E-01	2.672797E-03
4.996537E+03	1.386133E-01	2.637574E-03
5.006431E+03	1.377344E-01	2.601960E-03
5.016325E+03	1.368629E-01	2.566121E-03
5.026219E+03	1.360067E-01	2.530237E-03
5.036114E+03	1.351761E-01	2.494531E-03
5.046008E+03	1.343754E-01	2.459109E-03
5.055902E+03	1.336140E-01	2.424170E-03
5.065796E+03	1.328982E-01	2.389847E-03
5.075690E+03	1.322323E-01	2.356237E-03
5.085584E+03	1.316225E-01	2.323468E-03
5.095478E+03	1.310727E-01	2.291623E-03
5.105373E+03	1.305860E-01	2.260767E-03
5.115267E+03	1.301641E-01	2.230943E-03
5.125161E+03	1.298089E-01	2.202197E-03
5.135055E+03	1.295184E-01	2.174506E-03
5.144949E+03	1.292911E-01	2.147862E-03
5.154843E+03	1.291256E-01	2.122259E-03
5.164737E+03	1.290185E-01	2.097662E-03
5.174631E+03	1.289646E-01	2.074012E-03
5.184526E+03	1.289608E-01	2.051289E-03
5.194420E+03	1.290012E-01	2.029435E-03
5.204314E+03	1.290823E-01	2.008435E-03
5.214208E+03	1.291992E-01	1.988260E-03
5.224102E+03	1.293467E-01	1.968882E-03
5.233996E+03	1.295196E-01	1.950279E-03
5.243890E+03	1.297110E-01	1.932408E-03
5.253785E+03	1.299171E-01	1.915287E-03
5.263679E+03	1.301290E-01	1.898855E-03
5.273573E+03	1.303420E-01	1.883127E-03
5.283467E+03	1.305471E-01	1.868055E-03
5.293361E+03	1.307359E-01	1.853613E-03
5.303255E+03	1.309012E-01	1.839787E-03
5.313149E+03	1.310338E-01	1.826546E-03
5.323043E+03	1.311244E-01	1.813855E-03
5.332938E+03	1.311634E-01	1.801679E-03
5.342832E+03	1.311430E-01	1.790003E-03
5.352726E+03	1.310560E-01	1.778816E-03
5.362620E+03	1.308942E-01	1.768094E-03
5.372514E+03	1.306594E-01	1.757930E-03
5.382408E+03	1.303582E-01	1.748464E-03
5.392302E+03	1.300020E-01	1.739806E-03
5.402196E+03	1.296005E-01	1.732005E-03
5.412091E+03	1.291687E-01	1.725170E-03
5.421985E+03	1.287148E-01	1.719313E-03
5.431879E+03	1.282516E-01	1.714502E-03
5.441773E+03	1.277885E-01	1.710763E-03
5.451667E+03	1.273315E-01	1.708074E-03
5.461561E+03	1.268911E-01	1.706472E-03
5.471455E+03	1.264729E-01	1.705935E-03
5.481350E+03	1.260830E-01	1.706449E-03
5.491244E+03	1.257256E-01	1.707978E-03
5.501138E+03	1.254042E-01	1.710481E-03
5.511032E+03	1.251241E-01	1.713947E-03
5.520926E+03	1.248868E-01	1.718314E-03
5.530820E+03	1.246970E-01	1.723576E-03
5.540714E+03	1.245572E-01	1.729692E-03
5.550608E+03	1.244697E-01	1.736630E-03
5.560503E+03	1.244395E-01	1.744397E-03
5.570397E+03	1.244694E-01	1.752973E-03
5.580291E+03	1.245635E-01	1.762361E-03
5.590185E+03	1.247246E-01	1.772551E-03
5.600079E+03	1.249581E-01	1.783572E-03
5.609973E+03	1.252669E-01	1.795417E-03
5.619867E+03	1.256560E-01	1.808115E-03
5.629762E+03	1.261272E-01	1.821654E-03
5.639656E+03	1.266834E-01	1.836032E-03
5.649550E+03	1.273265E-01	1.851238E-03
5.659444E+03	1.280588E-01	1.867267E-03
5.669338E+03	1.288790E-01	1.884061E-03
5.679232E+03	1.297860E-01	1.901562E-03
5.689126E+03	1.307772E-01	1.919692E-03
5.699020E+03	1.318487E-01	1.938349E-03
5.708915E+03	1.329951E-01	1.957411E-03
5.718809E+03	1.342094E-01	1.976730E-03
5.728703E+03	1.354835E-01	1.996137E-03
5.738597E+03	1.368090E-01	2.015462E-03
5.748491E+03	1.381724E-01	2.034457E-03
5.758385E+03	1.395634E-01	2.052921E-03
5.768279E+03	1.409708E-01	2.070642E-03
5.778174E+03	1.423789E-01	2.087341E-03
5.788068E+03	1.437773E-01	2.102822E-03
5.797962E+03	1.451500E-01	2.116809E-03
5.807856E+03	1.464857E-01	2.129100E-03
5.817750E+03	1.477724E-01	2.139487E-03
5.827644E+03	1.489990E-01	2.147787E-03
5.837538E+03	1.501564E-01	2.153845E-03
5.847432E+03	1.512370E-01	2.157539E-03
5.857327E+03	1.522345E-01	2.158772E-03
5.867221E+03	1.531480E-01	2.157533E-03
5.877115E+03	1.539769E-01	2.153820E-03
5.887009E+03	1.547271E-01	2.147727E-03
5.896903E+03	1.554050E-01	2.139359E-03
5.906797E+03	1.560235E-01	2.128915E-03
5.916691E+03	1.565959E-01	2.116596E-03
5.926586E+03	1.571402E-01	2.102664E-03
5.936480E+03	1.576769E-01	2.087414E-03
5.946374E+03	1.582290E-01	2.071159E-03
5.956268E+03	1.588212E-01	2.054231E-03
5.966162E+03	1.594781E-01	2.036941E-03
5.976056E+03	1.602278E-01	2.019639E-03
5.985950E+03	1.610956E-01	2.002616E-03
5.995844E+03	1.621095E-01	1.986186E-03
6.005739E+03	1.632916E-01	1.970570E-03
6.015633E+03	1.646652E-01	1.955992E-03
6.025527E+03	1.662529E-01	1.942652E-03
6.035421E+03	1.680710E-01	1.930664E-03
6.045315E+03	1.701329E-01	1.920104E-03
6.055209E+03	1.724473E-01	1.910990E-03
6.065103E+03	1.750144E-01	1.903254E-03
6.074998E+03	1.778306E-01	1.896800E-03
6.084892E+03	1.808813E-01	1.891437E-03
6.094786E+03	1.841395E-01	1.886881E-03
6.104680E+03	1.875676E-01	1.882791E-03
6.114574E+03	1.911102E-01	1.878713E-03
6.124468E+03	1.947018E-01	1.874173E-03
6.134362E+03	1.982592E-01	1.868628E-03
6.144256E+03	2.016819E-01	1.861476E-03
6.154151E+03	2.048466E-01	1.852029E-03
6.164045E+03	2.076169E-01	1.839611E-03
6.173939E+03	2.098457E-01	1.823574E-03
6.183833E+03	2.113896E-01	1.803414E-03
6.193727E+03	2.121154E-01	1.778789E-03
6.203621E+03	2.119361E-01	1.749779E-03
6.213515E+03	2.108416E-01	1.717060E-03
6.223410E+03	2.089258E-01	1.682054E-03
6.233304E+03	2.063649E-01	1.646681E-03
6.243198E+03	2.033612E-01	1.612890E-03
6.253092E+03	2.001308E-01	1.582578E-03
6.262986E+03	1.968772E-01	1.557414E-03
6.272880E+03	1.937796E-01	1.538768E-03
6.282774E+03	1.909848E-01	1.527512E-03
6.292668E+03	1.886092E-01	1.524187E-03
6.302563E+03	1.867345E-01	1.529111E-03
6.312457E+03	1.854238E-01	1.542531E-03
6.322351E+03	1.847132E-01	1.564558E-03
6.332245E+03	1.846252E-01	1.595278E-03
6.342139E+03	1.851627E-01	1.634687E-03
6.352033E+03	1.863226E-01	1.682797E-03
6.361927E+03	1.880918E-01	1.739588E-03
6.371822E+03	1.904407E-01	1.804924E-03
6.381716E+03	1.933430E-01	1.878723E-03
6.391610E+03	1.967541E-01	1.960734E-03
6.401504E+03	2.006253E-01	2.050650E-03
6.411398E+03	2.048999E-01	2.148051E-03
6.421292E+03	2.095135E-01	2.252396E-03
6.431186E+03	2.143958E-01	2.363015E-03
6.441080E+03	2.194702E-01	2.479103E-03
6.450975E+03	2.246537E-01	2.599696E-03
6.460869E+03	2.298675E-01	2.723793E-03
6.470763E+03	2.350263E-01	2.850224E-03
6.480657E+03	2.400415E-01	2.977685E-03
6.490551E+03	2.448350E-01	3.104908E-03
6.500445E+03	2.493180E-01	3.230399E-03
6.510339E+03	2.534153E-01	3.352752E-03
6.520234E+03	2.570518E-01	3.470489E-03
6.530128E+03	2.601594E-01	3.582154E-03
6.540022E+03	2.626837E-01	3.686420E-03
6.549916E+03	2.645752E-01	3.781996E-03
6.559810E+03	2.658108E-01	3.867930E-03
6.569704E+03	2.663628E-01	3.943209E-03
6.579598E+03	2.662358E-01	4.007297E-03
6.589492E+03	2.654368E-01	4.059722E-03
6.599387E+03	2.639903E-01	4.100322E-03
6.609281E+03	2.619262E-01	4.129064E-03
6.619175E+03	2.592925E-01	4.146260E-03
6.629069E+03	2.561324E-01	4.152218E-03
6.638963E+03	2.525093E-01	4.147636E-03
6.648857E+03	2.484724E-01	4.133057E-03
6.658751E+03	2.440899E-01	4.109402E-03
6.668645E+03	2.394189E-01	4.077483E-03
6.678540E+03	2.345158E-01	4.038160E-03
6.688434E+03	2.294459E-01	3.992505E-03
6.698328E+03	2.242558E-01	3.941322E-03
6.708222E+03	2.190044E-01	3.885676E-03
6.718116E+03	2.137339E-01	3.826376E-03
6.728010E+03	2.084893E-01	3.764322E-03
6.737904E+03	2.033088E-01	3.700316E-03
6.747799E+03	1.982282E-01	3.635137E-03
6.757693E+03	1.932715E-01	3.569370E-03
6.767587E+03	1.884674E-01	3.503696E-03
6.777481E+03	1.838355E-01	3.438633E-03
6.787375E+03	1.793890E-01	3.374586E-03
6.797269E+03	1.751394E-01	3.311924E-03
6.807163E+03	1.710987E-01	3.251027E-03
6.817057E+03	1.672675E-01	3.192047E-03
6.826952E+03	1.636475E-01	3.135156E-03
6.836846E+03	1.602418E-01	3.080541E-03
6.846740E+03	1.570453E-01	3.028224E-03
6.856634E+03	1.540513E-01	2.978183E-03
6.866528E+03	1.512568E-01	2.930461E-03
6.876422E+03	1.486503E-01	2.884925E-03
6.886316E+03	1.462244E-01	2.841513E-03
6.896211E+03	1.439712E-01	2.800140E-03
6.906105E+03	1.418763E-01	2.760593E-03
6.915999E+03	1.399323E-01	2.722779E-03
6.925893E+03	1.381241E-01	2.686459E-03
6.935787E+03	1.364419E-01	2.651480E-03
6.945681E+03	1.348757E-01	2.617685E-03
6.955575E+03	1.334103E-01	2.584815E-03
6.965469E+03	1.320360E-01	2.552711E-03
6.975364E+03	1.307416E-01	2.521181E-03
6.985258E+03	1.295146E-01	2.490011E-03
6.995152E+03	1.283461E-01	2.459056E-03
7.005046E+03	1.272263E-01	2.428149E-03
7.014940E+03	1.261459E-01	2.397139E-03
7.024834E+03	1.250948E-01	2.365859E-03
7.034728E+03	1.240668E-01	2.334217E-03
7.044623E+03	1.230519E-01	2.302055E-03
7.054517E+03	1.220488E-01	2.269378E-03
7.064411E+03	1.210476E-01	2.236037E-03
7.074305E+03	1.200459E-01	2.202021E-03
7.084199E+03	1.190417E-01	2.167333E-03
7.094093E+03	1.180297E-01	2.131915E-03
7.103987E+03	1.170094E-01	2.095804E-03
7.113881E+03	1.159800E-01	2.059027E-03
7.123776E+03	1.149393E-01	2.021595E-03
7.133670E+03	1.138874E-01	1.983557E-03
7.143564E+03	1.128260E-01	1.944996E-03
7.153458E+03	1.117545E-01	1.905950E-03
7.163352E+03	1.106737E-01	1.866491E-03
7.173246E+03	1.095849E-01	1.826695E-03
7.183140E+03	1.084896E-01	1.786641E-03
7.193035E+03	1.073892E-01	1.746413E-03
7.202929E+03	1.062840E-01	1.706076E-03
7.212823E+03	1.051773E-01	1.665742E-03
7.222717E+03	1.040708E-01	1.625500E-03
7.232611E+03	1.029639E-01	1.585403E-03
7.242505E+03	1.018623E-01	1.545606E-03
7.252399E+03	1.007640E-01	1.506143E-03
7.262293E+03	9.967473E-02	1.467166E-03
7.272188E+03	9.859348E-02	1.428733E-03
7.282082E+03	9.752189E-02	1.390938E-03
7.291976E+03	9.646417E-02	1.353915E-03
7.301870E+03	9.541931E-02	1.317727E-03
7.311764E+03	9.439023E-02	1.282495E-03
7.321658E+03	9.338098E-02	1.248356E-03
7.331552E+03	9.238958E-02	1.215368E-03
7.341447E+03	9.142138E-02	1.183693E-03
7.351341E+03	9.047690E-02	1.153429E-03
7.361235E+03	8.955679E-02	1.124680E-03
7.371129E+03	8.866408E-02	1.097583E-03
7.381023E+03	8.779832E-02	1.072235E-03
7.390917E+03	8.696139E-02	1.048765E-03
7.400811E+03	8.615521E-02	1.027300E-03
7.410705E+03	8.538043E-02	1.007955E-03
7.420600E+03	8.463881E-02	9.908548E-04
7.430494E+03	8.393193E-02	9.761203E-04
7.440388E+03	8.326124E-02	9.638644E-04
7.450282E+03	8.262689E-02	9.541783E-04
7.460176E+03	8.203100E-02	9.471672E-04
7.470070E+03	8.147422E-02	9.429081E-04
7.479964E+03	8.095589E-02	9.414508E-04
7.489859E+03	8.047707E-02	9.428446E-04
7.499753E+03	8.003623E-02	9.470356E-04
7.509647E+03	7.963357E-02	9.539464E-04
7.519541E+03	7.926760E-02	9.634703E-04
7.529435E+03	7.893632E-02	9.754879E-04
7.539329E+03	7.863605E-02	9.898533E-04
7.549223E+03	7.836564E-02	1.006449E-03
7.559117E+03	7.811920E-02	1.025094E-03
7.569012E+03	7.789433E-02	1.045653E-03
7.578906E+03	7.768517E-02	1.067939E-03
7.588800E+03	7.748659E-02	1.091778E-03
7.598694E+03	7.729443E-02	1.117004E-03
7.608588E+03	7.710280E-02	1.143427E-03
7.618482E+03	7.690838E-02	1.170892E-03
7.628376E+03	7.670655E-02	1.199225E-03
7.638271E+03	7.649528E-02	1.228291E-03
7.648165E+03	7.627202E-02	1.257948E-03
7.658059E+03	7.603417E-02	1.288055E-03
7.667953E+03	7.578214E-02	1.318523E-03
7.677847E+03	7.551606E-02	1.349263E-03
