#wls	flux	fluxerr
1.583061E+03	8.480474E-02	8.987834E-03
1.622638E+03	8.702782E-02	9.104181E-03
1.662214E+03	8.925181E-02	9.212882E-03
1.701791E+03	9.148188E-02	9.314361E-03
1.741367E+03	9.372334E-02	9.409027E-03
1.780944E+03	9.594627E-02	9.493784E-03
1.820520E+03	9.813759E-02	9.567355E-03
1.860097E+03	1.003044E-01	9.630488E-03
1.899673E+03	1.024401E-01	9.682605E-03
1.939250E+03	1.045256E-01	9.722007E-03
1.978827E+03	1.066273E-01	9.754969E-03
2.018403E+03	1.087091E-01	9.778122E-03
2.057980E+03	1.108633E-01	9.799708E-03
2.097556E+03	1.130931E-01	9.819654E-03
2.137133E+03	1.154822E-01	9.844731E-03
2.176709E+03	1.180806E-01	9.878366E-03
2.216286E+03	1.209234E-01	9.922428E-03
2.255862E+03	1.241054E-01	9.983297E-03
2.295439E+03	1.276540E-01	1.006145E-02
2.335015E+03	1.315705E-01	1.015513E-02
2.374592E+03	1.358692E-01	1.026353E-02
2.414168E+03	1.405425E-01	1.038411E-02
2.453745E+03	1.456121E-01	1.051653E-02
2.493321E+03	1.510914E-01	1.065969E-02
2.532898E+03	1.570379E-01	1.081546E-02
2.572475E+03	1.635320E-01	1.098689E-02
2.612051E+03	1.706596E-01	1.117685E-02
2.651628E+03	1.784461E-01	1.138379E-02
2.691204E+03	1.868587E-01	1.160245E-02
2.730781E+03	1.958281E-01	1.182557E-02
2.770357E+03	2.053687E-01	1.205129E-02
2.809934E+03	2.154198E-01	1.227342E-02
2.849510E+03	2.260042E-01	1.249087E-02
2.889087E+03	2.370785E-01	1.269897E-02
2.928663E+03	2.486045E-01	1.289374E-02
2.968240E+03	2.605079E-01	1.306982E-02
2.978134E+03	2.635524E-01	1.311127E-02
2.988028E+03	2.665901E-01	1.314996E-02
2.997922E+03	2.696480E-01	1.318724E-02
3.007816E+03	2.727217E-01	1.322289E-02
3.017710E+03	2.757761E-01	1.325521E-02
3.027605E+03	2.788677E-01	1.328694E-02
3.037499E+03	2.819301E-01	1.331492E-02
3.047393E+03	2.849882E-01	1.334037E-02
3.057287E+03	2.880672E-01	1.336449E-02
3.067181E+03	2.910992E-01	1.338415E-02
3.077075E+03	2.941391E-01	1.340193E-02
3.086969E+03	2.971490E-01	1.341615E-02
3.096864E+03	3.001214E-01	1.342652E-02
3.106758E+03	3.030484E-01	1.343277E-02
3.116652E+03	3.059529E-01	1.343599E-02
3.126546E+03	3.087950E-01	1.343450E-02
3.136440E+03	3.115968E-01	1.342935E-02
3.146334E+03	3.143180E-01	1.341892E-02
3.156228E+03	3.169491E-01	1.340292E-02
3.166122E+03	3.195411E-01	1.338364E-02
3.176017E+03	3.220228E-01	1.335819E-02
3.185911E+03	3.244141E-01	1.332758E-02
3.195805E+03	3.267043E-01	1.329149E-02
3.205699E+03	3.288823E-01	1.324966E-02
3.215593E+03	3.309080E-01	1.320063E-02
3.225487E+03	3.328301E-01	1.314656E-02
3.235381E+03	3.346080E-01	1.308601E-02
3.245276E+03	3.362313E-01	1.301879E-02
3.255170E+03	3.377190E-01	1.294584E-02
3.265064E+03	3.390323E-01	1.286590E-02
3.274958E+03	3.401620E-01	1.277884E-02
3.284852E+03	3.411563E-01	1.268671E-02
3.294746E+03	3.419224E-01	1.258629E-02
3.304640E+03	3.425373E-01	1.248066E-02
3.314534E+03	3.429396E-01	1.236783E-02
3.324429E+03	3.431513E-01	1.224885E-02
3.334323E+03	3.431685E-01	1.212383E-02
3.344217E+03	3.430148E-01	1.199383E-02
3.354111E+03	3.426359E-01	1.185719E-02
3.364005E+03	3.420838E-01	1.171596E-02
3.373899E+03	3.413338E-01	1.156953E-02
3.383793E+03	3.404132E-01	1.141904E-02
3.393688E+03	3.393252E-01	1.126479E-02
3.403582E+03	3.380501E-01	1.110634E-02
3.413476E+03	3.366181E-01	1.094487E-02
3.423370E+03	3.350350E-01	1.078076E-02
3.433264E+03	3.333072E-01	1.061436E-02
3.443158E+03	3.314610E-01	1.044665E-02
3.453052E+03	3.294557E-01	1.027644E-02
3.462946E+03	3.273352E-01	1.010517E-02
3.472841E+03	3.251005E-01	9.932899E-03
3.482735E+03	3.227322E-01	9.759082E-03
3.492629E+03	3.202547E-01	9.584494E-03
3.502523E+03	3.176725E-01	9.409305E-03
3.512417E+03	3.149921E-01	9.233728E-03
3.522311E+03	3.122394E-01	9.058531E-03
3.532205E+03	3.093869E-01	8.882920E-03
3.542100E+03	3.064802E-01	8.708217E-03
3.551994E+03	3.035295E-01	8.534687E-03
3.561888E+03	3.005284E-01	8.362131E-03
3.571782E+03	2.975044E-01	8.191285E-03
3.581676E+03	2.944838E-01	8.022824E-03
3.591570E+03	2.914451E-01	7.856114E-03
3.601464E+03	2.884147E-01	7.691820E-03
3.611358E+03	2.854160E-01	7.530499E-03
3.621253E+03	2.824569E-01	7.372282E-03
3.631147E+03	2.795306E-01	7.216915E-03
3.641041E+03	2.766571E-01	7.064840E-03
3.650935E+03	2.738421E-01	6.916115E-03
3.660829E+03	2.710893E-01	6.770750E-03
3.670723E+03	2.684133E-01	6.629017E-03
3.680617E+03	2.657911E-01	6.490262E-03
3.690512E+03	2.632471E-01	6.355002E-03
3.700406E+03	2.607795E-01	6.223104E-03
3.710300E+03	2.583852E-01	6.094412E-03
3.720194E+03	2.560509E-01	5.968534E-03
3.730088E+03	2.537930E-01	5.845783E-03
3.739982E+03	2.515857E-01	5.725500E-03
3.749876E+03	2.494440E-01	5.607966E-03
3.759770E+03	2.473515E-01	5.492760E-03
3.769665E+03	2.453112E-01	5.379899E-03
3.779559E+03	2.433070E-01	5.268997E-03
3.789453E+03	2.413410E-01	5.160064E-03
3.799347E+03	2.394056E-01	5.052918E-03
3.809241E+03	2.374853E-01	4.947219E-03
3.819135E+03	2.355805E-01	4.842974E-03
3.829029E+03	2.336919E-01	4.740197E-03
3.838924E+03	2.317962E-01	4.638429E-03
3.848818E+03	2.299021E-01	4.537867E-03
3.858712E+03	2.279876E-01	4.438105E-03
3.868606E+03	2.260628E-01	4.339383E-03
3.878500E+03	2.241160E-01	4.241516E-03
3.888394E+03	2.221445E-01	4.144509E-03
3.898288E+03	2.201545E-01	4.048529E-03
3.908182E+03	2.181322E-01	3.953385E-03
3.918077E+03	2.160929E-01	3.859418E-03
3.927971E+03	2.140330E-01	3.766624E-03
3.937865E+03	2.119554E-01	3.675122E-03
3.947759E+03	2.098631E-01	3.585030E-03
3.957653E+03	2.077556E-01	3.496406E-03
3.967547E+03	2.056479E-01	3.409570E-03
3.977441E+03	2.035332E-01	3.324475E-03
3.987336E+03	2.014224E-01	3.241365E-03
3.997230E+03	1.993146E-01	3.160292E-03
4.007124E+03	1.972152E-01	3.081406E-03
4.017018E+03	1.951345E-01	3.004933E-03
4.026912E+03	1.930673E-01	2.930857E-03
4.036806E+03	1.910188E-01	2.859322E-03
4.046700E+03	1.889989E-01	2.790538E-03
4.056594E+03	1.870063E-01	2.724548E-03
4.066489E+03	1.850451E-01	2.661471E-03
4.076383E+03	1.831161E-01	2.601379E-03
4.086277E+03	1.812206E-01	2.544349E-03
4.096171E+03	1.793725E-01	2.490631E-03
4.106065E+03	1.775717E-01	2.440273E-03
4.115959E+03	1.758238E-01	2.393396E-03
4.125853E+03	1.741462E-01	2.350280E-03
4.135748E+03	1.725393E-01	2.310959E-03
4.145642E+03	1.710140E-01	2.275611E-03
4.155536E+03	1.695848E-01	2.244446E-03
4.165430E+03	1.682550E-01	2.217528E-03
4.175324E+03	1.670354E-01	2.195008E-03
4.185218E+03	1.659257E-01	2.176890E-03
4.195112E+03	1.649293E-01	2.163211E-03
4.205006E+03	1.640417E-01	2.153794E-03
4.214901E+03	1.632580E-01	2.148415E-03
4.224795E+03	1.625699E-01	2.146811E-03
4.234689E+03	1.619583E-01	2.148572E-03
4.244583E+03	1.614093E-01	2.153358E-03
4.254477E+03	1.609022E-01	2.160732E-03
4.264371E+03	1.604123E-01	2.170206E-03
4.274265E+03	1.599276E-01	2.181450E-03
4.284159E+03	1.594366E-01	2.194142E-03
4.294054E+03	1.589325E-01	2.208021E-03
4.303948E+03	1.584038E-01	2.222761E-03
4.313842E+03	1.578478E-01	2.238160E-03
4.323736E+03	1.572605E-01	2.253997E-03
4.333630E+03	1.566393E-01	2.270076E-03
4.343524E+03	1.559870E-01	2.286286E-03
4.353418E+03	1.553017E-01	2.302453E-03
4.363313E+03	1.545874E-01	2.318495E-03
4.373207E+03	1.538511E-01	2.334388E-03
4.383101E+03	1.530970E-01	2.350079E-03
4.392995E+03	1.523303E-01	2.365535E-03
4.402889E+03	1.515606E-01	2.380808E-03
4.412783E+03	1.507941E-01	2.395908E-03
4.422677E+03	1.500368E-01	2.410852E-03
4.432571E+03	1.492961E-01	2.425692E-03
4.442466E+03	1.485775E-01	2.440458E-03
4.452360E+03	1.478815E-01	2.455109E-03
4.462254E+03	1.472139E-01	2.469698E-03
4.472148E+03	1.465760E-01	2.484210E-03
4.482042E+03	1.459705E-01	2.498655E-03
4.491936E+03	1.453974E-01	2.513010E-03
4.501830E+03	1.448589E-01	2.527285E-03
4.511725E+03	1.443580E-01	2.541517E-03
4.521619E+03	1.438923E-01	2.555646E-03
4.531513E+03	1.434634E-01	2.569686E-03
4.541407E+03	1.430745E-01	2.583681E-03
4.551301E+03	1.427248E-01	2.597611E-03
4.561195E+03	1.424165E-01	2.611506E-03
4.571089E+03	1.421528E-01	2.625422E-03
4.580983E+03	1.419323E-01	2.639326E-03
4.590878E+03	1.417602E-01	2.653316E-03
4.600772E+03	1.416384E-01	2.667424E-03
4.610666E+03	1.415667E-01	2.681649E-03
4.620560E+03	1.415467E-01	2.696016E-03
4.630454E+03	1.415826E-01	2.710608E-03
4.640348E+03	1.416733E-01	2.725406E-03
4.650242E+03	1.418187E-01	2.740404E-03
4.660137E+03	1.420196E-01	2.755621E-03
4.670031E+03	1.422765E-01	2.771060E-03
4.679925E+03	1.425858E-01	2.786650E-03
4.689819E+03	1.429464E-01	2.802367E-03
4.699713E+03	1.433536E-01	2.818108E-03
4.709607E+03	1.438044E-01	2.833811E-03
4.719501E+03	1.442936E-01	2.849363E-03
4.729395E+03	1.448150E-01	2.864631E-03
4.739290E+03	1.453603E-01	2.879442E-03
4.749184E+03	1.459204E-01	2.893601E-03
4.759078E+03	1.464854E-01	2.906899E-03
4.768972E+03	1.470422E-01	2.919067E-03
4.778866E+03	1.475790E-01	2.929858E-03
4.788760E+03	1.480853E-01	2.939053E-03
4.798654E+03	1.485486E-01	2.946396E-03
4.808549E+03	1.489546E-01	2.951601E-03
4.818443E+03	1.492952E-01	2.954504E-03
4.828337E+03	1.495575E-01	2.954857E-03
4.838231E+03	1.497353E-01	2.952542E-03
4.848125E+03	1.498232E-01	2.947468E-03
4.858019E+03	1.498164E-01	2.939559E-03
4.867913E+03	1.497100E-01	2.928743E-03
4.877807E+03	1.495054E-01	2.915075E-03
4.887702E+03	1.492011E-01	2.898563E-03
4.897596E+03	1.488007E-01	2.879311E-03
4.907490E+03	1.483076E-01	2.857432E-03
4.917384E+03	1.477290E-01	2.833106E-03
4.927278E+03	1.470748E-01	2.806574E-03
4.937172E+03	1.463543E-01	2.778058E-03
4.947066E+03	1.455765E-01	2.747780E-03
4.956961E+03	1.447523E-01	2.715994E-03
4.966855E+03	1.438897E-01	2.682900E-03
4.976749E+03	1.430013E-01	2.648778E-03
4.986643E+03	1.420953E-01	2.613824E-03
4.996537E+03	1.411809E-01	2.578251E-03
5.006431E+03	1.402683E-01	2.542285E-03
5.016325E+03	1.393658E-01	2.506113E-03
5.026219E+03	1.384813E-01	2.469913E-03
5.036114E+03	1.376239E-01	2.433878E-03
5.046008E+03	1.367995E-01	2.398141E-03
5.055902E+03	1.360150E-01	2.362847E-03
5.065796E+03	1.352785E-01	2.328160E-03
5.075690E+03	1.345976E-01	2.294230E-03
5.085584E+03	1.339749E-01	2.261118E-03
5.095478E+03	1.334161E-01	2.228933E-03
5.105373E+03	1.329258E-01	2.197766E-03
5.115267E+03	1.325047E-01	2.167640E-03
5.125161E+03	1.321546E-01	2.138597E-03
5.135055E+03	1.318735E-01	2.110615E-03
5.144949E+03	1.316608E-01	2.083704E-03
5.154843E+03	1.315123E-01	2.057813E-03
5.164737E+03	1.314266E-01	2.032944E-03
5.174631E+03	1.313965E-01	2.009011E-03
5.184526E+03	1.314186E-01	1.985997E-03
5.194420E+03	1.314893E-01	1.963884E-03
5.204314E+03	1.316004E-01	1.942593E-03
5.214208E+03	1.317494E-01	1.922142E-03
5.224102E+03	1.319298E-01	1.902490E-03
5.233996E+03	1.321370E-01	1.883634E-03
5.243890E+03	1.323649E-01	1.865559E-03
5.253785E+03	1.326057E-01	1.848230E-03
5.263679E+03	1.328533E-01	1.831645E-03
5.273573E+03	1.330997E-01	1.815786E-03
5.283467E+03	1.333376E-01	1.800644E-03
5.293361E+03	1.335576E-01	1.786192E-03
5.303255E+03	1.337484E-01	1.772384E-03
5.313149E+03	1.339009E-01	1.759205E-03
5.323043E+03	1.340057E-01	1.746638E-03
5.332938E+03	1.340504E-01	1.734628E-03
5.342832E+03	1.340255E-01	1.723155E-03
5.352726E+03	1.339227E-01	1.712209E-03
5.362620E+03	1.337323E-01	1.701755E-03
5.372514E+03	1.334549E-01	1.691880E-03
5.382408E+03	1.330995E-01	1.682736E-03
5.392302E+03	1.326784E-01	1.674419E-03
5.402196E+03	1.322079E-01	1.667040E-03
5.412091E+03	1.316991E-01	1.660637E-03
5.421985E+03	1.311660E-01	1.655279E-03
5.431879E+03	1.306218E-01	1.651017E-03
5.441773E+03	1.300748E-01	1.647844E-03
5.451667E+03	1.295371E-01	1.645799E-03
5.461561E+03	1.290160E-01	1.644865E-03
5.471455E+03	1.285192E-01	1.645029E-03
5.481350E+03	1.280529E-01	1.646269E-03
5.491244E+03	1.276225E-01	1.648553E-03
5.501138E+03	1.272315E-01	1.651833E-03
5.511032E+03	1.268839E-01	1.656071E-03
5.520926E+03	1.265832E-01	1.661228E-03
5.530820E+03	1.263327E-01	1.667269E-03
5.540714E+03	1.261347E-01	1.674152E-03
5.550608E+03	1.259940E-01	1.681870E-03
5.560503E+03	1.259116E-01	1.690375E-03
5.570397E+03	1.258929E-01	1.699681E-03
5.580291E+03	1.259412E-01	1.709777E-03
5.590185E+03	1.260609E-01	1.720670E-03
5.600079E+03	1.262563E-01	1.732375E-03
5.609973E+03	1.265321E-01	1.744912E-03
5.619867E+03	1.268913E-01	1.758280E-03
5.629762E+03	1.273375E-01	1.772490E-03
5.639656E+03	1.278752E-01	1.787567E-03
5.649550E+03	1.285044E-01	1.803477E-03
5.659444E+03	1.292291E-01	1.820235E-03
5.669338E+03	1.300469E-01	1.837775E-03
5.679232E+03	1.309574E-01	1.856051E-03
5.689126E+03	1.319592E-01	1.875003E-03
5.699020E+03	1.330469E-01	1.894517E-03
5.708915E+03	1.342168E-01	1.914496E-03
5.718809E+03	1.354587E-01	1.934751E-03
5.728703E+03	1.367664E-01	1.955148E-03
5.738597E+03	1.381286E-01	1.975475E-03
5.748491E+03	1.395320E-01	1.995498E-03
5.758385E+03	1.409653E-01	2.015002E-03
5.768279E+03	1.424148E-01	2.033744E-03
5.778174E+03	1.438663E-01	2.051474E-03
5.788068E+03	1.453038E-01	2.067918E-03
5.797962E+03	1.467141E-01	2.082845E-03
5.807856E+03	1.480800E-01	2.095975E-03
5.817750E+03	1.493920E-01	2.107139E-03
5.827644E+03	1.506332E-01	2.116071E-03
5.837538E+03	1.517956E-01	2.122641E-03
5.847432E+03	1.528672E-01	2.126665E-03
5.857327E+03	1.538441E-01	2.128086E-03
5.867221E+03	1.547218E-01	2.126845E-03
5.877115E+03	1.554987E-01	2.122928E-03
5.887009E+03	1.561805E-01	2.116433E-03
5.896903E+03	1.567730E-01	2.107457E-03
5.906797E+03	1.572892E-01	2.096205E-03
5.916691E+03	1.577441E-01	2.082900E-03
5.926586E+03	1.581572E-01	2.067830E-03
5.936480E+03	1.585506E-01	2.051309E-03
5.946374E+03	1.589482E-01	2.033667E-03
5.956268E+03	1.593773E-01	2.015264E-03
5.966162E+03	1.598662E-01	1.996464E-03
5.976056E+03	1.604434E-01	1.977617E-03
5.985950E+03	1.611401E-01	1.959089E-03
5.995844E+03	1.619841E-01	1.941185E-03
6.005739E+03	1.630051E-01	1.924217E-03
6.015633E+03	1.642295E-01	1.908437E-03
6.025527E+03	1.656820E-01	1.894061E-03
6.035421E+03	1.673859E-01	1.881278E-03
6.045315E+03	1.693551E-01	1.870154E-03
6.055209E+03	1.716061E-01	1.860783E-03
6.065103E+03	1.741450E-01	1.853145E-03
6.074998E+03	1.769664E-01	1.847108E-03
6.084892E+03	1.800645E-01	1.842556E-03
6.094786E+03	1.834152E-01	1.839217E-03
6.104680E+03	1.869848E-01	1.836768E-03
6.114574E+03	1.907240E-01	1.834799E-03
6.124468E+03	1.945688E-01	1.832834E-03
6.134362E+03	1.984361E-01	1.830312E-03
6.144256E+03	2.022204E-01	1.826579E-03
6.154151E+03	2.058014E-01	1.820974E-03
6.164045E+03	2.090176E-01	1.812603E-03
6.173939E+03	2.116955E-01	1.800616E-03
6.183833E+03	2.136699E-01	1.784360E-03
6.193727E+03	2.147653E-01	1.763192E-03
6.203621E+03	2.148561E-01	1.736928E-03
6.213515E+03	2.139179E-01	1.706179E-03
6.223410E+03	2.120416E-01	1.672365E-03
6.233304E+03	2.094287E-01	1.637603E-03
6.243198E+03	2.063143E-01	1.604077E-03
6.253092E+03	2.029396E-01	1.573840E-03
6.262986E+03	1.995353E-01	1.548730E-03
6.272880E+03	1.963057E-01	1.530261E-03
6.282774E+03	1.933971E-01	1.519242E-03
6.292668E+03	1.909289E-01	1.516216E-03
6.302563E+03	1.889869E-01	1.521521E-03
6.312457E+03	1.876267E-01	1.535339E-03
6.322351E+03	1.868815E-01	1.557756E-03
6.332245E+03	1.867704E-01	1.588831E-03
6.342139E+03	1.872973E-01	1.628577E-03
6.352033E+03	1.884497E-01	1.676926E-03
6.361927E+03	1.902144E-01	1.733860E-03
6.371822E+03	1.925627E-01	1.799257E-03
6.381716E+03	1.954616E-01	1.872978E-03
6.391610E+03	1.988667E-01	1.954773E-03
6.401504E+03	2.027308E-01	2.044353E-03
6.411398E+03	2.069897E-01	2.141228E-03
6.421292E+03	2.115762E-01	2.244824E-03
6.431186E+03	2.164231E-01	2.354506E-03
6.441080E+03	2.214498E-01	2.469426E-03
6.450975E+03	2.265729E-01	2.588619E-03
6.460869E+03	2.317114E-01	2.711055E-03
6.470763E+03	2.367817E-01	2.835590E-03
6.480657E+03	2.417009E-01	2.960994E-03
6.490551E+03	2.463840E-01	3.085918E-03
6.500445E+03	2.507554E-01	3.209046E-03
6.510339E+03	2.547340E-01	3.328911E-03
6.520234E+03	2.582468E-01	3.444076E-03
6.530128E+03	2.612274E-01	3.553118E-03
6.540022E+03	2.636241E-01	3.654767E-03
6.549916E+03	2.653860E-01	3.747724E-03
6.559810E+03	2.664919E-01	3.831078E-03
6.569704E+03	2.669215E-01	3.903936E-03
6.579598E+03	2.666747E-01	3.965707E-03
6.589492E+03	2.657637E-01	4.016005E-03
6.599387E+03	2.642174E-01	4.054746E-03
6.609281E+03	2.620626E-01	4.081857E-03
6.619175E+03	2.593513E-01	4.097722E-03
6.629069E+03	2.561307E-01	4.102714E-03
6.638963E+03	2.524554E-01	4.097397E-03
6.648857E+03	2.483833E-01	4.082453E-03
6.658751E+03	2.439763E-01	4.058703E-03
6.668645E+03	2.392933E-01	4.026984E-03
6.678540E+03	2.343896E-01	3.988134E-03
6.688434E+03	2.293265E-01	3.943151E-03
6.698328E+03	2.241549E-01	3.892907E-03
6.708222E+03	2.189251E-01	3.838310E-03
6.718116E+03	2.136833E-01	3.780234E-03
6.728010E+03	2.084763E-01	3.719601E-03
6.737904E+03	2.033364E-01	3.657101E-03
6.747799E+03	1.982989E-01	3.593497E-03
6.757693E+03	1.933918E-01	3.529438E-03
6.767587E+03	1.886389E-01	3.465508E-03
6.777481E+03	1.840595E-01	3.402215E-03
6.787375E+03	1.796706E-01	3.340028E-03
6.797269E+03	1.754812E-01	3.279264E-03
6.807163E+03	1.715009E-01	3.220254E-03
6.817057E+03	1.677319E-01	3.163179E-03
6.826952E+03	1.641775E-01	3.108235E-03
6.836846E+03	1.608347E-01	3.055494E-03
6.846740E+03	1.577040E-01	3.005075E-03
6.856634E+03	1.547760E-01	2.956911E-03
6.866528E+03	1.520458E-01	2.911004E-03
6.876422E+03	1.495068E-01	2.867314E-03
6.886316E+03	1.471458E-01	2.825666E-03
6.896211E+03	1.449544E-01	2.785967E-03
6.906105E+03	1.429214E-01	2.748064E-03
6.915999E+03	1.410353E-01	2.711787E-03
6.925893E+03	1.392842E-01	2.676954E-03
6.935787E+03	1.376559E-01	2.643372E-03
6.945681E+03	1.361399E-01	2.610875E-03
6.955575E+03	1.347208E-01	2.579197E-03
6.965469E+03	1.333882E-01	2.548172E-03
6.975364E+03	1.321306E-01	2.517602E-03
6.985258E+03	1.309368E-01	2.487298E-03
6.995152E+03	1.297960E-01	2.457081E-03
7.005046E+03	1.286982E-01	2.426783E-03
7.014940E+03	1.276321E-01	2.396218E-03
7.024834E+03	1.265909E-01	2.365282E-03
7.034728E+03	1.255667E-01	2.333857E-03
7.044623E+03	1.245526E-01	2.301842E-03
7.054517E+03	1.235413E-01	2.269134E-03
7.064411E+03	1.225280E-01	2.235682E-03
7.074305E+03	1.215104E-01	2.201478E-03
7.084199E+03	1.204856E-01	2.166511E-03
7.094093E+03	1.194488E-01	2.130735E-03
7.103987E+03	1.184018E-01	2.094225E-03
7.113881E+03	1.173424E-01	2.056993E-03
7.123776E+03	1.162710E-01	2.019088E-03
7.133670E+03	1.151864E-01	1.980542E-03
7.143564E+03	1.140925E-01	1.941474E-03
7.153458E+03	1.129877E-01	1.901906E-03
7.163352E+03	1.118745E-01	1.861938E-03
7.173246E+03	1.107547E-01	1.821652E-03
7.183140E+03	1.096286E-01	1.781108E-03
7.193035E+03	1.084992E-01	1.740414E-03
7.202929E+03	1.073685E-01	1.699658E-03
7.212823E+03	1.062370E-01	1.658907E-03
7.222717E+03	1.051066E-01	1.618252E-03
7.232611E+03	1.039807E-01	1.577805E-03
7.242505E+03	1.028613E-01	1.537658E-03
7.252399E+03	1.017501E-01	1.497901E-03
7.262293E+03	1.006474E-01	1.458603E-03
7.272188E+03	9.955865E-02	1.419911E-03
7.282082E+03	9.848271E-02	1.381876E-03
7.291976E+03	9.742220E-02	1.344606E-03
7.301870E+03	9.637981E-02	1.308213E-03
7.311764E+03	9.535814E-02	1.272808E-03
7.321658E+03	9.435983E-02	1.238505E-03
7.331552E+03	9.338630E-02	1.205407E-03
7.341447E+03	9.244029E-02	1.173634E-03
7.351341E+03	9.152333E-02	1.143297E-03
7.361235E+03	9.063710E-02	1.114511E-03
7.371129E+03	8.978208E-02	1.087380E-03
7.381023E+03	8.895770E-02	1.062002E-03
7.390917E+03	8.816580E-02	1.038506E-03
7.400811E+03	8.740597E-02	1.016999E-03
7.410705E+03	8.668118E-02	9.976259E-04
7.420600E+03	8.598976E-02	9.804813E-04
7.430494E+03	8.533459E-02	9.657083E-04
7.440388E+03	8.471721E-02	9.534308E-04
7.450282E+03	8.413670E-02	9.437392E-04
7.460176E+03	8.359644E-02	9.367635E-04
7.470070E+03	8.309498E-02	9.325692E-04
7.479964E+03	8.263388E-02	9.312427E-04
7.489859E+03	8.221202E-02	9.328246E-04
7.499753E+03	8.183009E-02	9.373115E-04
7.509647E+03	8.148699E-02	9.446191E-04
7.519541E+03	8.117996E-02	9.546306E-04
7.529435E+03	8.090658E-02	9.672240E-04
7.539329E+03	8.066475E-02	9.822745E-04
7.549223E+03	8.044933E-02	9.996149E-04
7.559117E+03	8.025657E-02	1.019090E-03
7.569012E+03	8.008073E-02	1.040518E-03
7.578906E+03	7.991425E-02	1.063686E-03
7.588800E+03	7.975122E-02	1.088399E-03
7.598694E+03	7.958546E-02	1.114456E-03
7.608588E+03	7.940776E-02	1.141606E-03
7.618482E+03	7.921275E-02	1.169646E-03
7.628376E+03	7.899533E-02	1.198376E-03
7.638271E+03	7.875261E-02	1.227624E-03
7.648165E+03	7.848390E-02	1.257255E-03
7.658059E+03	7.819117E-02	1.287179E-03
7.667953E+03	7.787533E-02	1.317299E-03
7.677847E+03	7.754001E-02	1.347570E-03
