#wls	flux	fluxerr
1.583061E+03	7.338414E-02	9.085634E-03
1.622638E+03	7.514748E-02	9.190799E-03
1.662214E+03	7.687748E-02	9.285005E-03
1.701791E+03	7.859502E-02	9.370798E-03
1.741367E+03	8.028195E-02	9.446008E-03
1.780944E+03	8.193555E-02	9.510377E-03
1.820520E+03	8.357065E-02	9.565681E-03
1.860097E+03	8.517743E-02	9.610826E-03
1.899673E+03	8.679493E-02	9.650226E-03
1.939250E+03	8.842447E-02	9.683907E-03
1.978827E+03	9.008856E-02	9.714182E-03
2.018403E+03	9.183220E-02	9.745599E-03
2.057980E+03	9.367627E-02	9.779881E-03
2.097556E+03	9.569105E-02	9.823678E-03
2.137133E+03	9.789804E-02	9.878223E-03
2.176709E+03	1.003513E-01	9.947815E-03
2.216286E+03	1.030923E-01	1.003512E-02
2.255862E+03	1.061624E-01	1.014247E-02
2.295439E+03	1.096276E-01	1.027417E-02
2.335015E+03	1.134788E-01	1.042711E-02
2.374592E+03	1.177772E-01	1.060454E-02
2.414168E+03	1.225576E-01	1.080694E-02
2.453745E+03	1.278844E-01	1.103704E-02
2.493321E+03	1.338377E-01	1.129839E-02
2.532898E+03	1.404741E-01	1.159201E-02
2.572475E+03	1.478986E-01	1.192233E-02
2.612051E+03	1.562316E-01	1.229422E-02
2.651628E+03	1.655195E-01	1.270594E-02
2.691204E+03	1.757007E-01	1.314731E-02
2.730781E+03	1.867146E-01	1.360871E-02
2.770357E+03	1.985135E-01	1.408191E-02
2.809934E+03	2.109435E-01	1.455174E-02
2.849510E+03	2.238330E-01	1.500313E-02
2.889087E+03	2.369649E-01	1.541949E-02
2.928663E+03	2.501278E-01	1.578641E-02
2.968240E+03	2.629760E-01	1.608305E-02
2.978134E+03	2.660896E-01	1.614353E-02
2.988028E+03	2.691734E-01	1.619926E-02
2.997922E+03	2.721920E-01	1.624817E-02
3.007816E+03	2.751383E-01	1.628996E-02
3.017710E+03	2.780626E-01	1.632770E-02
3.027605E+03	2.808714E-01	1.635599E-02
3.037499E+03	2.836146E-01	1.637789E-02
3.047393E+03	2.862850E-01	1.639311E-02
3.057287E+03	2.888462E-01	1.639971E-02
3.067181E+03	2.913482E-01	1.640066E-02
3.077075E+03	2.936971E-01	1.639084E-02
3.086969E+03	2.959717E-01	1.637486E-02
3.096864E+03	2.981071E-01	1.634927E-02
3.106758E+03	3.001246E-01	1.631545E-02
3.116652E+03	3.019885E-01	1.627168E-02
3.126546E+03	3.037495E-01	1.622089E-02
3.136440E+03	3.053715E-01	1.616137E-02
3.146334E+03	3.068204E-01	1.609152E-02
3.156228E+03	3.081182E-01	1.601277E-02
3.166122E+03	3.092878E-01	1.592653E-02
3.176017E+03	3.102674E-01	1.582986E-02
3.185911E+03	3.111085E-01	1.572565E-02
3.195805E+03	3.117516E-01	1.561115E-02
3.205699E+03	3.122483E-01	1.548921E-02
3.215593E+03	3.125682E-01	1.535857E-02
3.225487E+03	3.127094E-01	1.521940E-02
3.235381E+03	3.126971E-01	1.507321E-02
3.245276E+03	3.125040E-01	1.491891E-02
3.255170E+03	3.121307E-01	1.475680E-02
3.265064E+03	3.116041E-01	1.458843E-02
3.274958E+03	3.109003E-01	1.441291E-02
3.284852E+03	3.100229E-01	1.423066E-02
3.294746E+03	3.090246E-01	1.404436E-02
3.304640E+03	3.078608E-01	1.385215E-02
3.314534E+03	3.065376E-01	1.365457E-02
3.324429E+03	3.050852E-01	1.345317E-02
3.334323E+03	3.035109E-01	1.324846E-02
3.344217E+03	3.018220E-01	1.304094E-02
3.354111E+03	3.000276E-01	1.283115E-02
3.364005E+03	2.981365E-01	1.261961E-02
3.373899E+03	2.961378E-01	1.240602E-02
3.383793E+03	2.940848E-01	1.219273E-02
3.393688E+03	2.919669E-01	1.197938E-02
3.403582E+03	2.897954E-01	1.176652E-02
3.413476E+03	2.875814E-01	1.155468E-02
3.423370E+03	2.853361E-01	1.134436E-02
3.433264E+03	2.830884E-01	1.113672E-02
3.443158E+03	2.808277E-01	1.093137E-02
3.453052E+03	2.785808E-01	1.072931E-02
3.462946E+03	2.763368E-01	1.053004E-02
3.472841E+03	2.741045E-01	1.033385E-02
3.482735E+03	2.719277E-01	1.014229E-02
3.492629E+03	2.697787E-01	9.954239E-03
3.502523E+03	2.676668E-01	9.769941E-03
3.512417E+03	2.656320E-01	9.590756E-03
3.522311E+03	2.636482E-01	9.415615E-03
3.532205E+03	2.617538E-01	9.245767E-03
3.542100E+03	2.599226E-01	9.080152E-03
3.551994E+03	2.581905E-01	8.919901E-03
3.561888E+03	2.565310E-01	8.763953E-03
3.571782E+03	2.549775E-01	8.613320E-03
3.581676E+03	2.535170E-01	8.467408E-03
3.591570E+03	2.521645E-01	8.326582E-03
3.601464E+03	2.509064E-01	8.190240E-03
3.611358E+03	2.497409E-01	8.058193E-03
3.621253E+03	2.486795E-01	7.930677E-03
3.631147E+03	2.477173E-01	7.807399E-03
3.641041E+03	2.468363E-01	7.687665E-03
3.650935E+03	2.460420E-01	7.571537E-03
3.660829E+03	2.453263E-01	7.458651E-03
3.670723E+03	2.446670E-01	7.348245E-03
3.680617E+03	2.440778E-01	7.240647E-03
3.690512E+03	2.435232E-01	7.134725E-03
3.700406E+03	2.430145E-01	7.030767E-03
3.710300E+03	2.425273E-01	6.928015E-03
3.720194E+03	2.420489E-01	6.826085E-03
3.730088E+03	2.415670E-01	6.724624E-03
3.739982E+03	2.410685E-01	6.623280E-03
3.749876E+03	2.405528E-01	6.522052E-03
3.759770E+03	2.399964E-01	6.420340E-03
3.769665E+03	2.393882E-01	6.317905E-03
3.779559E+03	2.387270E-01	6.214785E-03
3.789453E+03	2.380023E-01	6.110778E-03
3.799347E+03	2.371941E-01	6.005465E-03
3.809241E+03	2.363025E-01	5.898961E-03
3.819135E+03	2.353094E-01	5.790928E-03
3.829029E+03	2.342169E-01	5.681557E-03
3.838924E+03	2.330178E-01	5.570809E-03
3.848818E+03	2.316980E-01	5.458496E-03
3.858712E+03	2.302624E-01	5.344894E-03
3.868606E+03	2.287081E-01	5.230097E-03
3.878500E+03	2.270337E-01	5.114237E-03
3.888394E+03	2.252395E-01	4.997488E-03
3.898288E+03	2.233194E-01	4.879886E-03
3.908182E+03	2.212853E-01	4.761864E-03
3.918077E+03	2.191417E-01	4.643682E-03
3.927971E+03	2.168955E-01	4.525645E-03
3.937865E+03	2.145541E-01	4.408061E-03
3.947759E+03	2.121202E-01	4.291133E-03
3.957653E+03	2.096109E-01	4.175347E-03
3.967547E+03	2.070313E-01	4.060934E-03
3.977441E+03	2.044005E-01	3.948382E-03
3.987336E+03	2.017308E-01	3.838034E-03
3.997230E+03	1.990290E-01	3.730109E-03
4.007124E+03	1.963132E-01	3.625029E-03
4.017018E+03	1.935893E-01	3.522968E-03
4.026912E+03	1.908676E-01	3.424176E-03
4.036806E+03	1.881576E-01	3.328874E-03
4.046700E+03	1.854673E-01	3.237244E-03
4.056594E+03	1.828039E-01	3.149445E-03
4.066489E+03	1.801738E-01	3.065615E-03
4.076383E+03	1.775838E-01	2.985886E-03
4.086277E+03	1.750363E-01	2.910310E-03
4.096171E+03	1.725400E-01	2.839037E-03
4.106065E+03	1.701051E-01	2.772225E-03
4.115959E+03	1.677471E-01	2.710117E-03
4.125853E+03	1.654699E-01	2.652744E-03
4.135748E+03	1.632910E-01	2.600360E-03
4.145642E+03	1.612200E-01	2.553070E-03
4.155536E+03	1.592699E-01	2.511038E-03
4.165430E+03	1.574566E-01	2.474460E-03
4.175324E+03	1.557823E-01	2.443317E-03
4.185218E+03	1.542546E-01	2.417631E-03
4.195112E+03	1.528782E-01	2.397282E-03
4.205006E+03	1.516576E-01	2.382143E-03
4.214901E+03	1.505828E-01	2.371870E-03
4.224795E+03	1.496475E-01	2.366185E-03
4.234689E+03	1.488410E-01	2.364752E-03
4.244583E+03	1.481483E-01	2.367177E-03
4.254477E+03	1.475507E-01	2.373007E-03
4.264371E+03	1.470234E-01	2.381694E-03
4.274265E+03	1.465405E-01	2.392667E-03
4.284159E+03	1.460830E-01	2.405468E-03
4.294054E+03	1.456265E-01	2.419537E-03
4.303948E+03	1.451513E-01	2.434389E-03
4.313842E+03	1.446400E-01	2.449572E-03
4.323736E+03	1.440733E-01	2.464590E-03
4.333630E+03	1.434477E-01	2.479218E-03
4.343524E+03	1.427525E-01	2.493102E-03
4.353418E+03	1.419873E-01	2.506072E-03
4.363313E+03	1.411584E-01	2.518081E-03
4.373207E+03	1.402671E-01	2.529006E-03
4.383101E+03	1.393228E-01	2.538877E-03
4.392995E+03	1.383393E-01	2.547819E-03
4.402889E+03	1.373232E-01	2.555845E-03
4.412783E+03	1.362867E-01	2.563081E-03
4.422677E+03	1.352439E-01	2.569709E-03
4.432571E+03	1.342029E-01	2.575813E-03
4.442466E+03	1.331734E-01	2.581518E-03
4.452360E+03	1.321612E-01	2.586889E-03
4.462254E+03	1.311736E-01	2.592030E-03
4.472148E+03	1.302190E-01	2.597080E-03
4.482042E+03	1.292985E-01	2.602031E-03
4.491936E+03	1.284189E-01	2.607010E-03
4.501830E+03	1.275843E-01	2.612089E-03
4.511725E+03	1.267942E-01	2.617247E-03
4.521619E+03	1.260560E-01	2.622641E-03
4.531513E+03	1.253708E-01	2.628288E-03
4.541407E+03	1.247410E-01	2.634250E-03
4.551301E+03	1.241692E-01	2.640583E-03
4.561195E+03	1.236574E-01	2.647342E-03
4.571089E+03	1.232056E-01	2.654532E-03
4.580983E+03	1.228154E-01	2.662201E-03
4.590878E+03	1.224902E-01	2.670430E-03
4.600772E+03	1.222311E-01	2.679253E-03
4.610666E+03	1.220366E-01	2.688652E-03
4.620560E+03	1.219073E-01	2.698643E-03
4.630454E+03	1.218448E-01	2.709275E-03
4.640348E+03	1.218468E-01	2.720500E-03
4.650242E+03	1.219141E-01	2.732340E-03
4.660137E+03	1.220412E-01	2.744677E-03
4.670031E+03	1.222314E-01	2.757588E-03
4.679925E+03	1.224763E-01	2.770879E-03
4.689819E+03	1.227778E-01	2.784591E-03
4.699713E+03	1.231278E-01	2.798536E-03
4.709607E+03	1.235210E-01	2.812586E-03
4.719501E+03	1.239533E-01	2.826639E-03
4.729395E+03	1.244195E-01	2.840567E-03
4.739290E+03	1.249084E-01	2.854099E-03
4.749184E+03	1.254130E-01	2.867067E-03
4.759078E+03	1.259242E-01	2.879248E-03
4.768972E+03	1.264338E-01	2.890442E-03
4.778866E+03	1.269295E-01	2.900359E-03
4.788760E+03	1.274007E-01	2.908742E-03
4.798654E+03	1.278402E-01	2.915424E-03
4.808549E+03	1.282338E-01	2.920074E-03
4.818443E+03	1.285754E-01	2.922553E-03
4.828337E+03	1.288523E-01	2.922577E-03
4.838231E+03	1.290607E-01	2.920069E-03
4.848125E+03	1.291927E-01	2.914863E-03
4.858019E+03	1.292458E-01	2.906920E-03
4.867913E+03	1.292174E-01	2.896209E-03
4.877807E+03	1.291087E-01	2.882781E-03
4.887702E+03	1.289172E-01	2.866616E-03
4.897596E+03	1.286477E-01	2.847856E-03
4.907490E+03	1.283064E-01	2.826680E-03
4.917384E+03	1.278993E-01	2.803260E-03
4.927278E+03	1.274331E-01	2.777790E-03
4.937172E+03	1.269155E-01	2.750480E-03
4.947066E+03	1.263545E-01	2.721546E-03
4.956961E+03	1.257580E-01	2.691207E-03
4.966855E+03	1.251343E-01	2.659678E-03
4.976749E+03	1.244947E-01	2.627243E-03
4.986643E+03	1.238417E-01	2.593994E-03
4.996537E+03	1.231878E-01	2.560229E-03
5.006431E+03	1.225384E-01	2.526092E-03
5.016325E+03	1.218983E-01	2.491717E-03
5.026219E+03	1.212770E-01	2.457327E-03
5.036114E+03	1.206788E-01	2.423031E-03
5.046008E+03	1.201106E-01	2.388995E-03
5.055902E+03	1.195742E-01	2.355271E-03
5.065796E+03	1.190771E-01	2.322031E-03
5.075690E+03	1.186233E-01	2.289366E-03
5.085584E+03	1.182146E-01	2.257323E-03
5.095478E+03	1.178550E-01	2.225995E-03
5.105373E+03	1.175450E-01	2.195400E-03
5.115267E+03	1.172854E-01	2.165570E-03
5.125161E+03	1.170798E-01	2.136581E-03
5.135055E+03	1.169244E-01	2.108378E-03
5.144949E+03	1.168179E-01	2.080958E-03
5.154843E+03	1.167602E-01	2.054335E-03
5.164737E+03	1.167473E-01	2.028467E-03
5.174631E+03	1.167783E-01	2.003363E-03
5.184526E+03	1.168489E-01	1.978983E-03
5.194420E+03	1.169578E-01	1.955343E-03
5.204314E+03	1.171005E-01	1.932414E-03
5.214208E+03	1.172743E-01	1.910198E-03
5.224102E+03	1.174762E-01	1.888706E-03
5.233996E+03	1.177033E-01	1.867952E-03
5.243890E+03	1.179526E-01	1.847957E-03
5.253785E+03	1.182208E-01	1.828743E-03
5.263679E+03	1.185045E-01	1.810341E-03
5.273573E+03	1.187984E-01	1.792755E-03
5.283467E+03	1.190999E-01	1.776042E-03
5.293361E+03	1.194046E-01	1.760235E-03
5.303255E+03	1.197059E-01	1.745339E-03
5.313149E+03	1.199979E-01	1.731378E-03
5.323043E+03	1.202736E-01	1.718364E-03
5.332938E+03	1.205268E-01	1.706321E-03
5.342832E+03	1.207452E-01	1.695191E-03
5.352726E+03	1.209223E-01	1.684996E-03
5.362620E+03	1.210461E-01	1.675680E-03
5.372514E+03	1.211141E-01	1.667313E-03
5.382408E+03	1.211324E-01	1.660070E-03
5.392302E+03	1.211050E-01	1.654080E-03
5.402196E+03	1.210401E-01	1.649430E-03
5.412091E+03	1.209487E-01	1.646182E-03
5.421985E+03	1.208349E-01	1.644297E-03
5.431879E+03	1.207071E-01	1.643781E-03
5.441773E+03	1.205715E-01	1.644609E-03
5.451667E+03	1.204336E-01	1.646739E-03
5.461561E+03	1.202985E-01	1.650124E-03
5.471455E+03	1.201706E-01	1.654709E-03
5.481350E+03	1.200540E-01	1.660434E-03
5.491244E+03	1.199526E-01	1.667237E-03
5.501138E+03	1.198696E-01	1.675056E-03
5.511032E+03	1.198100E-01	1.683851E-03
5.520926E+03	1.197768E-01	1.693563E-03
5.530820E+03	1.197715E-01	1.704117E-03
5.540714E+03	1.197987E-01	1.715487E-03
5.550608E+03	1.198600E-01	1.727606E-03
5.560503E+03	1.199614E-01	1.740481E-03
5.570397E+03	1.201047E-01	1.754061E-03
5.580291E+03	1.202943E-01	1.768341E-03
5.590185E+03	1.205319E-01	1.783277E-03
5.600079E+03	1.208218E-01	1.798872E-03
5.609973E+03	1.211651E-01	1.815084E-03
5.619867E+03	1.215674E-01	1.831942E-03
5.629762E+03	1.220289E-01	1.849399E-03
5.639656E+03	1.225510E-01	1.867427E-03
5.649550E+03	1.231346E-01	1.885990E-03
5.659444E+03	1.237812E-01	1.905069E-03
5.669338E+03	1.244902E-01	1.924608E-03
5.679232E+03	1.252585E-01	1.944515E-03
5.689126E+03	1.260853E-01	1.964734E-03
5.699020E+03	1.269673E-01	1.985168E-03
5.708915E+03	1.279019E-01	2.005734E-03
5.718809E+03	1.288808E-01	2.026255E-03
5.728703E+03	1.299016E-01	2.046647E-03
5.738597E+03	1.309563E-01	2.066737E-03
5.748491E+03	1.320380E-01	2.086370E-03
5.758385E+03	1.331414E-01	2.105416E-03
5.768279E+03	1.342576E-01	2.123688E-03
5.778174E+03	1.353813E-01	2.141055E-03
5.788068E+03	1.365056E-01	2.157369E-03
5.797962E+03	1.376224E-01	2.172457E-03
5.807856E+03	1.387260E-01	2.186190E-03
5.817750E+03	1.398133E-01	2.198484E-03
5.827644E+03	1.408805E-01	2.209246E-03
5.837538E+03	1.419232E-01	2.218380E-03
5.847432E+03	1.429424E-01	2.225871E-03
5.857327E+03	1.439367E-01	2.231680E-03
5.867221E+03	1.449107E-01	2.235858E-03
5.877115E+03	1.458672E-01	2.238431E-03
5.887009E+03	1.468127E-01	2.239487E-03
5.896903E+03	1.477580E-01	2.239180E-03
5.906797E+03	1.487139E-01	2.237661E-03
5.916691E+03	1.496890E-01	2.235048E-03
5.926586E+03	1.507016E-01	2.231600E-03
5.936480E+03	1.517633E-01	2.227472E-03
5.946374E+03	1.528948E-01	2.222948E-03
5.956268E+03	1.541114E-01	2.218224E-03
5.966162E+03	1.554308E-01	2.213522E-03
5.976056E+03	1.568684E-01	2.209023E-03
5.985950E+03	1.584452E-01	2.204979E-03
5.995844E+03	1.601728E-01	2.201498E-03
6.005739E+03	1.620651E-01	2.198716E-03
6.015633E+03	1.641358E-01	2.196759E-03
6.025527E+03	1.663933E-01	2.195677E-03
6.035421E+03	1.688398E-01	2.195437E-03
6.045315E+03	1.714767E-01	2.196007E-03
6.055209E+03	1.742924E-01	2.197195E-03
6.065103E+03	1.772771E-01	2.198856E-03
6.074998E+03	1.804074E-01	2.200703E-03
6.084892E+03	1.836445E-01	2.202303E-03
6.094786E+03	1.869452E-01	2.203223E-03
6.104680E+03	1.902529E-01	2.202940E-03
6.114574E+03	1.934885E-01	2.200751E-03
6.124468E+03	1.965655E-01	2.195965E-03
6.134362E+03	1.993793E-01	2.187791E-03
6.144256E+03	2.018111E-01	2.175399E-03
6.154151E+03	2.037301E-01	2.157949E-03
6.164045E+03	2.049985E-01	2.134641E-03
6.173939E+03	2.054794E-01	2.104780E-03
6.183833E+03	2.050443E-01	2.067833E-03
6.193727E+03	2.035988E-01	2.023642E-03
6.203621E+03	2.010983E-01	1.972524E-03
6.213515E+03	1.976001E-01	1.915706E-03
6.223410E+03	1.933271E-01	1.855853E-03
6.233304E+03	1.885760E-01	1.796121E-03
6.243198E+03	1.836530E-01	1.739553E-03
6.253092E+03	1.788225E-01	1.688635E-03
6.262986E+03	1.743098E-01	1.645399E-03
6.272880E+03	1.702889E-01	1.611360E-03
6.282774E+03	1.668776E-01	1.587424E-03
6.292668E+03	1.641588E-01	1.574051E-03
6.302563E+03	1.621810E-01	1.571450E-03
6.312457E+03	1.609600E-01	1.579618E-03
6.322351E+03	1.605016E-01	1.598557E-03
6.332245E+03	1.607929E-01	1.628171E-03
6.342139E+03	1.618154E-01	1.668382E-03
6.352033E+03	1.635477E-01	1.719142E-03
6.361927E+03	1.659591E-01	1.780355E-03
6.371822E+03	1.690197E-01	1.851959E-03
6.381716E+03	1.726898E-01	1.933804E-03
6.391610E+03	1.769293E-01	2.025729E-03
6.401504E+03	1.816885E-01	2.127453E-03
6.411398E+03	1.869110E-01	2.238576E-03
6.421292E+03	1.925323E-01	2.358555E-03
6.431186E+03	1.984802E-01	2.486686E-03
6.441080E+03	2.046754E-01	2.622092E-03
6.450975E+03	2.110324E-01	2.763725E-03
6.460869E+03	2.174635E-01	2.910406E-03
6.470763E+03	2.238743E-01	3.060756E-03
6.480657E+03	2.301643E-01	3.213194E-03
6.490551E+03	2.362378E-01	3.366093E-03
6.500445E+03	2.419930E-01	3.517616E-03
6.510339E+03	2.473412E-01	3.666006E-03
6.520234E+03	2.521884E-01	3.809328E-03
6.530128E+03	2.564525E-01	3.945726E-03
6.540022E+03	2.600631E-01	4.073445E-03
6.549916E+03	2.629681E-01	4.190962E-03
6.559810E+03	2.651271E-01	4.296902E-03
6.569704E+03	2.665129E-01	4.390085E-03
6.579598E+03	2.671208E-01	4.469703E-03
6.589492E+03	2.669593E-01	4.535198E-03
6.599387E+03	2.660496E-01	4.586266E-03
6.609281E+03	2.644303E-01	4.622961E-03
6.619175E+03	2.621391E-01	4.645389E-03
6.629069E+03	2.592416E-01	4.654226E-03
6.638963E+03	2.557864E-01	4.649928E-03
6.648857E+03	2.518507E-01	4.633547E-03
6.658751E+03	2.474936E-01	4.605901E-03
6.668645E+03	2.427871E-01	4.568119E-03
6.678540E+03	2.377982E-01	4.521318E-03
6.688434E+03	2.325918E-01	4.466645E-03
6.698328E+03	2.272295E-01	4.405252E-03
6.708222E+03	2.217687E-01	4.338266E-03
6.718116E+03	2.162654E-01	4.266838E-03
6.728010E+03	2.107637E-01	4.191924E-03
6.737904E+03	2.053088E-01	4.114538E-03
6.747799E+03	1.999338E-01	4.035483E-03
6.757693E+03	1.946732E-01	3.955603E-03
6.767587E+03	1.895497E-01	3.875524E-03
6.777481E+03	1.845876E-01	3.795908E-03
6.787375E+03	1.798035E-01	3.717268E-03
6.797269E+03	1.752070E-01	3.639974E-03
6.807163E+03	1.708101E-01	3.564436E-03
6.817057E+03	1.666209E-01	3.490988E-03
6.826952E+03	1.626370E-01	3.419731E-03
6.836846E+03	1.588614E-01	3.350873E-03
6.846740E+03	1.552899E-01	3.284458E-03
6.856634E+03	1.519239E-01	3.220643E-03
6.866528E+03	1.487558E-01	3.159381E-03
6.876422E+03	1.457793E-01	3.100641E-03
6.886316E+03	1.429845E-01	3.044313E-03
6.896211E+03	1.403680E-01	2.990407E-03
6.906105E+03	1.379164E-01	2.938711E-03
6.915999E+03	1.356225E-01	2.889146E-03
6.925893E+03	1.334766E-01	2.841565E-03
6.935787E+03	1.314688E-01	2.795810E-03
6.945681E+03	1.295871E-01	2.751673E-03
6.955575E+03	1.278236E-01	2.709030E-03
6.965469E+03	1.261683E-01	2.667707E-03
6.975364E+03	1.246115E-01	2.627534E-03
6.985258E+03	1.231417E-01	2.588299E-03
6.995152E+03	1.217496E-01	2.549839E-03
7.005046E+03	1.204285E-01	2.512039E-03
7.014940E+03	1.191679E-01	2.474709E-03
7.024834E+03	1.179598E-01	2.437711E-03
7.034728E+03	1.167987E-01	2.400958E-03
7.044623E+03	1.156738E-01	2.364258E-03
7.054517E+03	1.145826E-01	2.327591E-03
7.064411E+03	1.135157E-01	2.290795E-03
7.074305E+03	1.124700E-01	2.253843E-03
7.084199E+03	1.114409E-01	2.216682E-03
7.094093E+03	1.104230E-01	2.179239E-03
7.103987E+03	1.094149E-01	2.141529E-03
7.113881E+03	1.084120E-01	2.103507E-03
7.123776E+03	1.074124E-01	2.065179E-03
7.133670E+03	1.064142E-01	2.026561E-03
7.143564E+03	1.054162E-01	1.987679E-03
7.153458E+03	1.044174E-01	1.948568E-03
7.163352E+03	1.034171E-01	1.909269E-03
7.173246E+03	1.024130E-01	1.869803E-03
7.183140E+03	1.014050E-01	1.830225E-03
7.193035E+03	1.003947E-01	1.790630E-03
7.202929E+03	9.938044E-02	1.751055E-03
7.212823E+03	9.836249E-02	1.711572E-03
7.222717E+03	9.734114E-02	1.672257E-03
7.232611E+03	9.631679E-02	1.633193E-03
7.242505E+03	9.528992E-02	1.594463E-03
7.252399E+03	9.425953E-02	1.556130E-03
7.262293E+03	9.322633E-02	1.518289E-03
7.272188E+03	9.219266E-02	1.481062E-03
7.282082E+03	9.115789E-02	1.444527E-03
7.291976E+03	9.012461E-02	1.408814E-03
7.301870E+03	8.909105E-02	1.373987E-03
7.311764E+03	8.806163E-02	1.340208E-03
7.321658E+03	8.703506E-02	1.307553E-03
7.331552E+03	8.601609E-02	1.276189E-03
7.341447E+03	8.500389E-02	1.246200E-03
7.351341E+03	8.400210E-02	1.217735E-03
7.361235E+03	8.301167E-02	1.190903E-03
7.371129E+03	8.203790E-02	1.165873E-03
7.381023E+03	8.108048E-02	1.142730E-03
7.390917E+03	8.014208E-02	1.121597E-03
7.400811E+03	7.922786E-02	1.102627E-03
7.410705E+03	7.833766E-02	1.085891E-03
7.420600E+03	7.747398E-02	1.071490E-03
7.430494E+03	7.664050E-02	1.059533E-03
7.440388E+03	7.583950E-02	1.050098E-03
7.450282E+03	7.507194E-02	1.043235E-03
7.460176E+03	7.434116E-02	1.039019E-03
7.470070E+03	7.364789E-02	1.037463E-03
7.479964E+03	7.299519E-02	1.038545E-03
7.489859E+03	7.238464E-02	1.042199E-03
7.499753E+03	7.181764E-02	1.048352E-03
7.509647E+03	7.129415E-02	1.056912E-03
7.519541E+03	7.081626E-02	1.067818E-03
7.529435E+03	7.038333E-02	1.080976E-03
7.539329E+03	6.999791E-02	1.096343E-03
7.549223E+03	6.965713E-02	1.113800E-03
7.559117E+03	6.936097E-02	1.133279E-03
7.569012E+03	6.910702E-02	1.154678E-03
7.578906E+03	6.889153E-02	1.177878E-03
7.588800E+03	6.870906E-02	1.202733E-03
7.598694E+03	6.855143E-02	1.229047E-03
7.608588E+03	6.841264E-02	1.256655E-03
7.618482E+03	6.828118E-02	1.285286E-03
7.628376E+03	6.815060E-02	1.314752E-03
7.638271E+03	6.801267E-02	1.344819E-03
7.648165E+03	6.786608E-02	1.375386E-03
7.658059E+03	6.770969E-02	1.406352E-03
7.667953E+03	6.754296E-02	1.437634E-03
7.677847E+03	6.736566E-02	1.469156E-03
