#wls	flux	fluxerr
1.583061E+03	7.006264E-02	8.901101E-03
1.622638E+03	7.166046E-02	8.992532E-03
1.662214E+03	7.324743E-02	9.076021E-03
1.701791E+03	7.479439E-02	9.147958E-03
1.741367E+03	7.632506E-02	9.211306E-03
1.780944E+03	7.782695E-02	9.264578E-03
1.820520E+03	7.930355E-02	9.308241E-03
1.860097E+03	8.077589E-02	9.344784E-03
1.899673E+03	8.224253E-02	9.373996E-03
1.939250E+03	8.374867E-02	9.400918E-03
1.978827E+03	8.528968E-02	9.424772E-03
2.018403E+03	8.692267E-02	9.451532E-03
2.057980E+03	8.868215E-02	9.484347E-03
2.097556E+03	9.059037E-02	9.524823E-03
2.137133E+03	9.269731E-02	9.577267E-03
2.176709E+03	9.505488E-02	9.645806E-03
2.216286E+03	9.768793E-02	9.731463E-03
2.255862E+03	1.006524E-01	9.838077E-03
2.295439E+03	1.039834E-01	9.967055E-03
2.335015E+03	1.077281E-01	1.012063E-02
2.374592E+03	1.119046E-01	1.029796E-02
2.414168E+03	1.165877E-01	1.050316E-02
2.453745E+03	1.218301E-01	1.073781E-02
2.493321E+03	1.276775E-01	1.100241E-02
2.532898E+03	1.342590E-01	1.130415E-02
2.572475E+03	1.416197E-01	1.164224E-02
2.612051E+03	1.498912E-01	1.202248E-02
2.651628E+03	1.590602E-01	1.243828E-02
2.691204E+03	1.691591E-01	1.288663E-02
2.730781E+03	1.800966E-01	1.335515E-02
2.770357E+03	1.918077E-01	1.383404E-02
2.809934E+03	2.041411E-01	1.430805E-02
2.849510E+03	2.169247E-01	1.476183E-02
2.889087E+03	2.299397E-01	1.517844E-02
2.928663E+03	2.429187E-01	1.553976E-02
2.968240E+03	2.555456E-01	1.582699E-02
2.978134E+03	2.586027E-01	1.588482E-02
2.988028E+03	2.616356E-01	1.593816E-02
2.997922E+03	2.645814E-01	1.598325E-02
3.007816E+03	2.674614E-01	1.602153E-02
3.017710E+03	2.702976E-01	1.605442E-02
3.027605E+03	2.730547E-01	1.607991E-02
3.037499E+03	2.757256E-01	1.609774E-02
3.047393E+03	2.783040E-01	1.610768E-02
3.057287E+03	2.807825E-01	1.610947E-02
3.067181E+03	2.831838E-01	1.610457E-02
3.077075E+03	2.854718E-01	1.609108E-02
3.086969E+03	2.876400E-01	1.606884E-02
3.096864E+03	2.896823E-01	1.603769E-02
3.106758E+03	2.916213E-01	1.599910E-02
3.116652E+03	2.934217E-01	1.595133E-02
3.126546E+03	2.951067E-01	1.589585E-02
3.136440E+03	2.966423E-01	1.583104E-02
3.146334E+03	2.980232E-01	1.575688E-02
3.156228E+03	2.992731E-01	1.567484E-02
3.166122E+03	3.003592E-01	1.558346E-02
3.176017E+03	3.013061E-01	1.548426E-02
3.185911E+03	3.020821E-01	1.537585E-02
3.195805E+03	3.027122E-01	1.525978E-02
3.205699E+03	3.031662E-01	1.513478E-02
3.215593E+03	3.034704E-01	1.500241E-02
3.225487E+03	3.036232E-01	1.486286E-02
3.235381E+03	3.035970E-01	1.471502E-02
3.245276E+03	3.034189E-01	1.456048E-02
3.255170E+03	3.030901E-01	1.439954E-02
3.265064E+03	3.025856E-01	1.423125E-02
3.274958E+03	3.019340E-01	1.405722E-02
3.284852E+03	3.011384E-01	1.387783E-02
3.294746E+03	3.001768E-01	1.369229E-02
3.304640E+03	2.991048E-01	1.350338E-02
3.314534E+03	2.978771E-01	1.330923E-02
3.324429E+03	2.965248E-01	1.311145E-02
3.334323E+03	2.950783E-01	1.291157E-02
3.344217E+03	2.934965E-01	1.270795E-02
3.354111E+03	2.918116E-01	1.250217E-02
3.364005E+03	2.900321E-01	1.229474E-02
3.373899E+03	2.881666E-01	1.208617E-02
3.383793E+03	2.862252E-01	1.187699E-02
3.393688E+03	2.842170E-01	1.166769E-02
3.403582E+03	2.821524E-01	1.145879E-02
3.413476E+03	2.800626E-01	1.125163E-02
3.423370E+03	2.779150E-01	1.104494E-02
3.433264E+03	2.757602E-01	1.084079E-02
3.443158E+03	2.735860E-01	1.063872E-02
3.453052E+03	2.714010E-01	1.043902E-02
3.462946E+03	2.692328E-01	1.024272E-02
3.472841E+03	2.670724E-01	1.004939E-02
3.482735E+03	2.649305E-01	9.859365E-03
3.492629E+03	2.628359E-01	9.673627E-03
3.502523E+03	2.607806E-01	9.491768E-03
3.512417E+03	2.587920E-01	9.314681E-03
3.522311E+03	2.568609E-01	9.141912E-03
3.532205E+03	2.549965E-01	8.973660E-03
3.542100E+03	2.532226E-01	8.810635E-03
3.551994E+03	2.515451E-01	8.652885E-03
3.561888E+03	2.499531E-01	8.499888E-03
3.571782E+03	2.484672E-01	8.352195E-03
3.581676E+03	2.470746E-01	8.209221E-03
3.591570E+03	2.457933E-01	8.071414E-03
3.601464E+03	2.446239E-01	7.938635E-03
3.611358E+03	2.435657E-01	7.810699E-03
3.621253E+03	2.426023E-01	7.686936E-03
3.631147E+03	2.417449E-01	7.567555E-03
3.641041E+03	2.409884E-01	7.452262E-03
3.650935E+03	2.403118E-01	7.340275E-03
3.660829E+03	2.397348E-01	7.232080E-03
3.670723E+03	2.392194E-01	7.126417E-03
3.680617E+03	2.387824E-01	7.023696E-03
3.690512E+03	2.383843E-01	6.922668E-03
3.700406E+03	2.380264E-01	6.823321E-03
3.710300E+03	2.376957E-01	6.725236E-03
3.720194E+03	2.373797E-01	6.628023E-03
3.730088E+03	2.370650E-01	6.531301E-03
3.739982E+03	2.367394E-01	6.434735E-03
3.749876E+03	2.363785E-01	6.337683E-03
3.759770E+03	2.359946E-01	6.240524E-03
3.769665E+03	2.355643E-01	6.142675E-03
3.779559E+03	2.350757E-01	6.043897E-03
3.789453E+03	2.345184E-01	5.944006E-03
3.799347E+03	2.338815E-01	5.842825E-03
3.809241E+03	2.331549E-01	5.740212E-03
3.819135E+03	2.323293E-01	5.636068E-03
3.829029E+03	2.313958E-01	5.530314E-03
3.838924E+03	2.303468E-01	5.422923E-03
3.848818E+03	2.291759E-01	5.313905E-03
3.858712E+03	2.278784E-01	5.203322E-03
3.868606E+03	2.264509E-01	5.091277E-03
3.878500E+03	2.248922E-01	4.977926E-03
3.888394E+03	2.232025E-01	4.863461E-03
3.898288E+03	2.213846E-01	4.748133E-03
3.908182E+03	2.194428E-01	4.632215E-03
3.918077E+03	2.173829E-01	4.516017E-03
3.927971E+03	2.152128E-01	4.399878E-03
3.937865E+03	2.129326E-01	4.283973E-03
3.947759E+03	2.105623E-01	4.168870E-03
3.957653E+03	2.081215E-01	4.055105E-03
3.967547E+03	2.055975E-01	3.942568E-03
3.977441E+03	2.030284E-01	3.832123E-03
3.987336E+03	2.004111E-01	3.723824E-03
3.997230E+03	1.977591E-01	3.618029E-03
4.007124E+03	1.951003E-01	3.515339E-03
4.017018E+03	1.924239E-01	3.415636E-03
4.026912E+03	1.897552E-01	3.319445E-03
4.036806E+03	1.871033E-01	3.226977E-03
4.046700E+03	1.844622E-01	3.138181E-03
4.056594E+03	1.818526E-01	3.053455E-03
4.066489E+03	1.792739E-01	2.972822E-03
4.076383E+03	1.767327E-01	2.896418E-03
4.086277E+03	1.742361E-01	2.824377E-03
4.096171E+03	1.717921E-01	2.756838E-03
4.106065E+03	1.694100E-01	2.693947E-03
4.115959E+03	1.670948E-01	2.635772E-03
4.125853E+03	1.648640E-01	2.582566E-03
4.135748E+03	1.627297E-01	2.534486E-03
4.145642E+03	1.606990E-01	2.491601E-03
4.155536E+03	1.587839E-01	2.454046E-03
4.165430E+03	1.569949E-01	2.421929E-03
4.175324E+03	1.553450E-01	2.395360E-03
4.185218E+03	1.538295E-01	2.374063E-03
4.195112E+03	1.524599E-01	2.357995E-03
4.205006E+03	1.512245E-01	2.346763E-03
4.214901E+03	1.501168E-01	2.340067E-03
4.224795E+03	1.491348E-01	2.337684E-03
4.234689E+03	1.482487E-01	2.338969E-03
4.244583E+03	1.474470E-01	2.343559E-03
4.254477E+03	1.467004E-01	2.350816E-03
4.264371E+03	1.459812E-01	2.360119E-03
4.274265E+03	1.452650E-01	2.370893E-03
4.284159E+03	1.445294E-01	2.382590E-03
4.294054E+03	1.437662E-01	2.394886E-03
4.303948E+03	1.429483E-01	2.407144E-03
4.313842E+03	1.420721E-01	2.419110E-03
4.323736E+03	1.411255E-01	2.430389E-03
4.333630E+03	1.401084E-01	2.440792E-03
4.343524E+03	1.390134E-01	2.450010E-03
4.353418E+03	1.378488E-01	2.458016E-03
4.363313E+03	1.366225E-01	2.464789E-03
4.373207E+03	1.353415E-01	2.470307E-03
4.383101E+03	1.340218E-01	2.474730E-03
4.392995E+03	1.326732E-01	2.478123E-03
4.402889E+03	1.313093E-01	2.480642E-03
4.412783E+03	1.299463E-01	2.482510E-03
4.422677E+03	1.285893E-01	2.483759E-03
4.432571E+03	1.272522E-01	2.484603E-03
4.442466E+03	1.259435E-01	2.485170E-03
4.452360E+03	1.246706E-01	2.485578E-03
4.462254E+03	1.234364E-01	2.485865E-03
4.472148E+03	1.222460E-01	2.486121E-03
4.482042E+03	1.211066E-01	2.486487E-03
4.491936E+03	1.200186E-01	2.486976E-03
4.501830E+03	1.189852E-01	2.487656E-03
4.511725E+03	1.180089E-01	2.488593E-03
4.521619E+03	1.170949E-01	2.489906E-03
4.531513E+03	1.162396E-01	2.491539E-03
4.541407E+03	1.154451E-01	2.493548E-03
4.551301E+03	1.147183E-01	2.496105E-03
4.561195E+03	1.140553E-01	2.499144E-03
4.571089E+03	1.134600E-01	2.502770E-03
4.580983E+03	1.129334E-01	2.507028E-03
4.590878E+03	1.124737E-01	2.511896E-03
4.600772E+03	1.120816E-01	2.517408E-03
4.610666E+03	1.117597E-01	2.523644E-03
4.620560E+03	1.115056E-01	2.530564E-03
4.630454E+03	1.113213E-01	2.538230E-03
4.640348E+03	1.112036E-01	2.546583E-03
4.650242E+03	1.111515E-01	2.555609E-03
4.660137E+03	1.111633E-01	2.565280E-03
4.670031E+03	1.112392E-01	2.575610E-03
4.679925E+03	1.113744E-01	2.586488E-03
4.689819E+03	1.115657E-01	2.597844E-03
4.699713E+03	1.118093E-01	2.609589E-03
4.709607E+03	1.121031E-01	2.621672E-03
4.719501E+03	1.124373E-01	2.633858E-03
4.729395E+03	1.128107E-01	2.646115E-03
4.739290E+03	1.132168E-01	2.658279E-03
4.749184E+03	1.136436E-01	2.670060E-03
4.759078E+03	1.140878E-01	2.681371E-03
4.768972E+03	1.145386E-01	2.691946E-03
4.778866E+03	1.149893E-01	2.701619E-03
4.788760E+03	1.154260E-01	2.710050E-03
4.798654E+03	1.158438E-01	2.717123E-03
4.808549E+03	1.162336E-01	2.722612E-03
4.818443E+03	1.165842E-01	2.726259E-03
4.828337E+03	1.168880E-01	2.727881E-03
4.838231E+03	1.171405E-01	2.727380E-03
4.848125E+03	1.173365E-01	2.724643E-03
4.858019E+03	1.174696E-01	2.719537E-03
4.867913E+03	1.175378E-01	2.712030E-03
4.877807E+03	1.175427E-01	2.702183E-03
4.887702E+03	1.174854E-01	2.690043E-03
4.897596E+03	1.173684E-01	2.675698E-03
4.907490E+03	1.171957E-01	2.659270E-03
4.917384E+03	1.169703E-01	2.640858E-03
4.927278E+03	1.167005E-01	2.620686E-03
4.937172E+03	1.163931E-01	2.598937E-03
4.947066E+03	1.160547E-01	2.575798E-03
4.956961E+03	1.156924E-01	2.551456E-03
4.966855E+03	1.153129E-01	2.526093E-03
4.976749E+03	1.149229E-01	2.499887E-03
4.986643E+03	1.145288E-01	2.473008E-03
4.996537E+03	1.141390E-01	2.445663E-03
5.006431E+03	1.137550E-01	2.417910E-03
5.016325E+03	1.133867E-01	2.389984E-03
5.026219E+03	1.130371E-01	2.361971E-03
5.036114E+03	1.127113E-01	2.333995E-03
5.046008E+03	1.124140E-01	2.306168E-03
5.055902E+03	1.121515E-01	2.278638E-03
5.065796E+03	1.119258E-01	2.251455E-03
5.075690E+03	1.117426E-01	2.224744E-03
5.085584E+03	1.116027E-01	2.198531E-03
5.095478E+03	1.115086E-01	2.172875E-03
5.105373E+03	1.114642E-01	2.147856E-03
5.115267E+03	1.114683E-01	2.123463E-03
5.125161E+03	1.115232E-01	2.099744E-03
5.135055E+03	1.116262E-01	2.076661E-03
5.144949E+03	1.117781E-01	2.054241E-03
5.154843E+03	1.119748E-01	2.032425E-03
5.164737E+03	1.122158E-01	2.011226E-03
5.174631E+03	1.124964E-01	1.990582E-03
5.184526E+03	1.128155E-01	1.970507E-03
5.194420E+03	1.131698E-01	1.950979E-03
5.204314E+03	1.135540E-01	1.931949E-03
5.214208E+03	1.139646E-01	1.913409E-03
5.224102E+03	1.144002E-01	1.895392E-03
5.233996E+03	1.148571E-01	1.877898E-03
5.243890E+03	1.153290E-01	1.860897E-03
5.253785E+03	1.158134E-01	1.844429E-03
5.263679E+03	1.163032E-01	1.828466E-03
5.273573E+03	1.167947E-01	1.813047E-03
5.283467E+03	1.172794E-01	1.798140E-03
5.293361E+03	1.177520E-01	1.783778E-03
5.303255E+03	1.182043E-01	1.769952E-03
5.313149E+03	1.186249E-01	1.756615E-03
5.323043E+03	1.190053E-01	1.743773E-03
5.332938E+03	1.193343E-01	1.731392E-03
5.342832E+03	1.195953E-01	1.719369E-03
5.352726E+03	1.197831E-01	1.707762E-03
5.362620E+03	1.198829E-01	1.696492E-03
5.372514E+03	1.198932E-01	1.685659E-03
5.382408E+03	1.198217E-01	1.675481E-03
5.392302E+03	1.196777E-01	1.666178E-03
5.402196E+03	1.194758E-01	1.658008E-03
5.412091E+03	1.192264E-01	1.651059E-03
5.421985E+03	1.189437E-01	1.645425E-03
5.431879E+03	1.186384E-01	1.641148E-03
5.441773E+03	1.183205E-01	1.638245E-03
5.451667E+03	1.179961E-01	1.636684E-03
5.461561E+03	1.176750E-01	1.636471E-03
5.471455E+03	1.173636E-01	1.637573E-03
5.481350E+03	1.170674E-01	1.639945E-03
5.491244E+03	1.167912E-01	1.643532E-03
5.501138E+03	1.165391E-01	1.648277E-03
5.511032E+03	1.163129E-01	1.654091E-03
5.520926E+03	1.161200E-01	1.660974E-03
5.530820E+03	1.159593E-01	1.668810E-03
5.540714E+03	1.158381E-01	1.677606E-03
5.550608E+03	1.157571E-01	1.687283E-03
5.560503E+03	1.157192E-01	1.697800E-03
5.570397E+03	1.157272E-01	1.709119E-03
5.580291E+03	1.157840E-01	1.721210E-03
5.590185E+03	1.158923E-01	1.734045E-03
5.600079E+03	1.160569E-01	1.747634E-03
5.609973E+03	1.162782E-01	1.761923E-03
5.619867E+03	1.165605E-01	1.776924E-03
5.629762E+03	1.169037E-01	1.792583E-03
5.639656E+03	1.173090E-01	1.808873E-03
5.649550E+03	1.177797E-01	1.825793E-03
5.659444E+03	1.183161E-01	1.843308E-03
5.669338E+03	1.189157E-01	1.861336E-03
5.679232E+03	1.195799E-01	1.879853E-03
5.689126E+03	1.203049E-01	1.898758E-03
5.699020E+03	1.210902E-01	1.918003E-03
5.708915E+03	1.219330E-01	1.937498E-03
5.718809E+03	1.228273E-01	1.957103E-03
5.728703E+03	1.237730E-01	1.976776E-03
5.738597E+03	1.247609E-01	1.996324E-03
5.748491E+03	1.257881E-01	2.015653E-03
5.758385E+03	1.268491E-01	2.034632E-03
5.768279E+03	1.279385E-01	2.053126E-03
5.778174E+03	1.290508E-01	2.071004E-03
5.788068E+03	1.301808E-01	2.088137E-03
5.797962E+03	1.313237E-01	2.104403E-03
5.807856E+03	1.324750E-01	2.119690E-03
5.817750E+03	1.336311E-01	2.133898E-03
5.827644E+03	1.347891E-01	2.146945E-03
5.837538E+03	1.359472E-01	2.158762E-03
5.847432E+03	1.371048E-01	2.169308E-03
5.857327E+03	1.382652E-01	2.178603E-03
5.867221E+03	1.394256E-01	2.186575E-03
5.877115E+03	1.405954E-01	2.193342E-03
5.887009E+03	1.417778E-01	2.198929E-03
5.896903E+03	1.429805E-01	2.203429E-03
5.906797E+03	1.442130E-01	2.206961E-03
5.916691E+03	1.454862E-01	2.209669E-03
5.926586E+03	1.468154E-01	2.211753E-03
5.936480E+03	1.482089E-01	2.213305E-03
5.946374E+03	1.496868E-01	2.214590E-03
5.956268E+03	1.512615E-01	2.215750E-03
5.966162E+03	1.529486E-01	2.216965E-03
5.976056E+03	1.547662E-01	2.218447E-03
5.985950E+03	1.567236E-01	2.220267E-03
5.995844E+03	1.588403E-01	2.222639E-03
6.005739E+03	1.611257E-01	2.225624E-03
6.015633E+03	1.635897E-01	2.229288E-03
6.025527E+03	1.662395E-01	2.233658E-03
6.035421E+03	1.690815E-01	2.238748E-03
6.045315E+03	1.721077E-01	2.244394E-03
6.055209E+03	1.753170E-01	2.250531E-03
6.065103E+03	1.786912E-01	2.256899E-03
6.074998E+03	1.822065E-01	2.263196E-03
6.084892E+03	1.858319E-01	2.269076E-03
6.094786E+03	1.895140E-01	2.273971E-03
6.104680E+03	1.931989E-01	2.277385E-03
6.114574E+03	1.968069E-01	2.278596E-03
6.124468E+03	2.002448E-01	2.276831E-03
6.134362E+03	2.034020E-01	2.271235E-03
6.144256E+03	2.061554E-01	2.260936E-03
6.154151E+03	2.083601E-01	2.244951E-03
6.164045E+03	2.098653E-01	2.222369E-03
6.173939E+03	2.105196E-01	2.192380E-03
6.183833E+03	2.101831E-01	2.154383E-03
6.193727E+03	2.087500E-01	2.108167E-03
6.203621E+03	2.061625E-01	2.053986E-03
6.213515E+03	2.024768E-01	1.993138E-03
6.223410E+03	1.979434E-01	1.928658E-03
6.233304E+03	1.928842E-01	1.864019E-03
6.243198E+03	1.876352E-01	1.802609E-03
6.253092E+03	1.824898E-01	1.747224E-03
6.262986E+03	1.776855E-01	1.700029E-03
6.272880E+03	1.734067E-01	1.662644E-03
6.282774E+03	1.697826E-01	1.636101E-03
6.292668E+03	1.668978E-01	1.620869E-03
6.302563E+03	1.647948E-01	1.617089E-03
6.312457E+03	1.634832E-01	1.624685E-03
6.322351E+03	1.629549E-01	1.643514E-03
6.332245E+03	1.631930E-01	1.673430E-03
6.342139E+03	1.641672E-01	1.714228E-03
6.352033E+03	1.658498E-01	1.765786E-03
6.361927E+03	1.682072E-01	1.827961E-03
6.371822E+03	1.711987E-01	1.900566E-03
6.381716E+03	1.747899E-01	1.983486E-03
6.391610E+03	1.789237E-01	2.076351E-03
6.401504E+03	1.835571E-01	2.178926E-03
6.411398E+03	1.886221E-01	2.290648E-03
6.421292E+03	1.940542E-01	2.410930E-03
6.431186E+03	1.997781E-01	2.538988E-03
6.441080E+03	2.057124E-01	2.673871E-03
6.450975E+03	2.117708E-01	2.814470E-03
6.460869E+03	2.178640E-01	2.959523E-03
6.470763E+03	2.239000E-01	3.107631E-03
6.480657E+03	2.297861E-01	3.257260E-03
6.490551E+03	2.354292E-01	3.406763E-03
6.500445E+03	2.407375E-01	3.554400E-03
6.510339E+03	2.456270E-01	3.698439E-03
6.520234E+03	2.500044E-01	3.836909E-03
6.530128E+03	2.538046E-01	3.968182E-03
6.540022E+03	2.569647E-01	4.090602E-03
6.549916E+03	2.594265E-01	4.202526E-03
6.559810E+03	2.611682E-01	4.302874E-03
6.569704E+03	2.621738E-01	4.390657E-03
6.579598E+03	2.624369E-01	4.465056E-03
6.589492E+03	2.619760E-01	4.525703E-03
6.599387E+03	2.608114E-01	4.572314E-03
6.609281E+03	2.589799E-01	4.604946E-03
6.619175E+03	2.565381E-01	4.624084E-03
6.629069E+03	2.535285E-01	4.630035E-03
6.638963E+03	2.500143E-01	4.623566E-03
6.648857E+03	2.460517E-01	4.605392E-03
6.658751E+03	2.417136E-01	4.576625E-03
6.668645E+03	2.370526E-01	4.538076E-03
6.678540E+03	2.321355E-01	4.490890E-03
6.688434E+03	2.270217E-01	4.436147E-03
6.698328E+03	2.217632E-01	4.374839E-03
6.708222E+03	2.164222E-01	4.308212E-03
6.718116E+03	2.110424E-01	4.237200E-03
6.728010E+03	2.056633E-01	4.162684E-03
6.737904E+03	2.003326E-01	4.085745E-03
6.747799E+03	1.950797E-01	4.007120E-03
6.757693E+03	1.899334E-01	3.927555E-03
6.767587E+03	1.849143E-01	3.847632E-03
6.777481E+03	1.800500E-01	3.768092E-03
6.787375E+03	1.753522E-01	3.689350E-03
6.797269E+03	1.708328E-01	3.611826E-03
6.807163E+03	1.665039E-01	3.535941E-03
6.817057E+03	1.623640E-01	3.461819E-03
6.826952E+03	1.584196E-01	3.389754E-03
6.836846E+03	1.546747E-01	3.319975E-03
6.846740E+03	1.511248E-01	3.252516E-03
6.856634E+03	1.477635E-01	3.187370E-03
6.866528E+03	1.445929E-01	3.124698E-03
6.876422E+03	1.416042E-01	3.064414E-03
6.886316E+03	1.387910E-01	3.006476E-03
6.896211E+03	1.361487E-01	2.950873E-03
6.906105E+03	1.336636E-01	2.897388E-03
6.915999E+03	1.313302E-01	2.845971E-03
6.925893E+03	1.291426E-01	2.796557E-03
6.935787E+03	1.270862E-01	2.748887E-03
6.945681E+03	1.251575E-01	2.702936E-03
6.955575E+03	1.233447E-01	2.658494E-03
6.965469E+03	1.216362E-01	2.615350E-03
6.975364E+03	1.200285E-01	2.573467E-03
6.985258E+03	1.185076E-01	2.532579E-03
6.995152E+03	1.170680E-01	2.492596E-03
7.005046E+03	1.157014E-01	2.453375E-03
7.014940E+03	1.144003E-01	2.414780E-03
7.024834E+03	1.131571E-01	2.376684E-03
7.034728E+03	1.119652E-01	2.338971E-03
7.044623E+03	1.108156E-01	2.301485E-03
7.054517E+03	1.097051E-01	2.264184E-03
7.064411E+03	1.086282E-01	2.226990E-03
7.074305E+03	1.075779E-01	2.189789E-03
7.084199E+03	1.065525E-01	2.152579E-03
7.094093E+03	1.055484E-01	2.115322E-03
7.103987E+03	1.045602E-01	2.077947E-03
7.113881E+03	1.035852E-01	2.040443E-03
7.123776E+03	1.026237E-01	2.002854E-03
7.133670E+03	1.016715E-01	1.965143E-03
7.143564E+03	1.007294E-01	1.927371E-03
7.153458E+03	9.979384E-02	1.889518E-03
7.163352E+03	9.886388E-02	1.851617E-03
7.173246E+03	9.793871E-02	1.813705E-03
7.183140E+03	9.701763E-02	1.775826E-03
7.193035E+03	9.610226E-02	1.738067E-03
7.202929E+03	9.519004E-02	1.700442E-03
7.212823E+03	9.427855E-02	1.662972E-03
7.222717E+03	9.337180E-02	1.625795E-03
7.232611E+03	9.246548E-02	1.588906E-03
7.242505E+03	9.156366E-02	1.552447E-03
7.252399E+03	9.066232E-02	1.516426E-03
7.262293E+03	8.976365E-02	1.480961E-03
7.272188E+03	8.886792E-02	1.446138E-03
7.282082E+03	8.797359E-02	1.412019E-03
7.291976E+03	8.708325E-02	1.378735E-03
7.301870E+03	8.619772E-02	1.346391E-03
7.311764E+03	8.531797E-02	1.315097E-03
7.321658E+03	8.444340E-02	1.284941E-03
7.331552E+03	8.357740E-02	1.256075E-03
7.341447E+03	8.271981E-02	1.228596E-03
7.351341E+03	8.187263E-02	1.202635E-03
7.361235E+03	8.103980E-02	1.178351E-03
7.371129E+03	8.022357E-02	1.155876E-03
7.381023E+03	7.942266E-02	1.135287E-03
7.390917E+03	7.864490E-02	1.116791E-03
7.400811E+03	7.788734E-02	1.100434E-03
7.410705E+03	7.715590E-02	1.086381E-03
7.420600E+03	7.645113E-02	1.074717E-03
7.430494E+03	7.577533E-02	1.065539E-03
7.440388E+03	7.513237E-02	1.058959E-03
7.450282E+03	7.452263E-02	1.055029E-03
7.460176E+03	7.394806E-02	1.053812E-03
7.470070E+03	7.341045E-02	1.055327E-03
7.479964E+03	7.291143E-02	1.059525E-03
7.489859E+03	7.245406E-02	1.066370E-03
7.499753E+03	7.203619E-02	1.075743E-03
7.509647E+03	7.166188E-02	1.087622E-03
7.519541E+03	7.132980E-02	1.101902E-03
7.529435E+03	7.103963E-02	1.118497E-03
7.539329E+03	7.079020E-02	1.137313E-03
7.549223E+03	7.057932E-02	1.158242E-03
7.559117E+03	7.040345E-02	1.181156E-03
7.569012E+03	7.025745E-02	1.205902E-03
7.578906E+03	7.013408E-02	1.232289E-03
7.588800E+03	7.002407E-02	1.260085E-03
7.598694E+03	6.991615E-02	1.289008E-03
7.608588E+03	6.979766E-02	1.318739E-03
7.618482E+03	6.965555E-02	1.348928E-03
7.628376E+03	6.947787E-02	1.379229E-03
7.638271E+03	6.925889E-02	1.409398E-03
7.648165E+03	6.899996E-02	1.439333E-03
7.658059E+03	6.870297E-02	1.468945E-03
7.667953E+03	6.837552E-02	1.498278E-03
7.677847E+03	6.801899E-02	1.527255E-03
