#wls	flux	fluxerr
1.583061E+03	6.988806E-02	8.820478E-03
1.622638E+03	7.145460E-02	8.900488E-03
1.662214E+03	7.298449E-02	8.969145E-03
1.701791E+03	7.450055E-02	9.029302E-03
1.741367E+03	7.597718E-02	9.077879E-03
1.780944E+03	7.742936E-02	9.116762E-03
1.820520E+03	7.887601E-02	9.148193E-03
1.860097E+03	8.031335E-02	9.171700E-03
1.899673E+03	8.176864E-02	9.190326E-03
1.939250E+03	8.324673E-02	9.204451E-03
1.978827E+03	8.478483E-02	9.217937E-03
2.018403E+03	8.639728E-02	9.231931E-03
2.057980E+03	8.814494E-02	9.252354E-03
2.097556E+03	9.006350E-02	9.282067E-03
2.137133E+03	9.215942E-02	9.320698E-03
2.176709E+03	9.451356E-02	9.375196E-03
2.216286E+03	9.715108E-02	9.446441E-03
2.255862E+03	1.000971E-01	9.535082E-03
2.295439E+03	1.034356E-01	9.647031E-03
2.335015E+03	1.071551E-01	9.778802E-03
2.374592E+03	1.113426E-01	9.935748E-03
2.414168E+03	1.160449E-01	1.011901E-02
2.453745E+03	1.212995E-01	1.032852E-02
2.493321E+03	1.271870E-01	1.056749E-02
2.532898E+03	1.337787E-01	1.083770E-02
2.572475E+03	1.411675E-01	1.114204E-02
2.612051E+03	1.494385E-01	1.148203E-02
2.651628E+03	1.585758E-01	1.185095E-02
2.691204E+03	1.686186E-01	1.224628E-02
2.730781E+03	1.795062E-01	1.265818E-02
2.770357E+03	1.911357E-01	1.307449E-02
2.809934E+03	2.033605E-01	1.348108E-02
2.849510E+03	2.160402E-01	1.386564E-02
2.889087E+03	2.289125E-01	1.420964E-02
2.928663E+03	2.417472E-01	1.449890E-02
2.968240E+03	2.542185E-01	1.471584E-02
2.978134E+03	2.572483E-01	1.475740E-02
2.988028E+03	2.602051E-01	1.479189E-02
2.997922E+03	2.631411E-01	1.482240E-02
3.007816E+03	2.659916E-01	1.484536E-02
3.017710E+03	2.687796E-01	1.486222E-02
3.027605E+03	2.714994E-01	1.487278E-02
3.037499E+03	2.741444E-01	1.487681E-02
3.047393E+03	2.766789E-01	1.487254E-02
3.057287E+03	2.791563E-01	1.486302E-02
3.067181E+03	2.815410E-01	1.484647E-02
3.077075E+03	2.837966E-01	1.482119E-02
3.086969E+03	2.859473E-01	1.478864E-02
3.096864E+03	2.880179E-01	1.475029E-02
3.106758E+03	2.899423E-01	1.470294E-02
3.116652E+03	2.917454E-01	1.464810E-02
3.126546E+03	2.934526E-01	1.458724E-02
3.136440E+03	2.949983E-01	1.451732E-02
3.146334E+03	2.964086E-01	1.443988E-02
3.156228E+03	2.976793E-01	1.435497E-02
3.166122E+03	2.988364E-01	1.426406E-02
3.176017E+03	2.998169E-01	1.416437E-02
3.185911E+03	3.006770E-01	1.405884E-02
3.195805E+03	3.013555E-01	1.394484E-02
3.205699E+03	3.019089E-01	1.382525E-02
3.215593E+03	3.023066E-01	1.369892E-02
3.225487E+03	3.025471E-01	1.356603E-02
3.235381E+03	3.026304E-01	1.342683E-02
3.245276E+03	3.025564E-01	1.328158E-02
3.255170E+03	3.023261E-01	1.313058E-02
3.265064E+03	3.019682E-01	1.297532E-02
3.274958E+03	3.014567E-01	1.281489E-02
3.284852E+03	3.007937E-01	1.264962E-02
3.294746E+03	2.999826E-01	1.247990E-02
3.304640E+03	2.990535E-01	1.230718E-02
3.314534E+03	2.979568E-01	1.212964E-02
3.324429E+03	2.967507E-01	1.194986E-02
3.334323E+03	2.954395E-01	1.176819E-02
3.344217E+03	2.939768E-01	1.158295E-02
3.354111E+03	2.924205E-01	1.139661E-02
3.364005E+03	2.907513E-01	1.120857E-02
3.373899E+03	2.890012E-01	1.102021E-02
3.383793E+03	2.871519E-01	1.083095E-02
3.393688E+03	2.852121E-01	1.064123E-02
3.403582E+03	2.832131E-01	1.045235E-02
3.413476E+03	2.811386E-01	1.026378E-02
3.423370E+03	2.789970E-01	1.007591E-02
3.433264E+03	2.768184E-01	9.889911E-03
3.443158E+03	2.745874E-01	9.705250E-03
3.453052E+03	2.723337E-01	9.522959E-03
3.462946E+03	2.700450E-01	9.342545E-03
3.472841E+03	2.677539E-01	9.165080E-03
3.482735E+03	2.654524E-01	8.990212E-03
3.492629E+03	2.631740E-01	8.818985E-03
3.502523E+03	2.609105E-01	8.651023E-03
3.512417E+03	2.586942E-01	8.487288E-03
3.522311E+03	2.565348E-01	8.327973E-03
3.532205E+03	2.544046E-01	8.172053E-03
3.542100E+03	2.523696E-01	8.021523E-03
3.551994E+03	2.503993E-01	7.875259E-03
3.561888E+03	2.485010E-01	7.733356E-03
3.571782E+03	2.467161E-01	7.596959E-03
3.581676E+03	2.449956E-01	7.464399E-03
3.591570E+03	2.433954E-01	7.337248E-03
3.601464E+03	2.418828E-01	7.214355E-03
3.611358E+03	2.404592E-01	7.095631E-03
3.621253E+03	2.391571E-01	6.981894E-03
3.631147E+03	2.379411E-01	6.871961E-03
3.641041E+03	2.368084E-01	6.765629E-03
3.650935E+03	2.357695E-01	6.663083E-03
3.660829E+03	2.348177E-01	6.564011E-03
3.670723E+03	2.339446E-01	6.468068E-03
3.680617E+03	2.331262E-01	6.374501E-03
3.690512E+03	2.323673E-01	6.283363E-03
3.700406E+03	2.316436E-01	6.193923E-03
3.710300E+03	2.309585E-01	6.106224E-03
3.720194E+03	2.303018E-01	6.019943E-03
3.730088E+03	2.296620E-01	5.934748E-03
3.739982E+03	2.290148E-01	5.849989E-03
3.749876E+03	2.283636E-01	5.765754E-03
3.759770E+03	2.276848E-01	5.681450E-03
3.769665E+03	2.269955E-01	5.597527E-03
3.779559E+03	2.262457E-01	5.512774E-03
3.789453E+03	2.254659E-01	5.427986E-03
3.799347E+03	2.246205E-01	5.342355E-03
3.809241E+03	2.237139E-01	5.256051E-03
3.819135E+03	2.227249E-01	5.168655E-03
3.829029E+03	2.216585E-01	5.080374E-03
3.838924E+03	2.205083E-01	4.991151E-03
3.848818E+03	2.192561E-01	4.900683E-03
3.858712E+03	2.179100E-01	4.809268E-03
3.868606E+03	2.164548E-01	4.716689E-03
3.878500E+03	2.149017E-01	4.623313E-03
3.888394E+03	2.132500E-01	4.529256E-03
3.898288E+03	2.114909E-01	4.434456E-03
3.908182E+03	2.096278E-01	4.339122E-03
3.918077E+03	2.076770E-01	4.243722E-03
3.927971E+03	2.056343E-01	4.148292E-03
3.937865E+03	2.035179E-01	4.053325E-03
3.947759E+03	2.013262E-01	3.958905E-03
3.957653E+03	1.990789E-01	3.865530E-03
3.967547E+03	1.967764E-01	3.773307E-03
3.977441E+03	1.944294E-01	3.682541E-03
3.987336E+03	1.920487E-01	3.593529E-03
3.997230E+03	1.896543E-01	3.506721E-03
4.007124E+03	1.872470E-01	3.422203E-03
4.017018E+03	1.848364E-01	3.340218E-03
4.026912E+03	1.824312E-01	3.260981E-03
4.036806E+03	1.800474E-01	3.184825E-03
4.046700E+03	1.776751E-01	3.111619E-03
4.056594E+03	1.753286E-01	3.041655E-03
4.066489E+03	1.730211E-01	2.975192E-03
4.076383E+03	1.707424E-01	2.912078E-03
4.086277E+03	1.685061E-01	2.852567E-03
4.096171E+03	1.663184E-01	2.796776E-03
4.106065E+03	1.641861E-01	2.744822E-03
4.115959E+03	1.621167E-01	2.696829E-03
4.125853E+03	1.601114E-01	2.652807E-03
4.135748E+03	1.581854E-01	2.612993E-03
4.145642E+03	1.563468E-01	2.577495E-03
4.155536E+03	1.545965E-01	2.546303E-03
4.165430E+03	1.529408E-01	2.519482E-03
4.175324E+03	1.513903E-01	2.497076E-03
4.185218E+03	1.499467E-01	2.478929E-03
4.195112E+03	1.486032E-01	2.464748E-03
4.205006E+03	1.473500E-01	2.454199E-03
4.214901E+03	1.461976E-01	2.447290E-03
4.224795E+03	1.451179E-01	2.443392E-03
4.234689E+03	1.441026E-01	2.442208E-03
4.244583E+03	1.431397E-01	2.443383E-03
4.254477E+03	1.421982E-01	2.446236E-03
4.264371E+03	1.412623E-01	2.450337E-03
4.274265E+03	1.403189E-01	2.455307E-03
4.284159E+03	1.393447E-01	2.460577E-03
4.294054E+03	1.383290E-01	2.465796E-03
4.303948E+03	1.372678E-01	2.470733E-03
4.313842E+03	1.361542E-01	2.475106E-03
4.323736E+03	1.349846E-01	2.478692E-03
4.333630E+03	1.337534E-01	2.481239E-03
4.343524E+03	1.324632E-01	2.482647E-03
4.353418E+03	1.311240E-01	2.482969E-03
4.363313E+03	1.297388E-01	2.482138E-03
4.373207E+03	1.283172E-01	2.480220E-03
4.383101E+03	1.268698E-01	2.477320E-03
4.392995E+03	1.254122E-01	2.473654E-03
4.402889E+03	1.239467E-01	2.469198E-03
4.412783E+03	1.224924E-01	2.464267E-03
4.422677E+03	1.210505E-01	2.458842E-03
4.432571E+03	1.196338E-01	2.453139E-03
4.442466E+03	1.182531E-01	2.447359E-03
4.452360E+03	1.169067E-01	2.441445E-03
4.462254E+03	1.155996E-01	2.435491E-03
4.472148E+03	1.143436E-01	2.429740E-03
4.482042E+03	1.131348E-01	2.424112E-03
4.491936E+03	1.119764E-01	2.418677E-03
4.501830E+03	1.108745E-01	2.413579E-03
4.511725E+03	1.098314E-01	2.408880E-03
4.521619E+03	1.088456E-01	2.404559E-03
4.531513E+03	1.079188E-01	2.400673E-03
4.541407E+03	1.070559E-01	2.397349E-03
4.551301E+03	1.062548E-01	2.394557E-03
4.561195E+03	1.055199E-01	2.392417E-03
4.571089E+03	1.048455E-01	2.390819E-03
4.580983E+03	1.042388E-01	2.389945E-03
4.590878E+03	1.036969E-01	2.389749E-03
4.600772E+03	1.032199E-01	2.390252E-03
4.610666E+03	1.028111E-01	2.391544E-03
4.620560E+03	1.024637E-01	2.393487E-03
4.630454E+03	1.021804E-01	2.396152E-03
4.640348E+03	1.019632E-01	2.399603E-03
4.650242E+03	1.018048E-01	2.403676E-03
4.660137E+03	1.017098E-01	2.408487E-03
4.670031E+03	1.016732E-01	2.413923E-03
4.679925E+03	1.016896E-01	2.419864E-03
4.689819E+03	1.017594E-01	2.426317E-03
4.699713E+03	1.018824E-01	2.433276E-03
4.709607E+03	1.020490E-01	2.440513E-03
4.719501E+03	1.022581E-01	2.447995E-03
4.729395E+03	1.025051E-01	2.455608E-03
4.739290E+03	1.027849E-01	2.463222E-03
4.749184E+03	1.030919E-01	2.470694E-03
4.759078E+03	1.034201E-01	2.477873E-03
4.768972E+03	1.037604E-01	2.484526E-03
4.778866E+03	1.041117E-01	2.490625E-03
4.788760E+03	1.044613E-01	2.495856E-03
4.798654E+03	1.048054E-01	2.500118E-03
4.808549E+03	1.051370E-01	2.503240E-03
4.818443E+03	1.054497E-01	2.505068E-03
4.828337E+03	1.057378E-01	2.505463E-03
4.838231E+03	1.059963E-01	2.504311E-03
4.848125E+03	1.062184E-01	2.501452E-03
4.858019E+03	1.064068E-01	2.496963E-03
4.867913E+03	1.065541E-01	2.490676E-03
4.877807E+03	1.066623E-01	2.482657E-03
4.887702E+03	1.067350E-01	2.473001E-03
4.897596E+03	1.067679E-01	2.461629E-03
4.907490E+03	1.067666E-01	2.448691E-03
4.917384E+03	1.067347E-01	2.434291E-03
4.927278E+03	1.066765E-01	2.418547E-03
4.937172E+03	1.065966E-01	2.401590E-03
4.947066E+03	1.064972E-01	2.383490E-03
4.956961E+03	1.063888E-01	2.364504E-03
4.966855E+03	1.062736E-01	2.344700E-03
4.976749E+03	1.061564E-01	2.324207E-03
4.986643E+03	1.060421E-01	2.303149E-03
4.996537E+03	1.059354E-01	2.281644E-03
5.006431E+03	1.058408E-01	2.259806E-03
5.016325E+03	1.057599E-01	2.237683E-03
5.026219E+03	1.057024E-01	2.215490E-03
5.036114E+03	1.056722E-01	2.193319E-03
5.046008E+03	1.056676E-01	2.171143E-03
5.055902E+03	1.056947E-01	2.149095E-03
5.065796E+03	1.057596E-01	2.127302E-03
5.075690E+03	1.058598E-01	2.105717E-03
5.085584E+03	1.060031E-01	2.084501E-03
5.095478E+03	1.061888E-01	2.063640E-03
5.105373E+03	1.064185E-01	2.043166E-03
5.115267E+03	1.066930E-01	2.023097E-03
5.125161E+03	1.070123E-01	2.003440E-03
5.135055E+03	1.073786E-01	1.984241E-03
5.144949E+03	1.077854E-01	1.965387E-03
5.154843E+03	1.082361E-01	1.946957E-03
5.164737E+03	1.087257E-01	1.928875E-03
5.174631E+03	1.092542E-01	1.911163E-03
5.184526E+03	1.098155E-01	1.893746E-03
5.194420E+03	1.104035E-01	1.876553E-03
5.204314E+03	1.110225E-01	1.859705E-03
5.214208E+03	1.116603E-01	1.843045E-03
5.224102E+03	1.123182E-01	1.826655E-03
5.233996E+03	1.129884E-01	1.810481E-03
5.243890E+03	1.136658E-01	1.794517E-03
5.253785E+03	1.143472E-01	1.778805E-03
5.263679E+03	1.150233E-01	1.763295E-03
5.273573E+03	1.156893E-01	1.748028E-03
5.283467E+03	1.163314E-01	1.732913E-03
5.293361E+03	1.169460E-01	1.718030E-03
5.303255E+03	1.175230E-01	1.703370E-03
5.313149E+03	1.180482E-01	1.688877E-03
5.323043E+03	1.185095E-01	1.674535E-03
5.332938E+03	1.188968E-01	1.660362E-03
5.342832E+03	1.191933E-01	1.646294E-03
5.352726E+03	1.193855E-01	1.632308E-03
5.362620E+03	1.194649E-01	1.618448E-03
5.372514E+03	1.194283E-01	1.604823E-03
5.382408E+03	1.192825E-01	1.591658E-03
5.392302E+03	1.190419E-01	1.579262E-03
5.402196E+03	1.187251E-01	1.567968E-03
5.412091E+03	1.183444E-01	1.557971E-03
5.421985E+03	1.179167E-01	1.549404E-03
5.431879E+03	1.174553E-01	1.542315E-03
5.441773E+03	1.169688E-01	1.536689E-03
5.451667E+03	1.164708E-01	1.532561E-03
5.461561E+03	1.159677E-01	1.529871E-03
5.471455E+03	1.154705E-01	1.528618E-03
5.481350E+03	1.149837E-01	1.528716E-03
5.491244E+03	1.145163E-01	1.530146E-03
5.501138E+03	1.140739E-01	1.532843E-03
5.511032E+03	1.136586E-01	1.536706E-03
5.520926E+03	1.132803E-01	1.541744E-03
5.530820E+03	1.129346E-01	1.547781E-03
5.540714E+03	1.126333E-01	1.554870E-03
5.550608E+03	1.123743E-01	1.562879E-03
5.560503E+03	1.121633E-01	1.571795E-03
5.570397E+03	1.120033E-01	1.581574E-03
5.580291E+03	1.118972E-01	1.592175E-03
5.590185E+03	1.118447E-01	1.603524E-03
5.600079E+03	1.118539E-01	1.615668E-03
5.609973E+03	1.119214E-01	1.628500E-03
5.619867E+03	1.120521E-01	1.642032E-03
5.629762E+03	1.122476E-01	1.656238E-03
5.639656E+03	1.125094E-01	1.671089E-03
5.649550E+03	1.128384E-01	1.686556E-03
5.659444E+03	1.132324E-01	1.702560E-03
5.669338E+03	1.136970E-01	1.719147E-03
5.679232E+03	1.142293E-01	1.736230E-03
5.689126E+03	1.148282E-01	1.753755E-03
5.699020E+03	1.154896E-01	1.771618E-03
5.708915E+03	1.162173E-01	1.789838E-03
5.718809E+03	1.170063E-01	1.808298E-03
5.728703E+03	1.178539E-01	1.826914E-03
5.738597E+03	1.187571E-01	1.845598E-03
5.748491E+03	1.197129E-01	1.864259E-03
5.758385E+03	1.207208E-01	1.882849E-03
5.768279E+03	1.217717E-01	1.901178E-03
5.778174E+03	1.228684E-01	1.919246E-03
5.788068E+03	1.240049E-01	1.936914E-03
5.797962E+03	1.251785E-01	1.954094E-03
5.807856E+03	1.263869E-01	1.970702E-03
5.817750E+03	1.276283E-01	1.986666E-03
5.827644E+03	1.289047E-01	2.001970E-03
5.837538E+03	1.302125E-01	2.016514E-03
5.847432E+03	1.315521E-01	2.030260E-03
5.857327E+03	1.329283E-01	2.043236E-03
5.867221E+03	1.343404E-01	2.055387E-03
5.877115E+03	1.357923E-01	2.066729E-03
5.887009E+03	1.372890E-01	2.077293E-03
5.896903E+03	1.388405E-01	2.087184E-03
5.906797E+03	1.404511E-01	2.096419E-03
5.916691E+03	1.421332E-01	2.105134E-03
5.926586E+03	1.438932E-01	2.113370E-03
5.936480E+03	1.457418E-01	2.121229E-03
5.946374E+03	1.476903E-01	2.128816E-03
5.956268E+03	1.497542E-01	2.136288E-03
5.966162E+03	1.519452E-01	2.143743E-03
5.976056E+03	1.542711E-01	2.151215E-03
5.985950E+03	1.567425E-01	2.158773E-03
5.995844E+03	1.593728E-01	2.166520E-03
6.005739E+03	1.621661E-01	2.174426E-03
6.015633E+03	1.651318E-01	2.182535E-03
6.025527E+03	1.682686E-01	2.190745E-03
6.035421E+03	1.715794E-01	2.199022E-03
6.045315E+03	1.750540E-01	2.207170E-03
6.055209E+03	1.786805E-01	2.214997E-03
6.065103E+03	1.824494E-01	2.222365E-03
6.074998E+03	1.863201E-01	2.228791E-03
6.084892E+03	1.902653E-01	2.234013E-03
6.094786E+03	1.942379E-01	2.237587E-03
6.104680E+03	1.981736E-01	2.238954E-03
6.114574E+03	2.020049E-01	2.237610E-03
6.124468E+03	2.056460E-01	2.232953E-03
6.134362E+03	2.089865E-01	2.224234E-03
6.144256E+03	2.119305E-01	2.210990E-03
6.154151E+03	2.143460E-01	2.192503E-03
6.164045E+03	2.161113E-01	2.168296E-03
6.173939E+03	2.170955E-01	2.137903E-03
6.183833E+03	2.171896E-01	2.101163E-03
6.193727E+03	2.163032E-01	2.058131E-03
6.203621E+03	2.143865E-01	2.009236E-03
6.213515E+03	2.114904E-01	1.955766E-03
6.223410E+03	2.078055E-01	1.900132E-03
6.233304E+03	2.035899E-01	1.845136E-03
6.243198E+03	1.991206E-01	1.793529E-03
6.253092E+03	1.946472E-01	1.747637E-03
6.262986E+03	1.903789E-01	1.709304E-03
6.272880E+03	1.864934E-01	1.680019E-03
6.282774E+03	1.831184E-01	1.660649E-03
6.292668E+03	1.803422E-01	1.651564E-03
6.302563E+03	1.782132E-01	1.652857E-03
6.312457E+03	1.767626E-01	1.664561E-03
6.322351E+03	1.759810E-01	1.686422E-03
6.332245E+03	1.758598E-01	1.718283E-03
6.342139E+03	1.763731E-01	1.759888E-03
6.352033E+03	1.775038E-01	1.811126E-03
6.361927E+03	1.792119E-01	1.871700E-03
6.371822E+03	1.814717E-01	1.941489E-03
6.381716E+03	1.842343E-01	2.020136E-03
6.391610E+03	1.874592E-01	2.107368E-03
6.401504E+03	1.910951E-01	2.202774E-03
6.411398E+03	1.950843E-01	2.305834E-03
6.421292E+03	1.993635E-01	2.415903E-03
6.431186E+03	2.038642E-01	2.532214E-03
6.441080E+03	2.085137E-01	2.653867E-03
6.450975E+03	2.132370E-01	2.779842E-03
6.460869E+03	2.179577E-01	2.909018E-03
6.470763E+03	2.225993E-01	3.040171E-03
6.480657E+03	2.270919E-01	3.172078E-03
6.490551E+03	2.313485E-01	3.303184E-03
6.500445E+03	2.353025E-01	3.432129E-03
6.510339E+03	2.388907E-01	3.557525E-03
6.520234E+03	2.420353E-01	3.677693E-03
6.530128E+03	2.446914E-01	3.791381E-03
6.540022E+03	2.468048E-01	3.897149E-03
6.549916E+03	2.483404E-01	3.993817E-03
6.559810E+03	2.492761E-01	4.080398E-03
6.569704E+03	2.496087E-01	4.156214E-03
6.579598E+03	2.493264E-01	4.220462E-03
6.589492E+03	2.484548E-01	4.272997E-03
6.599387E+03	2.470155E-01	4.313661E-03
6.609281E+03	2.450253E-01	4.342253E-03
6.619175E+03	2.425347E-01	4.359230E-03
6.629069E+03	2.395794E-01	4.364856E-03
6.638963E+03	2.362058E-01	4.359651E-03
6.648857E+03	2.324692E-01	4.344373E-03
6.658751E+03	2.284134E-01	4.319633E-03
6.668645E+03	2.240949E-01	4.286348E-03
6.678540E+03	2.195513E-01	4.245133E-03
6.688434E+03	2.148433E-01	4.197108E-03
6.698328E+03	2.100170E-01	4.143163E-03
6.708222E+03	2.051104E-01	4.084072E-03
6.718116E+03	2.001640E-01	4.020702E-03
6.728010E+03	1.952204E-01	3.953995E-03
6.737904E+03	1.903073E-01	3.884619E-03
6.747799E+03	1.854539E-01	3.813301E-03
6.757693E+03	1.806909E-01	3.740807E-03
6.767587E+03	1.760395E-01	3.667729E-03
6.777481E+03	1.715078E-01	3.594391E-03
6.787375E+03	1.671248E-01	3.521557E-03
6.797269E+03	1.628877E-01	3.449325E-03
6.807163E+03	1.588144E-01	3.378228E-03
6.817057E+03	1.549106E-01	3.308538E-03
6.826952E+03	1.511755E-01	3.240383E-03
6.836846E+03	1.476110E-01	3.173938E-03
6.846740E+03	1.442211E-01	3.109421E-03
6.856634E+03	1.410002E-01	3.046829E-03
6.866528E+03	1.379493E-01	2.986297E-03
6.876422E+03	1.350604E-01	2.927756E-03
6.886316E+03	1.323288E-01	2.871197E-03
6.896211E+03	1.297525E-01	2.816664E-03
6.906105E+03	1.273251E-01	2.764096E-03
6.915999E+03	1.250363E-01	2.713337E-03
6.925893E+03	1.228790E-01	2.664300E-03
6.935787E+03	1.208461E-01	2.616883E-03
6.945681E+03	1.189334E-01	2.571050E-03
6.955575E+03	1.171302E-01	2.526611E-03
6.965469E+03	1.154322E-01	2.483518E-03
6.975364E+03	1.138288E-01	2.441574E-03
6.985258E+03	1.123128E-01	2.400660E-03
6.995152E+03	1.108802E-01	2.360723E-03
7.005046E+03	1.095212E-01	2.321578E-03
7.014940E+03	1.082291E-01	2.283112E-03
7.024834E+03	1.070008E-01	2.245282E-03
7.034728E+03	1.058271E-01	2.207924E-03
7.044623E+03	1.047028E-01	2.170946E-03
7.054517E+03	1.036225E-01	2.134269E-03
7.064411E+03	1.025816E-01	2.097820E-03
7.074305E+03	1.015788E-01	2.061597E-03
7.084199E+03	1.006074E-01	2.025490E-03
7.094093E+03	9.966389E-02	1.989459E-03
7.103987E+03	9.874534E-02	1.953475E-03
7.113881E+03	9.785203E-02	1.917572E-03
7.123776E+03	9.697593E-02	1.881627E-03
7.133670E+03	9.612077E-02	1.845747E-03
7.143564E+03	9.527916E-02	1.809827E-03
7.153458E+03	9.445517E-02	1.773984E-03
7.163352E+03	9.364470E-02	1.738179E-03
7.173246E+03	9.284659E-02	1.702436E-03
7.183140E+03	9.205714E-02	1.666733E-03
7.193035E+03	9.128088E-02	1.631202E-03
7.202929E+03	9.051438E-02	1.595831E-03
7.212823E+03	8.975439E-02	1.560620E-03
7.222717E+03	8.900563E-02	1.525708E-03
7.232611E+03	8.826251E-02	1.491063E-03
7.242505E+03	8.752987E-02	1.456830E-03
7.252399E+03	8.680240E-02	1.422993E-03
7.262293E+03	8.608256E-02	1.389665E-03
7.272188E+03	8.537042E-02	1.356927E-03
7.282082E+03	8.466366E-02	1.324826E-03
7.291976E+03	8.396761E-02	1.293534E-03
7.301870E+03	8.327784E-02	1.263074E-03
7.311764E+03	8.259752E-02	1.233594E-03
7.321658E+03	8.192757E-02	1.205210E-03
7.331552E+03	8.126665E-02	1.178010E-03
7.341447E+03	8.061853E-02	1.152160E-03
7.351341E+03	7.998461E-02	1.127794E-03
7.361235E+03	7.936420E-02	1.105023E-03
7.371129E+03	7.876136E-02	1.084022E-03
7.381023E+03	7.817786E-02	1.064936E-03
7.390917E+03	7.761329E-02	1.047880E-03
7.400811E+03	7.707177E-02	1.033028E-03
7.410705E+03	7.655275E-02	1.020487E-03
7.420600E+03	7.606022E-02	1.010417E-03
7.430494E+03	7.559576E-02	1.002940E-03
7.440388E+03	7.515855E-02	9.981351E-04
7.450282E+03	7.474995E-02	9.960972E-04
7.460176E+03	7.437327E-02	9.969352E-04
7.470070E+03	7.402939E-02	1.000692E-03
7.479964E+03	7.371670E-02	1.007295E-03
7.489859E+03	7.343552E-02	1.016671E-03
7.499753E+03	7.318799E-02	1.028762E-03
7.509647E+03	7.297364E-02	1.043473E-03
7.519541E+03	7.278698E-02	1.060629E-03
7.529435E+03	7.263281E-02	1.080204E-03
7.539329E+03	7.250189E-02	1.101964E-03
7.549223E+03	7.239499E-02	1.125823E-03
7.559117E+03	7.230497E-02	1.151574E-03
7.569012E+03	7.222762E-02	1.179052E-03
7.578906E+03	7.215233E-02	1.207983E-03
7.588800E+03	7.206842E-02	1.238080E-03
7.598694E+03	7.196558E-02	1.269047E-03
7.608588E+03	7.182780E-02	1.300472E-03
7.618482E+03	7.164095E-02	1.331949E-03
7.628376E+03	7.139509E-02	1.363128E-03
7.638271E+03	7.108358E-02	1.393703E-03
7.648165E+03	7.071030E-02	1.423572E-03
7.658059E+03	7.028409E-02	1.452740E-03
7.667953E+03	6.980818E-02	1.481118E-03
7.677847E+03	6.929644E-02	1.508858E-03
