#wls	flux	fluxerr
1.583061E+03	6.973675E-02	8.972438E-03
1.622638E+03	7.126661E-02	9.051984E-03
1.662214E+03	7.274927E-02	9.118908E-03
1.701791E+03	7.422099E-02	9.177834E-03
1.741367E+03	7.565787E-02	9.225823E-03
1.780944E+03	7.706331E-02	9.263378E-03
1.820520E+03	7.847027E-02	9.294497E-03
1.860097E+03	7.987629E-02	9.318816E-03
1.899673E+03	8.129576E-02	9.337930E-03
1.939250E+03	8.274722E-02	9.353802E-03
1.978827E+03	8.426740E-02	9.370289E-03
2.018403E+03	8.586977E-02	9.388432E-03
2.057980E+03	8.759917E-02	9.412543E-03
2.097556E+03	8.948928E-02	9.445410E-03
2.137133E+03	9.156030E-02	9.488166E-03
2.176709E+03	9.387790E-02	9.546401E-03
2.216286E+03	9.646629E-02	9.621042E-03
2.255862E+03	9.938058E-02	9.715812E-03
2.295439E+03	1.026440E-01	9.830929E-03
2.335015E+03	1.063261E-01	9.970750E-03
2.374592E+03	1.104362E-01	1.013350E-02
2.414168E+03	1.150536E-01	1.032362E-02
2.453745E+03	1.202151E-01	1.054116E-02
2.493321E+03	1.259984E-01	1.078934E-02
2.532898E+03	1.324692E-01	1.106976E-02
2.572475E+03	1.397125E-01	1.138505E-02
2.612051E+03	1.477638E-01	1.173320E-02
2.651628E+03	1.566657E-01	1.211250E-02
2.691204E+03	1.664235E-01	1.251814E-02
2.730781E+03	1.769625E-01	1.293945E-02
2.770357E+03	1.882135E-01	1.336686E-02
2.809934E+03	2.000456E-01	1.378722E-02
2.849510E+03	2.123127E-01	1.418761E-02
2.889087E+03	2.247747E-01	1.455045E-02
2.928663E+03	2.372603E-01	1.486467E-02
2.968240E+03	2.494229E-01	1.511026E-02
2.978134E+03	2.523683E-01	1.515863E-02
2.988028E+03	2.552827E-01	1.520238E-02
2.997922E+03	2.581616E-01	1.524131E-02
3.007816E+03	2.609688E-01	1.527340E-02
3.017710E+03	2.637298E-01	1.530024E-02
3.027605E+03	2.664082E-01	1.531986E-02
3.037499E+03	2.690292E-01	1.533384E-02
3.047393E+03	2.715877E-01	1.534200E-02
3.057287E+03	2.740471E-01	1.534245E-02
3.067181E+03	2.764336E-01	1.533678E-02
3.077075E+03	2.787415E-01	1.532486E-02
3.086969E+03	2.809345E-01	1.530484E-02
3.096864E+03	2.830391E-01	1.527837E-02
3.106758E+03	2.850189E-01	1.524367E-02
3.116652E+03	2.869318E-01	1.520402E-02
3.126546E+03	2.887108E-01	1.515605E-02
3.136440E+03	2.903513E-01	1.509975E-02
3.146334E+03	2.918806E-01	1.503678E-02
3.156228E+03	2.932950E-01	1.496713E-02
3.166122E+03	2.945911E-01	1.489085E-02
3.176017E+03	2.957651E-01	1.480796E-02
3.185911E+03	2.967827E-01	1.471697E-02
3.195805E+03	2.976731E-01	1.461958E-02
3.205699E+03	2.984023E-01	1.451436E-02
3.215593E+03	2.989998E-01	1.440299E-02
3.225487E+03	2.994945E-01	1.428708E-02
3.235381E+03	2.997931E-01	1.416241E-02
3.245276E+03	2.999866E-01	1.403353E-02
3.255170E+03	3.000139E-01	1.389781E-02
3.265064E+03	2.999350E-01	1.375825E-02
3.274958E+03	2.996902E-01	1.361233E-02
3.284852E+03	2.992806E-01	1.346036E-02
3.294746E+03	2.987670E-01	1.330529E-02
3.304640E+03	2.980914E-01	1.314474E-02
3.314534E+03	2.972854E-01	1.298033E-02
3.324429E+03	2.963514E-01	1.281237E-02
3.334323E+03	2.952919E-01	1.264114E-02
3.344217E+03	2.941098E-01	1.246697E-02
3.354111E+03	2.927806E-01	1.228900E-02
3.364005E+03	2.913360E-01	1.210875E-02
3.373899E+03	2.897798E-01	1.192653E-02
3.383793E+03	2.881166E-01	1.174270E-02
3.393688E+03	2.863502E-01	1.155754E-02
3.403582E+03	2.844855E-01	1.137138E-02
3.413476E+03	2.825269E-01	1.118453E-02
3.423370E+03	2.804545E-01	1.099631E-02
3.433264E+03	2.782990E-01	1.080804E-02
3.443158E+03	2.760668E-01	1.062006E-02
3.453052E+03	2.737885E-01	1.043353E-02
3.462946E+03	2.714009E-01	1.024603E-02
3.472841E+03	2.689891E-01	1.006079E-02
3.482735E+03	2.665432E-01	9.877387E-03
3.492629E+03	2.640771E-01	9.696273E-03
3.502523E+03	2.615828E-01	9.517110E-03
3.512417E+03	2.591187E-01	9.341952E-03
3.522311E+03	2.566540E-01	9.169590E-03
3.532205E+03	2.542433E-01	9.001889E-03
3.542100E+03	2.518551E-01	8.837620E-03
3.551994E+03	2.495207E-01	8.677777E-03
3.561888E+03	2.472481E-01	8.522529E-03
3.571782E+03	2.450446E-01	8.371998E-03
3.581676E+03	2.429164E-01	8.226277E-03
3.591570E+03	2.408678E-01	8.085382E-03
3.601464E+03	2.388832E-01	7.948673E-03
3.611358E+03	2.370030E-01	7.817373E-03
3.621253E+03	2.352088E-01	7.690743E-03
3.631147E+03	2.334823E-01	7.568071E-03
3.641041E+03	2.318581E-01	7.450372E-03
3.650935E+03	2.302977E-01	7.336294E-03
3.660829E+03	2.288328E-01	7.226752E-03
3.670723E+03	2.274237E-01	7.120388E-03
3.680617E+03	2.260828E-01	7.017515E-03
3.690512E+03	2.248039E-01	6.917859E-03
3.700406E+03	2.235800E-01	6.821132E-03
3.710300E+03	2.224040E-01	6.727056E-03
3.720194E+03	2.212684E-01	6.635353E-03
3.730088E+03	2.201495E-01	6.545265E-03
3.739982E+03	2.190711E-01	6.457471E-03
3.749876E+03	2.180095E-01	6.371233E-03
3.759770E+03	2.169410E-01	6.285852E-03
3.769665E+03	2.158736E-01	6.201547E-03
3.779559E+03	2.147996E-01	6.118102E-03
3.789453E+03	2.137113E-01	6.035299E-03
3.799347E+03	2.126017E-01	5.952956E-03
3.809241E+03	2.114640E-01	5.870901E-03
3.819135E+03	2.102777E-01	5.788599E-03
3.829029E+03	2.090656E-01	5.706712E-03
3.838924E+03	2.077946E-01	5.624375E-03
3.848818E+03	2.064747E-01	5.541904E-03
3.858712E+03	2.051023E-01	5.459257E-03
3.868606E+03	2.036619E-01	5.376071E-03
3.878500E+03	2.021656E-01	5.292725E-03
3.888394E+03	2.006255E-01	5.209590E-03
3.898288E+03	1.990038E-01	5.125743E-03
3.908182E+03	1.973404E-01	5.042269E-03
3.918077E+03	1.956127E-01	4.958647E-03
3.927971E+03	1.938365E-01	4.875336E-03
3.937865E+03	1.920159E-01	4.792487E-03
3.947759E+03	1.901440E-01	4.709982E-03
3.957653E+03	1.882381E-01	4.628296E-03
3.967547E+03	1.863038E-01	4.547610E-03
3.977441E+03	1.843362E-01	4.467841E-03
3.987336E+03	1.823528E-01	4.389450E-03
3.997230E+03	1.803492E-01	4.312361E-03
4.007124E+03	1.783425E-01	4.237010E-03
4.017018E+03	1.763283E-01	4.163317E-03
4.026912E+03	1.743231E-01	4.091686E-03
4.036806E+03	1.723323E-01	4.022258E-03
4.046700E+03	1.703515E-01	3.954938E-03
4.056594E+03	1.683862E-01	3.889863E-03
4.066489E+03	1.664509E-01	3.827373E-03
4.076383E+03	1.645411E-01	3.767361E-03
4.086277E+03	1.626706E-01	3.710143E-03
4.096171E+03	1.608263E-01	3.655409E-03
4.106065E+03	1.590389E-01	3.603855E-03
4.115959E+03	1.572866E-01	3.554968E-03
4.125853E+03	1.555904E-01	3.509215E-03
4.135748E+03	1.539454E-01	3.466466E-03
4.145642E+03	1.523543E-01	3.426769E-03
4.155536E+03	1.508272E-01	3.390330E-03
4.165430E+03	1.493493E-01	3.356789E-03
4.175324E+03	1.479361E-01	3.326401E-03
4.185218E+03	1.465784E-01	3.298837E-03
4.195112E+03	1.452731E-01	3.273917E-03
4.205006E+03	1.440086E-01	3.251262E-03
4.214901E+03	1.427936E-01	3.230963E-03
4.224795E+03	1.416135E-01	3.212581E-03
4.234689E+03	1.404598E-01	3.195823E-03
4.244583E+03	1.393233E-01	3.180374E-03
4.254477E+03	1.381947E-01	3.165921E-03
4.264371E+03	1.370579E-01	3.151997E-03
4.274265E+03	1.359182E-01	3.138624E-03
4.284159E+03	1.347557E-01	3.125242E-03
4.294054E+03	1.335715E-01	3.111780E-03
4.303948E+03	1.323617E-01	3.098050E-03
4.313842E+03	1.311176E-01	3.083753E-03
4.323736E+03	1.298444E-01	3.068921E-03
4.333630E+03	1.285424E-01	3.053475E-03
4.343524E+03	1.272075E-01	3.037231E-03
4.353418E+03	1.258488E-01	3.020326E-03
4.363313E+03	1.244703E-01	3.002784E-03
4.373207E+03	1.230715E-01	2.984526E-03
4.383101E+03	1.216640E-01	2.965766E-03
4.392995E+03	1.202485E-01	2.946470E-03
4.402889E+03	1.188370E-01	2.926881E-03
4.412783E+03	1.174308E-01	2.906986E-03
4.422677E+03	1.160362E-01	2.886909E-03
4.432571E+03	1.146645E-01	2.866898E-03
4.442466E+03	1.133164E-01	2.846942E-03
4.452360E+03	1.119970E-01	2.827155E-03
4.462254E+03	1.107158E-01	2.807761E-03
4.472148E+03	1.094723E-01	2.788733E-03
4.482042E+03	1.082701E-01	2.770160E-03
4.491936E+03	1.071171E-01	2.752238E-03
4.501830E+03	1.060071E-01	2.734805E-03
4.511725E+03	1.049515E-01	2.718160E-03
4.521619E+03	1.039479E-01	2.702241E-03
4.531513E+03	1.029982E-01	2.687103E-03
4.541407E+03	1.021080E-01	2.672900E-03
4.551301E+03	1.012701E-01	2.659447E-03
4.561195E+03	1.004898E-01	2.646891E-03
4.571089E+03	9.976769E-02	2.635254E-03
4.580983E+03	9.910838E-02	2.624667E-03
4.590878E+03	9.850394E-02	2.614924E-03
4.600772E+03	9.796240E-02	2.606247E-03
4.610666E+03	9.747556E-02	2.598422E-03
4.620560E+03	9.704692E-02	2.591547E-03
4.630454E+03	9.667958E-02	2.585708E-03
4.640348E+03	9.636481E-02	2.580676E-03
4.650242E+03	9.610524E-02	2.576521E-03
4.660137E+03	9.589934E-02	2.573202E-03
4.670031E+03	9.574532E-02	2.570671E-03
4.679925E+03	9.563733E-02	2.568769E-03
4.689819E+03	9.558049E-02	2.567628E-03
4.699713E+03	9.556470E-02	2.566973E-03
4.709607E+03	9.559440E-02	2.566917E-03
4.719501E+03	9.565899E-02	2.567170E-03
4.729395E+03	9.575498E-02	2.567630E-03
4.739290E+03	9.588596E-02	2.568386E-03
4.749184E+03	9.604428E-02	2.569224E-03
4.759078E+03	9.622213E-02	2.569927E-03
4.768972E+03	9.641890E-02	2.570471E-03
4.778866E+03	9.663024E-02	2.570733E-03
4.788760E+03	9.684816E-02	2.570492E-03
4.798654E+03	9.707570E-02	2.569824E-03
4.808549E+03	9.730151E-02	2.568423E-03
4.818443E+03	9.752541E-02	2.566282E-03
4.828337E+03	9.774396E-02	2.563308E-03
4.838231E+03	9.795055E-02	2.559328E-03
4.848125E+03	9.814628E-02	2.554373E-03
4.858019E+03	9.832927E-02	2.548398E-03
4.867913E+03	9.849816E-02	2.541373E-03
4.877807E+03	9.864868E-02	2.533196E-03
4.887702E+03	9.878438E-02	2.523965E-03
4.897596E+03	9.890582E-02	2.513707E-03
4.907490E+03	9.901410E-02	2.502458E-03
4.917384E+03	9.910729E-02	2.490183E-03
4.927278E+03	9.919106E-02	2.477037E-03
4.937172E+03	9.926789E-02	2.463094E-03
4.947066E+03	9.934053E-02	2.448434E-03
4.956961E+03	9.940843E-02	2.433056E-03
4.966855E+03	9.948183E-02	2.417222E-03
4.976749E+03	9.955691E-02	2.400849E-03
4.986643E+03	9.963699E-02	2.384029E-03
4.996537E+03	9.973241E-02	2.367018E-03
5.006431E+03	9.983936E-02	2.349733E-03
5.016325E+03	9.996453E-02	2.332337E-03
5.026219E+03	1.001110E-01	2.314906E-03
5.036114E+03	1.002780E-01	2.297431E-03
5.046008E+03	1.004754E-01	2.280137E-03
5.055902E+03	1.006985E-01	2.262921E-03
5.065796E+03	1.009531E-01	2.245914E-03
5.075690E+03	1.012411E-01	2.229159E-03
5.085584E+03	1.015606E-01	2.212615E-03
5.095478E+03	1.019198E-01	2.196462E-03
5.105373E+03	1.023124E-01	2.180566E-03
5.115267E+03	1.027424E-01	2.165013E-03
5.125161E+03	1.032096E-01	2.149807E-03
5.135055E+03	1.037136E-01	2.134941E-03
5.144949E+03	1.042498E-01	2.120331E-03
5.154843E+03	1.048201E-01	2.106032E-03
5.164737E+03	1.054262E-01	2.092094E-03
5.174631E+03	1.060586E-01	2.078343E-03
5.184526E+03	1.067178E-01	2.064822E-03
5.194420E+03	1.074004E-01	2.051498E-03
5.204314E+03	1.080990E-01	2.038265E-03
5.214208E+03	1.088164E-01	2.025228E-03
5.224102E+03	1.095441E-01	2.012280E-03
5.233996E+03	1.102730E-01	1.999314E-03
5.243890E+03	1.110006E-01	1.986361E-03
5.253785E+03	1.117243E-01	1.973450E-03
5.263679E+03	1.124290E-01	1.960406E-03
5.273573E+03	1.131107E-01	1.947257E-03
5.283467E+03	1.137607E-01	1.933961E-03
5.293361E+03	1.143699E-01	1.920478E-03
5.303255E+03	1.149282E-01	1.906766E-03
5.313149E+03	1.154256E-01	1.892788E-03
5.323043E+03	1.158515E-01	1.878507E-03
5.332938E+03	1.161955E-01	1.863897E-03
5.342832E+03	1.164479E-01	1.848945E-03
5.352726E+03	1.166004E-01	1.833663E-03
5.362620E+03	1.166434E-01	1.818037E-03
5.372514E+03	1.165841E-01	1.802310E-03
5.382408E+03	1.164240E-01	1.786623E-03
5.392302E+03	1.161723E-01	1.771219E-03
5.402196E+03	1.158399E-01	1.756352E-03
5.412091E+03	1.154389E-01	1.742270E-03
5.421985E+03	1.149813E-01	1.729148E-03
5.431879E+03	1.144829E-01	1.717134E-03
5.441773E+03	1.139476E-01	1.706178E-03
5.451667E+03	1.133897E-01	1.696386E-03
5.461561E+03	1.128230E-01	1.687846E-03
5.471455E+03	1.122490E-01	1.680460E-03
5.481350E+03	1.116835E-01	1.674344E-03
5.491244E+03	1.111303E-01	1.669433E-03
5.501138E+03	1.105959E-01	1.665712E-03
5.511032E+03	1.100866E-01	1.663158E-03
5.520926E+03	1.096077E-01	1.661746E-03
5.530820E+03	1.091642E-01	1.661447E-03
5.540714E+03	1.087640E-01	1.662284E-03
5.550608E+03	1.084075E-01	1.664172E-03
5.560503E+03	1.080982E-01	1.667080E-03
5.570397E+03	1.078394E-01	1.670978E-03
5.580291E+03	1.076339E-01	1.675836E-03
5.590185E+03	1.074880E-01	1.681684E-03
5.600079E+03	1.074004E-01	1.688436E-03
5.609973E+03	1.073732E-01	1.696068E-03
5.619867E+03	1.074081E-01	1.704551E-03
5.629762E+03	1.075102E-01	1.713915E-03
5.639656E+03	1.076773E-01	1.724076E-03
5.649550E+03	1.079102E-01	1.735004E-03
5.659444E+03	1.082134E-01	1.746723E-03
5.669338E+03	1.085800E-01	1.759083E-03
5.679232E+03	1.090211E-01	1.772223E-03
5.689126E+03	1.095258E-01	1.785925E-03
5.699020E+03	1.101010E-01	1.800262E-03
5.708915E+03	1.107426E-01	1.815129E-03
5.718809E+03	1.114535E-01	1.830533E-03
5.728703E+03	1.122256E-01	1.846301E-03
5.738597E+03	1.130692E-01	1.862560E-03
5.748491E+03	1.139720E-01	1.879068E-03
5.758385E+03	1.149443E-01	1.895954E-03
5.768279E+03	1.159741E-01	1.912974E-03
5.778174E+03	1.170680E-01	1.930196E-03
5.788068E+03	1.182218E-01	1.947503E-03
5.797962E+03	1.194391E-01	1.964910E-03
5.807856E+03	1.207200E-01	1.982373E-03
5.817750E+03	1.220570E-01	1.999718E-03
5.827644E+03	1.234633E-01	2.017113E-03
5.837538E+03	1.249281E-01	2.034331E-03
5.847432E+03	1.264616E-01	2.051491E-03
5.857327E+03	1.280669E-01	2.068586E-03
5.867221E+03	1.297431E-01	2.085549E-03
5.877115E+03	1.314987E-01	2.102461E-03
5.887009E+03	1.333342E-01	2.119273E-03
5.896903E+03	1.352598E-01	2.136085E-03
5.906797E+03	1.372770E-01	2.152862E-03
5.916691E+03	1.393973E-01	2.169716E-03
5.926586E+03	1.416279E-01	2.186694E-03
5.936480E+03	1.439717E-01	2.203767E-03
5.946374E+03	1.464360E-01	2.220979E-03
5.956268E+03	1.490383E-01	2.238516E-03
5.966162E+03	1.517707E-01	2.256180E-03
5.976056E+03	1.546548E-01	2.274217E-03
5.985950E+03	1.576855E-01	2.292470E-03
5.995844E+03	1.608665E-01	2.310915E-03
6.005739E+03	1.642105E-01	2.329663E-03
6.015633E+03	1.677059E-01	2.348476E-03
6.025527E+03	1.713484E-01	2.367242E-03
6.035421E+03	1.751362E-01	2.385891E-03
6.045315E+03	1.790572E-01	2.404232E-03
6.055209E+03	1.830939E-01	2.422030E-03
6.065103E+03	1.872167E-01	2.438922E-03
6.074998E+03	1.914013E-01	2.454666E-03
6.084892E+03	1.956034E-01	2.468806E-03
6.094786E+03	1.997904E-01	2.481102E-03
6.104680E+03	2.038947E-01	2.490942E-03
6.114574E+03	2.078602E-01	2.497946E-03
6.124468E+03	2.116094E-01	2.501551E-03
6.134362E+03	2.150720E-01	2.501381E-03
6.144256E+03	2.181655E-01	2.497004E-03
6.154151E+03	2.208052E-01	2.488048E-03
6.164045E+03	2.229004E-01	2.474153E-03
6.173939E+03	2.243819E-01	2.455260E-03
6.183833E+03	2.251861E-01	2.431406E-03
6.193727E+03	2.252701E-01	2.402857E-03
6.203621E+03	2.246221E-01	2.370176E-03
6.213515E+03	2.232675E-01	2.334257E-03
6.223410E+03	2.213076E-01	2.296680E-03
6.233304E+03	2.188750E-01	2.259216E-03
6.243198E+03	2.161181E-01	2.223670E-03
6.253092E+03	2.131874E-01	2.191749E-03
6.262986E+03	2.102169E-01	2.164900E-03
6.272880E+03	2.073403E-01	2.144462E-03
6.282774E+03	2.046642E-01	2.131228E-03
6.292668E+03	2.022748E-01	2.125704E-03
6.302563E+03	2.002377E-01	2.128222E-03
6.312457E+03	1.985999E-01	2.138977E-03
6.322351E+03	1.973916E-01	2.158048E-03
6.332245E+03	1.966217E-01	2.185346E-03
6.342139E+03	1.963077E-01	2.220939E-03
6.352033E+03	1.964294E-01	2.264523E-03
6.361927E+03	1.969786E-01	2.315967E-03
6.371822E+03	1.979331E-01	2.375010E-03
6.381716E+03	1.992714E-01	2.441415E-03
6.391610E+03	2.009455E-01	2.514626E-03
6.401504E+03	2.029234E-01	2.594270E-03
6.411398E+03	2.051545E-01	2.679719E-03
6.421292E+03	2.076059E-01	2.770542E-03
6.431186E+03	2.102198E-01	2.865946E-03
6.441080E+03	2.129431E-01	2.965148E-03
6.450975E+03	2.157207E-01	3.067280E-03
6.460869E+03	2.184960E-01	3.171399E-03
6.470763E+03	2.212126E-01	3.276496E-03
6.480657E+03	2.238064E-01	3.381390E-03
6.490551E+03	2.262386E-01	3.485216E-03
6.500445E+03	2.284496E-01	3.586742E-03
6.510339E+03	2.303910E-01	3.684848E-03
6.520234E+03	2.320190E-01	3.778447E-03
6.530128E+03	2.332953E-01	3.866499E-03
6.540022E+03	2.341882E-01	3.948041E-03
6.549916E+03	2.346728E-01	4.022206E-03
6.559810E+03	2.347318E-01	4.088247E-03
6.569704E+03	2.343556E-01	4.145547E-03
6.579598E+03	2.335504E-01	4.193789E-03
6.589492E+03	2.323046E-01	4.232349E-03
6.599387E+03	2.306386E-01	4.261205E-03
6.609281E+03	2.285787E-01	4.280490E-03
6.619175E+03	2.261398E-01	4.290165E-03
6.629069E+03	2.233415E-01	4.290319E-03
6.638963E+03	2.202314E-01	4.281620E-03
6.648857E+03	2.168351E-01	4.264370E-03
6.658751E+03	2.131884E-01	4.239113E-03
6.668645E+03	2.093277E-01	4.206455E-03
6.678540E+03	2.052972E-01	4.167204E-03
6.688434E+03	2.011181E-01	4.121747E-03
6.698328E+03	1.968403E-01	4.071092E-03
6.708222E+03	1.924827E-01	4.015652E-03
6.718116E+03	1.880913E-01	3.956425E-03
6.728010E+03	1.836881E-01	3.893942E-03
6.737904E+03	1.792999E-01	3.828858E-03
6.747799E+03	1.749507E-01	3.761786E-03
6.757693E+03	1.706683E-01	3.693434E-03
6.767587E+03	1.664587E-01	3.624055E-03
6.777481E+03	1.623502E-01	3.554391E-03
6.787375E+03	1.583500E-01	3.484732E-03
6.797269E+03	1.544693E-01	3.415453E-03
6.807163E+03	1.507166E-01	3.346878E-03
6.817057E+03	1.470988E-01	3.279284E-03
6.826952E+03	1.436206E-01	3.212900E-03
6.836846E+03	1.402901E-01	3.148032E-03
6.846740E+03	1.370984E-01	3.084592E-03
6.856634E+03	1.340558E-01	3.022921E-03
6.866528E+03	1.311563E-01	2.962984E-03
6.876422E+03	1.283977E-01	2.904826E-03
6.886316E+03	1.257771E-01	2.848470E-03
6.896211E+03	1.232955E-01	2.794018E-03
6.906105E+03	1.209393E-01	2.741238E-03
6.915999E+03	1.187130E-01	2.690297E-03
6.925893E+03	1.166024E-01	2.640937E-03
6.935787E+03	1.146109E-01	2.593292E-03
6.945681E+03	1.127286E-01	2.547184E-03
6.955575E+03	1.109497E-01	2.502530E-03
6.965469E+03	1.092684E-01	2.459241E-03
6.975364E+03	1.076789E-01	2.417224E-03
6.985258E+03	1.061796E-01	2.376473E-03
6.995152E+03	1.047566E-01	2.336713E-03
7.005046E+03	1.034086E-01	2.297940E-03
7.014940E+03	1.021339E-01	2.260147E-03
7.024834E+03	1.009199E-01	2.223073E-03
7.034728E+03	9.976914E-02	2.186805E-03
7.044623E+03	9.867318E-02	2.151177E-03
7.054517E+03	9.762757E-02	2.116116E-03
7.064411E+03	9.662458E-02	2.081477E-03
7.074305E+03	9.566767E-02	2.047358E-03
7.084199E+03	9.474967E-02	2.013628E-03
7.094093E+03	9.386723E-02	1.980240E-03
7.103987E+03	9.301738E-02	1.947156E-03
7.113881E+03	9.219391E-02	1.914274E-03
7.123776E+03	9.140137E-02	1.881715E-03
7.133670E+03	9.063400E-02	1.849390E-03
7.143564E+03	8.988979E-02	1.817288E-03
7.153458E+03	8.916697E-02	1.785406E-03
7.163352E+03	8.846050E-02	1.753678E-03
7.173246E+03	8.777577E-02	1.722249E-03
7.183140E+03	8.710480E-02	1.691000E-03
7.193035E+03	8.645316E-02	1.660082E-03
7.202929E+03	8.581327E-02	1.629393E-03
7.212823E+03	8.519092E-02	1.599091E-03
7.222717E+03	8.457885E-02	1.569087E-03
7.232611E+03	8.397982E-02	1.539490E-03
7.242505E+03	8.339341E-02	1.510345E-03
7.252399E+03	8.281934E-02	1.481710E-03
7.262293E+03	8.225426E-02	1.453586E-03
7.272188E+03	8.170448E-02	1.426154E-03
7.282082E+03	8.116380E-02	1.399375E-03
7.291976E+03	8.063868E-02	1.373436E-03
7.301870E+03	8.012324E-02	1.348314E-03
7.311764E+03	7.962104E-02	1.324153E-03
7.321658E+03	7.912958E-02	1.300996E-03
7.331552E+03	7.865578E-02	1.279048E-03
7.341447E+03	7.819421E-02	1.258312E-03
7.351341E+03	7.774887E-02	1.238949E-03
7.361235E+03	7.732067E-02	1.221071E-03
7.371129E+03	7.690755E-02	1.204745E-03
7.381023E+03	7.651659E-02	1.190182E-03
7.390917E+03	7.614269E-02	1.177404E-03
7.400811E+03	7.578691E-02	1.166528E-03
7.410705E+03	7.545600E-02	1.157754E-03
7.420600E+03	7.514486E-02	1.151098E-03
7.430494E+03	7.485709E-02	1.146707E-03
7.440388E+03	7.459317E-02	1.144670E-03
7.450282E+03	7.435040E-02	1.145023E-03
7.460176E+03	7.413179E-02	1.147881E-03
7.470070E+03	7.393706E-02	1.153293E-03
7.479964E+03	7.376267E-02	1.161195E-03
7.489859E+03	7.361053E-02	1.171568E-03
7.499753E+03	7.347916E-02	1.184331E-03
7.509647E+03	7.336360E-02	1.199341E-03
7.519541E+03	7.326408E-02	1.216531E-03
7.529435E+03	7.317437E-02	1.235720E-03
7.539329E+03	7.309607E-02	1.256857E-03
7.549223E+03	7.301541E-02	1.279618E-03
7.559117E+03	7.293512E-02	1.303959E-03
7.569012E+03	7.284250E-02	1.329554E-03
7.578906E+03	7.272981E-02	1.356154E-03
7.588800E+03	7.259447E-02	1.383594E-03
7.598694E+03	7.241897E-02	1.411417E-03
7.608588E+03	7.220330E-02	1.439482E-03
7.618482E+03	7.193373E-02	1.467369E-03
7.628376E+03	7.160428E-02	1.494795E-03
7.638271E+03	7.121587E-02	1.521612E-03
7.648165E+03	7.077077E-02	1.547704E-03
7.658059E+03	7.027057E-02	1.572945E-03
7.667953E+03	6.972370E-02	1.597368E-03
7.677847E+03	6.913332E-02	1.620907E-03
