#wls	flux	fluxerr
1.583061E+03	6.818693E-02	9.123046E-03
1.622638E+03	6.962808E-02	9.206311E-03
1.662214E+03	7.105331E-02	9.281409E-03
1.701791E+03	7.243875E-02	9.345256E-03
1.741367E+03	7.381132E-02	9.401400E-03
1.780944E+03	7.517625E-02	9.450490E-03
1.820520E+03	7.652852E-02	9.491879E-03
1.860097E+03	7.787855E-02	9.526842E-03
1.899673E+03	7.926663E-02	9.560197E-03
1.939250E+03	8.068413E-02	9.590671E-03
1.978827E+03	8.216547E-02	9.622093E-03
2.018403E+03	8.373542E-02	9.656939E-03
2.057980E+03	8.542205E-02	9.697881E-03
2.097556E+03	8.725588E-02	9.747660E-03
2.137133E+03	8.926922E-02	9.808988E-03
2.176709E+03	9.151106E-02	9.886132E-03
2.216286E+03	9.400368E-02	9.980147E-03
2.255862E+03	9.680013E-02	1.009509E-02
2.295439E+03	9.993832E-02	1.023307E-02
2.335015E+03	1.034560E-01	1.039585E-02
2.374592E+03	1.073772E-01	1.058353E-02
2.414168E+03	1.117787E-01	1.080113E-02
2.453745E+03	1.166938E-01	1.104892E-02
2.493321E+03	1.221759E-01	1.132879E-02
2.532898E+03	1.282997E-01	1.164412E-02
2.572475E+03	1.351219E-01	1.199613E-02
2.612051E+03	1.426685E-01	1.238291E-02
2.651628E+03	1.510007E-01	1.280540E-02
2.691204E+03	1.600880E-01	1.325644E-02
2.730781E+03	1.698893E-01	1.372838E-02
2.770357E+03	1.803568E-01	1.421336E-02
2.809934E+03	1.913626E-01	1.469784E-02
2.849510E+03	2.027947E-01	1.517061E-02
2.889087E+03	2.145114E-01	1.561935E-02
2.928663E+03	2.262838E-01	1.602686E-02
2.968240E+03	2.378782E-01	1.637760E-02
2.978134E+03	2.407104E-01	1.645403E-02
2.988028E+03	2.435323E-01	1.652718E-02
2.997922E+03	2.463090E-01	1.659473E-02
3.007816E+03	2.490667E-01	1.665852E-02
3.017710E+03	2.517392E-01	1.671420E-02
3.027605E+03	2.544158E-01	1.676781E-02
3.037499E+03	2.569976E-01	1.681289E-02
3.047393E+03	2.595430E-01	1.685342E-02
3.057287E+03	2.620486E-01	1.688922E-02
3.067181E+03	2.644451E-01	1.691597E-02
3.077075E+03	2.667925E-01	1.693766E-02
3.086969E+03	2.690867E-01	1.695412E-02
3.096864E+03	2.712909E-01	1.696316E-02
3.106758E+03	2.734002E-01	1.696464E-02
3.116652E+03	2.754439E-01	1.696052E-02
3.126546E+03	2.773846E-01	1.694864E-02
3.136440E+03	2.792181E-01	1.692893E-02
3.146334E+03	2.809734E-01	1.690332E-02
3.156228E+03	2.826139E-01	1.686975E-02
3.166122E+03	2.841689E-01	1.683017E-02
3.176017E+03	2.856015E-01	1.678255E-02
3.185911E+03	2.869084E-01	1.672691E-02
3.195805E+03	2.881193E-01	1.666517E-02
3.205699E+03	2.891978E-01	1.659541E-02
3.215593E+03	2.901742E-01	1.651957E-02
3.225487E+03	2.910125E-01	1.643579E-02
3.235381E+03	2.917101E-01	1.634414E-02
3.245276E+03	2.922975E-01	1.624654E-02
3.255170E+03	2.927395E-01	1.614124E-02
3.265064E+03	2.930668E-01	1.603013E-02
3.274958E+03	2.932444E-01	1.591151E-02
3.284852E+03	2.933036E-01	1.578729E-02
3.294746E+03	2.932101E-01	1.565581E-02
3.304640E+03	2.929629E-01	1.551725E-02
3.314534E+03	2.925927E-01	1.537347E-02
3.324429E+03	2.920984E-01	1.522456E-02
3.334323E+03	2.914162E-01	1.506743E-02
3.344217E+03	2.906091E-01	1.490557E-02
3.354111E+03	2.896760E-01	1.473909E-02
3.364005E+03	2.885865E-01	1.456664E-02
3.373899E+03	2.873713E-01	1.438997E-02
3.383793E+03	2.859708E-01	1.420627E-02
3.393688E+03	2.844767E-01	1.402032E-02
3.403582E+03	2.828305E-01	1.382937E-02
3.413476E+03	2.810350E-01	1.363375E-02
3.423370E+03	2.790934E-01	1.343378E-02
3.433264E+03	2.770668E-01	1.323256E-02
3.443158E+03	2.748743E-01	1.302633E-02
3.453052E+03	2.725794E-01	1.281820E-02
3.462946E+03	2.701908E-01	1.260865E-02
3.472841E+03	2.676668E-01	1.239578E-02
3.482735E+03	2.651029E-01	1.218407E-02
3.492629E+03	2.624349E-01	1.197057E-02
3.502523E+03	2.597572E-01	1.175961E-02
3.512417E+03	2.570079E-01	1.154836E-02
3.522311E+03	2.542533E-01	1.133979E-02
3.532205E+03	2.515076E-01	1.113448E-02
3.542100E+03	2.487593E-01	1.093185E-02
3.551994E+03	2.460213E-01	1.073244E-02
3.561888E+03	2.433291E-01	1.053770E-02
3.571782E+03	2.406688E-01	1.034696E-02
3.581676E+03	2.380725E-01	1.016150E-02
3.591570E+03	2.355250E-01	9.980577E-03
3.601464E+03	2.330332E-01	9.804388E-03
3.611358E+03	2.306241E-01	9.633972E-03
3.621253E+03	2.283010E-01	9.469355E-03
3.631147E+03	2.260248E-01	9.308811E-03
3.641041E+03	2.238600E-01	9.154901E-03
3.650935E+03	2.217454E-01	9.005009E-03
3.660829E+03	2.197221E-01	8.860724E-03
3.670723E+03	2.177883E-01	8.721868E-03
3.680617E+03	2.159033E-01	8.586715E-03
3.690512E+03	2.141229E-01	8.457411E-03
3.700406E+03	2.123864E-01	8.331461E-03
3.710300E+03	2.107284E-01	8.210159E-03
3.720194E+03	2.091443E-01	8.093246E-03
3.730088E+03	2.075929E-01	7.979066E-03
3.739982E+03	2.061242E-01	7.869483E-03
3.749876E+03	2.046790E-01	7.762176E-03
3.759770E+03	2.032879E-01	7.658270E-03
3.769665E+03	2.019281E-01	7.556854E-03
3.779559E+03	2.006114E-01	7.458342E-03
3.789453E+03	1.993153E-01	7.361862E-03
3.799347E+03	1.980349E-01	7.267212E-03
3.809241E+03	1.967819E-01	7.174798E-03
3.819135E+03	1.955346E-01	7.083823E-03
3.829029E+03	1.942889E-01	6.994123E-03
3.838924E+03	1.930567E-01	6.906121E-03
3.848818E+03	1.918022E-01	6.818543E-03
3.858712E+03	1.905694E-01	6.732952E-03
3.868606E+03	1.893084E-01	6.647585E-03
3.878500E+03	1.880477E-01	6.563457E-03
3.888394E+03	1.867699E-01	6.479969E-03
3.898288E+03	1.854886E-01	6.397598E-03
3.908182E+03	1.841730E-01	6.315302E-03
3.918077E+03	1.828523E-01	6.234097E-03
3.927971E+03	1.815117E-01	6.153491E-03
3.937865E+03	1.801658E-01	6.073992E-03
3.947759E+03	1.787875E-01	5.994697E-03
3.957653E+03	1.774058E-01	5.916603E-03
3.967547E+03	1.760086E-01	5.839307E-03
3.977441E+03	1.746110E-01	5.763327E-03
3.987336E+03	1.731885E-01	5.687862E-03
3.997230E+03	1.717700E-01	5.613872E-03
4.007124E+03	1.703447E-01	5.541009E-03
4.017018E+03	1.689152E-01	5.469367E-03
4.026912E+03	1.674842E-01	5.399039E-03
4.036806E+03	1.660545E-01	5.330114E-03
4.046700E+03	1.646408E-01	5.263068E-03
4.056594E+03	1.632214E-01	5.197202E-03
4.066489E+03	1.618226E-01	5.133359E-03
4.076383E+03	1.604348E-01	5.071225E-03
4.086277E+03	1.590486E-01	5.010500E-03
4.096171E+03	1.576888E-01	4.951964E-03
4.106065E+03	1.563455E-01	4.895294E-03
4.115959E+03	1.550309E-01	4.840865E-03
4.125853E+03	1.537239E-01	4.788006E-03
4.135748E+03	1.524359E-01	4.737070E-03
4.145642E+03	1.511672E-01	4.688052E-03
4.155536E+03	1.499174E-01	4.640926E-03
4.165430E+03	1.486856E-01	4.595657E-03
4.175324E+03	1.474808E-01	4.552488E-03
4.185218E+03	1.462808E-01	4.510665E-03
4.195112E+03	1.450938E-01	4.470365E-03
4.205006E+03	1.439175E-01	4.431436E-03
4.214901E+03	1.427491E-01	4.393723E-03
4.224795E+03	1.415858E-01	4.357066E-03
4.234689E+03	1.404247E-01	4.321302E-03
4.244583E+03	1.392628E-01	4.286274E-03
4.254477E+03	1.380884E-01	4.251547E-03
4.264371E+03	1.369170E-01	4.217538E-03
4.274265E+03	1.357282E-01	4.183545E-03
4.284159E+03	1.345284E-01	4.149709E-03
4.294054E+03	1.333157E-01	4.115907E-03
4.303948E+03	1.320887E-01	4.082033E-03
4.313842E+03	1.308466E-01	4.048006E-03
4.323736E+03	1.295811E-01	4.013509E-03
4.333630E+03	1.283093E-01	3.979020E-03
4.343524E+03	1.270161E-01	3.944017E-03
4.353418E+03	1.257116E-01	3.908763E-03
4.363313E+03	1.243903E-01	3.873040E-03
4.373207E+03	1.230707E-01	3.837381E-03
4.383101E+03	1.217407E-01	3.801361E-03
4.392995E+03	1.204039E-01	3.765062E-03
4.402889E+03	1.190793E-01	3.729033E-03
4.412783E+03	1.177558E-01	3.692900E-03
4.422677E+03	1.164449E-01	3.656990E-03
4.432571E+03	1.151505E-01	3.621399E-03
4.442466E+03	1.138695E-01	3.586005E-03
4.452360E+03	1.126128E-01	3.551130E-03
4.462254E+03	1.113772E-01	3.516654E-03
4.472148E+03	1.101731E-01	3.482885E-03
4.482042E+03	1.090036E-01	3.449908E-03
4.491936E+03	1.078651E-01	3.417598E-03
4.501830E+03	1.067669E-01	3.386236E-03
4.511725E+03	1.057114E-01	3.355889E-03
4.521619E+03	1.046946E-01	3.326419E-03
4.531513E+03	1.037245E-01	3.298079E-03
4.541407E+03	1.027969E-01	3.270720E-03
4.551301E+03	1.019191E-01	3.244576E-03
4.561195E+03	1.010863E-01	3.219488E-03
4.571089E+03	1.003055E-01	3.195668E-03
4.580983E+03	9.957125E-02	3.172945E-03
4.590878E+03	9.888993E-02	3.151513E-03
4.600772E+03	9.826155E-02	3.131370E-03
4.610666E+03	9.767486E-02	3.112151E-03
4.620560E+03	9.714631E-02	3.094376E-03
4.630454E+03	9.666421E-02	3.077666E-03
4.640348E+03	9.622790E-02	3.061996E-03
4.650242E+03	9.584185E-02	3.047500E-03
4.660137E+03	9.549943E-02	3.033962E-03
4.670031E+03	9.520464E-02	3.021501E-03
4.679925E+03	9.495052E-02	3.009889E-03
4.689819E+03	9.474060E-02	2.999230E-03
4.699713E+03	9.456763E-02	2.989286E-03
4.709607E+03	9.443470E-02	2.980146E-03
4.719501E+03	9.432910E-02	2.971400E-03
4.729395E+03	9.426404E-02	2.963457E-03
4.739290E+03	9.422655E-02	2.955898E-03
4.749184E+03	9.421406E-02	2.948635E-03
4.759078E+03	9.422902E-02	2.941737E-03
4.768972E+03	9.426364E-02	2.934952E-03
4.778866E+03	9.431522E-02	2.928189E-03
4.788760E+03	9.438622E-02	2.921518E-03
4.798654E+03	9.446903E-02	2.914698E-03
4.808549E+03	9.456630E-02	2.907804E-03
4.818443E+03	9.467063E-02	2.900606E-03
4.828337E+03	9.478003E-02	2.893038E-03
4.838231E+03	9.489765E-02	2.885197E-03
4.848125E+03	9.501690E-02	2.876880E-03
4.858019E+03	9.513644E-02	2.868047E-03
4.867913E+03	9.526032E-02	2.858821E-03
4.877807E+03	9.538781E-02	2.849181E-03
4.887702E+03	9.550847E-02	2.838819E-03
4.897596E+03	9.563227E-02	2.828036E-03
4.907490E+03	9.575947E-02	2.816843E-03
4.917384E+03	9.588051E-02	2.804964E-03
4.927278E+03	9.600621E-02	2.792722E-03
4.937172E+03	9.613765E-02	2.780152E-03
4.947066E+03	9.627100E-02	2.767150E-03
4.956961E+03	9.640777E-02	2.753765E-03
4.966855E+03	9.655451E-02	2.740189E-03
4.976749E+03	9.670793E-02	2.726335E-03
4.986643E+03	9.686981E-02	2.712259E-03
4.996537E+03	9.704701E-02	2.698156E-03
5.006431E+03	9.723636E-02	2.683944E-03
5.016325E+03	9.743966E-02	2.669676E-03
5.026219E+03	9.766365E-02	2.655540E-03
5.036114E+03	9.790501E-02	2.641449E-03
5.046008E+03	9.816520E-02	2.627446E-03
5.055902E+03	9.845061E-02	2.613704E-03
5.065796E+03	9.876240E-02	2.600256E-03
5.075690E+03	9.909146E-02	2.586864E-03
5.085584E+03	9.944848E-02	2.573813E-03
5.095478E+03	9.983389E-02	2.561116E-03
5.105373E+03	1.002377E-01	2.548521E-03
5.115267E+03	1.006748E-01	2.536416E-03
5.125161E+03	1.011294E-01	2.524409E-03
5.135055E+03	1.016107E-01	2.512742E-03
5.144949E+03	1.021124E-01	2.501267E-03
5.154843E+03	1.026377E-01	2.490083E-03
5.164737E+03	1.031794E-01	2.479031E-03
5.174631E+03	1.037400E-01	2.468196E-03
5.184526E+03	1.043064E-01	2.457286E-03
5.194420E+03	1.048905E-01	2.446622E-03
5.204314E+03	1.054730E-01	2.435782E-03
5.214208E+03	1.060652E-01	2.425074E-03
5.224102E+03	1.066468E-01	2.414075E-03
5.233996E+03	1.072233E-01	2.402963E-03
5.243890E+03	1.077840E-01	2.391558E-03
5.253785E+03	1.083286E-01	2.379915E-03
5.263679E+03	1.088457E-01	2.367855E-03
5.273573E+03	1.093348E-01	2.355438E-03
5.283467E+03	1.097842E-01	2.342496E-03
5.293361E+03	1.101878E-01	2.328983E-03
5.303255E+03	1.105453E-01	2.314980E-03
5.313149E+03	1.108511E-01	2.300462E-03
5.323043E+03	1.110893E-01	2.285192E-03
5.332938E+03	1.112722E-01	2.269520E-03
5.342832E+03	1.113801E-01	2.253136E-03
5.352726E+03	1.114274E-01	2.236427E-03
5.362620E+03	1.113971E-01	2.219135E-03
5.372514E+03	1.113009E-01	2.201586E-03
5.382408E+03	1.111414E-01	2.183905E-03
5.392302E+03	1.109169E-01	2.166128E-03
5.402196E+03	1.106325E-01	2.148419E-03
5.412091E+03	1.102993E-01	2.131051E-03
5.421985E+03	1.099242E-01	2.114176E-03
5.431879E+03	1.095086E-01	2.097782E-03
5.441773E+03	1.090601E-01	2.081948E-03
5.451667E+03	1.085916E-01	2.066851E-03
5.461561E+03	1.081105E-01	2.052560E-03
5.471455E+03	1.076189E-01	2.039039E-03
5.481350E+03	1.071241E-01	2.026347E-03
5.491244E+03	1.066380E-01	2.014632E-03
5.501138E+03	1.061671E-01	2.003939E-03
5.511032E+03	1.057122E-01	1.994206E-03
5.520926E+03	1.052842E-01	1.985562E-03
5.530820E+03	1.048831E-01	1.977934E-03
5.540714E+03	1.045137E-01	1.971343E-03
5.550608E+03	1.041905E-01	1.965995E-03
5.560503E+03	1.039024E-01	1.961612E-03
5.570397E+03	1.036682E-01	1.958488E-03
5.580291E+03	1.034809E-01	1.956433E-03
5.590185E+03	1.033435E-01	1.955447E-03
5.600079E+03	1.032637E-01	1.955621E-03
5.609973E+03	1.032437E-01	1.956948E-03
5.619867E+03	1.032807E-01	1.959322E-03
5.629762E+03	1.033814E-01	1.962828E-03
5.639656E+03	1.035425E-01	1.967355E-03
5.649550E+03	1.037704E-01	1.972981E-03
5.659444E+03	1.040662E-01	1.979689E-03
5.669338E+03	1.044260E-01	1.987360E-03
5.679232E+03	1.048557E-01	1.996068E-03
5.689126E+03	1.053562E-01	2.005790E-03
5.699020E+03	1.059231E-01	2.016401E-03
5.708915E+03	1.065620E-01	2.027972E-03
5.718809E+03	1.072686E-01	2.040377E-03
5.728703E+03	1.080484E-01	2.053686E-03
5.738597E+03	1.089022E-01	2.067872E-03
5.748491E+03	1.098255E-01	2.082807E-03
5.758385E+03	1.108242E-01	2.098563E-03
5.768279E+03	1.118939E-01	2.115016E-03
5.778174E+03	1.130465E-01	2.132348E-03
5.788068E+03	1.142726E-01	2.150333E-03
5.797962E+03	1.155734E-01	2.168952E-03
5.807856E+03	1.169621E-01	2.188405E-03
5.817750E+03	1.184294E-01	2.208470E-03
5.827644E+03	1.199776E-01	2.229142E-03
5.837538E+03	1.216212E-01	2.250638E-03
5.847432E+03	1.233515E-01	2.272745E-03
5.857327E+03	1.251779E-01	2.295583E-03
5.867221E+03	1.270981E-01	2.319052E-03
5.877115E+03	1.291221E-01	2.343281E-03
5.887009E+03	1.312545E-01	2.368290E-03
5.896903E+03	1.334996E-01	2.394102E-03
5.906797E+03	1.358557E-01	2.420618E-03
5.916691E+03	1.383407E-01	2.448095E-03
5.926586E+03	1.409387E-01	2.476188E-03
5.936480E+03	1.436743E-01	2.505268E-03
5.946374E+03	1.465375E-01	2.535090E-03
5.956268E+03	1.495456E-01	2.565892E-03
5.966162E+03	1.526861E-01	2.597397E-03
5.976056E+03	1.559596E-01	2.629558E-03
5.985950E+03	1.593804E-01	2.662567E-03
5.995844E+03	1.629307E-01	2.696074E-03
6.005739E+03	1.666132E-01	2.730091E-03
6.015633E+03	1.704203E-01	2.764472E-03
6.025527E+03	1.743331E-01	2.798898E-03
6.035421E+03	1.783457E-01	2.833290E-03
6.045315E+03	1.824494E-01	2.867537E-03
6.055209E+03	1.866046E-01	2.901076E-03
6.065103E+03	1.907847E-01	2.933586E-03
6.074998E+03	1.949777E-01	2.965009E-03
6.084892E+03	1.991302E-01	2.994689E-03
6.094786E+03	2.032128E-01	3.022391E-03
6.104680E+03	2.071837E-01	3.047735E-03
6.114574E+03	2.109982E-01	3.070353E-03
6.124468E+03	2.146105E-01	3.089909E-03
6.134362E+03	2.179641E-01	3.105958E-03
6.144256E+03	2.210362E-01	3.118588E-03
6.154151E+03	2.237651E-01	3.127360E-03
6.164045E+03	2.261276E-01	3.132409E-03
6.173939E+03	2.280979E-01	3.133845E-03
6.183833E+03	2.296603E-01	3.131917E-03
6.193727E+03	2.307993E-01	3.126867E-03
6.203621E+03	2.315457E-01	3.119542E-03
6.213515E+03	2.318953E-01	3.110275E-03
6.223410E+03	2.318854E-01	3.099917E-03
6.233304E+03	2.315505E-01	3.089230E-03
6.243198E+03	2.309337E-01	3.079033E-03
6.253092E+03	2.300848E-01	3.070185E-03
6.262986E+03	2.290585E-01	3.063554E-03
6.272880E+03	2.278994E-01	3.059771E-03
6.282774E+03	2.266859E-01	3.059676E-03
6.292668E+03	2.254480E-01	3.063400E-03
6.302563E+03	2.242560E-01	3.071625E-03
6.312457E+03	2.231298E-01	3.084351E-03
6.322351E+03	2.221159E-01	3.101961E-03
6.332245E+03	2.212428E-01	3.124617E-03
6.342139E+03	2.205318E-01	3.152404E-03
6.352033E+03	2.199970E-01	3.185334E-03
6.361927E+03	2.196457E-01	3.223348E-03
6.371822E+03	2.194790E-01	3.266316E-03
6.381716E+03	2.194809E-01	3.313868E-03
6.391610E+03	2.196631E-01	3.366066E-03
6.401504E+03	2.199885E-01	3.422234E-03
6.411398E+03	2.204596E-01	3.482308E-03
6.421292E+03	2.210311E-01	3.545467E-03
6.431186E+03	2.216990E-01	3.611533E-03
6.441080E+03	2.224118E-01	3.679553E-03
6.450975E+03	2.231501E-01	3.749061E-03
6.460869E+03	2.238930E-01	3.819558E-03
6.470763E+03	2.245849E-01	3.889933E-03
6.480657E+03	2.252043E-01	3.959620E-03
6.490551E+03	2.257188E-01	4.027842E-03
6.500445E+03	2.260975E-01	4.093824E-03
6.510339E+03	2.263111E-01	4.156797E-03
6.520234E+03	2.263330E-01	4.216013E-03
6.530128E+03	2.261394E-01	4.270765E-03
6.540022E+03	2.257100E-01	4.320394E-03
6.549916E+03	2.250282E-01	4.364304E-03
6.559810E+03	2.240818E-01	4.401976E-03
6.569704E+03	2.228625E-01	4.432972E-03
6.579598E+03	2.213665E-01	4.456950E-03
6.589492E+03	2.195944E-01	4.473659E-03
6.599387E+03	2.175507E-01	4.482954E-03
6.609281E+03	2.152440E-01	4.484783E-03
6.619175E+03	2.126863E-01	4.479197E-03
6.629069E+03	2.098930E-01	4.466334E-03
6.638963E+03	2.068819E-01	4.446422E-03
6.648857E+03	2.036629E-01	4.419537E-03
6.658751E+03	2.002790E-01	4.386505E-03
6.668645E+03	1.967427E-01	4.347527E-03
6.678540E+03	1.930781E-01	4.303076E-03
6.688434E+03	1.893093E-01	4.253662E-03
6.698328E+03	1.854604E-01	4.199817E-03
6.708222E+03	1.815550E-01	4.142084E-03
6.718116E+03	1.776157E-01	4.081014E-03
6.728010E+03	1.736552E-01	4.016940E-03
6.737904E+03	1.697117E-01	3.950810E-03
6.747799E+03	1.657947E-01	3.882920E-03
6.757693E+03	1.619213E-01	3.813752E-03
6.767587E+03	1.581066E-01	3.743757E-03
6.777481E+03	1.543641E-01	3.673349E-03
6.787375E+03	1.507057E-01	3.602910E-03
6.797269E+03	1.471412E-01	3.532781E-03
6.807163E+03	1.436789E-01	3.463267E-03
6.817057E+03	1.403255E-01	3.394633E-03
6.826952E+03	1.370793E-01	3.326934E-03
6.836846E+03	1.339584E-01	3.260714E-03
6.846740E+03	1.309581E-01	3.195954E-03
6.856634E+03	1.280799E-01	3.132782E-03
6.866528E+03	1.253240E-01	3.071295E-03
6.876422E+03	1.226901E-01	3.011563E-03
6.886316E+03	1.201768E-01	2.953632E-03
6.896211E+03	1.177820E-01	2.897525E-03
6.906105E+03	1.155032E-01	2.843247E-03
6.915999E+03	1.133372E-01	2.790784E-03
6.925893E+03	1.112805E-01	2.740106E-03
6.935787E+03	1.093293E-01	2.691174E-03
6.945681E+03	1.074795E-01	2.643935E-03
6.955575E+03	1.057211E-01	2.598194E-03
6.965469E+03	1.040610E-01	2.554158E-03
6.975364E+03	1.024890E-01	2.511617E-03
6.985258E+03	1.010006E-01	2.470496E-03
6.995152E+03	9.959128E-02	2.430715E-03
7.005046E+03	9.825654E-02	2.392197E-03
7.014940E+03	9.698684E-02	2.354739E-03
7.024834E+03	9.578826E-02	2.318515E-03
7.034728E+03	9.465142E-02	2.283323E-03
7.044623E+03	9.356736E-02	2.248973E-03
7.054517E+03	9.254221E-02	2.215635E-03
7.064411E+03	9.156727E-02	2.183126E-03
7.074305E+03	9.063426E-02	2.151271E-03
7.084199E+03	8.974958E-02	2.120247E-03
7.094093E+03	8.890055E-02	2.089778E-03
7.103987E+03	8.809377E-02	2.060043E-03
7.113881E+03	8.731711E-02	2.030786E-03
7.123776E+03	8.657281E-02	2.002083E-03
7.133670E+03	8.586318E-02	1.974017E-03
7.143564E+03	8.517687E-02	1.946354E-03
7.153458E+03	8.451659E-02	1.919187E-03
7.163352E+03	8.388059E-02	1.892508E-03
7.173246E+03	8.326729E-02	1.866315E-03
7.183140E+03	8.267525E-02	1.840609E-03
7.193035E+03	8.210324E-02	1.815400E-03
7.202929E+03	8.154579E-02	1.790606E-03
7.212823E+03	8.101069E-02	1.766439E-03
7.222717E+03	8.048840E-02	1.742732E-03
7.232611E+03	7.998691E-02	1.719704E-03
7.242505E+03	7.949699E-02	1.697201E-03
7.252399E+03	7.902680E-02	1.675446E-03
7.262293E+03	7.856742E-02	1.654300E-03
7.272188E+03	7.812288E-02	1.633901E-03
7.282082E+03	7.769302E-02	1.614301E-03
7.291976E+03	7.727357E-02	1.595467E-03
7.301870E+03	7.687291E-02	1.577632E-03
7.311764E+03	7.648686E-02	1.560767E-03
7.321658E+03	7.611139E-02	1.544854E-03
7.331552E+03	7.575081E-02	1.530043E-03
7.341447E+03	7.540938E-02	1.516485E-03
7.351341E+03	7.507896E-02	1.504079E-03
7.361235E+03	7.475975E-02	1.492898E-03
7.371129E+03	7.446007E-02	1.483173E-03
7.381023E+03	7.417582E-02	1.474888E-03
7.390917E+03	7.390292E-02	1.468029E-03
7.400811E+03	7.364941E-02	1.462819E-03
7.410705E+03	7.340691E-02	1.459156E-03
7.420600E+03	7.317910E-02	1.457173E-03
7.430494E+03	7.296138E-02	1.456838E-03
7.440388E+03	7.276108E-02	1.458353E-03
7.450282E+03	7.256923E-02	1.461588E-03
7.460176E+03	7.239262E-02	1.466729E-03
7.470070E+03	7.222182E-02	1.473620E-03
7.479964E+03	7.205912E-02	1.482299E-03
7.489859E+03	7.189851E-02	1.492604E-03
7.499753E+03	7.174573E-02	1.504612E-03
7.509647E+03	7.159018E-02	1.518055E-03
7.519541E+03	7.143301E-02	1.532903E-03
7.529435E+03	7.127104E-02	1.549031E-03
7.539329E+03	7.110097E-02	1.566305E-03
7.549223E+03	7.091922E-02	1.584578E-03
7.559117E+03	7.071823E-02	1.603605E-03
7.569012E+03	7.049827E-02	1.623312E-03
7.578906E+03	7.025589E-02	1.643533E-03
7.588800E+03	6.998778E-02	1.664102E-03
7.598694E+03	6.968711E-02	1.684759E-03
7.608588E+03	6.935549E-02	1.705441E-03
7.618482E+03	6.899115E-02	1.726002E-03
7.628376E+03	6.859303E-02	1.746310E-03
7.638271E+03	6.816055E-02	1.766243E-03
7.648165E+03	6.768980E-02	1.785590E-03
7.658059E+03	6.718537E-02	1.804362E-03
7.667953E+03	6.664855E-02	1.822489E-03
7.677847E+03	6.608129E-02	1.839921E-03
