#wls	flux	fluxerr
1.583061E+03	6.860622E-02	9.129456E-03
1.622638E+03	7.005196E-02	9.210879E-03
1.662214E+03	7.147921E-02	9.283751E-03
1.701791E+03	7.288854E-02	9.348151E-03
1.741367E+03	7.426986E-02	9.402814E-03
1.780944E+03	7.562757E-02	9.448357E-03
1.820520E+03	7.698194E-02	9.487332E-03
1.860097E+03	7.834387E-02	9.521021E-03
1.899673E+03	7.971447E-02	9.549462E-03
1.939250E+03	8.113825E-02	9.577816E-03
1.978827E+03	8.261021E-02	9.605173E-03
2.018403E+03	8.418293E-02	9.637255E-03
2.057980E+03	8.587163E-02	9.675194E-03
2.097556E+03	8.770761E-02	9.721793E-03
2.137133E+03	8.972373E-02	9.779788E-03
2.176709E+03	9.198413E-02	9.855021E-03
2.216286E+03	9.448237E-02	9.945406E-03
2.255862E+03	9.730149E-02	1.005812E-02
2.295439E+03	1.004649E-01	1.019366E-02
2.335015E+03	1.039945E-01	1.035215E-02
2.374592E+03	1.079790E-01	1.054006E-02
2.414168E+03	1.124151E-01	1.075435E-02
2.453745E+03	1.173863E-01	1.100013E-02
2.493321E+03	1.229492E-01	1.127940E-02
2.532898E+03	1.291443E-01	1.159224E-02
2.572475E+03	1.360669E-01	1.194325E-02
2.612051E+03	1.437468E-01	1.233065E-02
2.651628E+03	1.522259E-01	1.275348E-02
2.691204E+03	1.614710E-01	1.320437E-02
2.730781E+03	1.714604E-01	1.367715E-02
2.770357E+03	1.821178E-01	1.416169E-02
2.809934E+03	1.933326E-01	1.464590E-02
2.849510E+03	2.049850E-01	1.511808E-02
2.889087E+03	2.168953E-01	1.556333E-02
2.928663E+03	2.288485E-01	1.596592E-02
2.968240E+03	2.405667E-01	1.630777E-02
2.978134E+03	2.434341E-01	1.638234E-02
2.988028E+03	2.462861E-01	1.645330E-02
2.997922E+03	2.490882E-01	1.651839E-02
3.007816E+03	2.518348E-01	1.657736E-02
3.017710E+03	2.545529E-01	1.663208E-02
3.027605E+03	2.572375E-01	1.668228E-02
3.037499E+03	2.598217E-01	1.672374E-02
3.047393E+03	2.623632E-01	1.676031E-02
3.057287E+03	2.648578E-01	1.679182E-02
3.067181E+03	2.672690E-01	1.681607E-02
3.077075E+03	2.695918E-01	1.683290E-02
3.086969E+03	2.718541E-01	1.684419E-02
3.096864E+03	2.740189E-01	1.684778E-02
3.106758E+03	2.761145E-01	1.684557E-02
3.116652E+03	2.781036E-01	1.683545E-02
3.126546E+03	2.800151E-01	1.681932E-02
3.136440E+03	2.818121E-01	1.679513E-02
3.146334E+03	2.834903E-01	1.676282E-02
3.156228E+03	2.850790E-01	1.672432E-02
3.166122E+03	2.865742E-01	1.667954E-02
3.176017E+03	2.879073E-01	1.662470E-02
3.185911E+03	2.891729E-01	1.656547E-02
3.195805E+03	2.903026E-01	1.649809E-02
3.205699E+03	2.912936E-01	1.642262E-02
3.215593E+03	2.921756E-01	1.634096E-02
3.225487E+03	2.929139E-01	1.625137E-02
3.235381E+03	2.935383E-01	1.615570E-02
3.245276E+03	2.940148E-01	1.605228E-02
3.255170E+03	2.943736E-01	1.594300E-02
3.265064E+03	2.945813E-01	1.582623E-02
3.274958E+03	2.946684E-01	1.570384E-02
3.284852E+03	2.946020E-01	1.557427E-02
3.294746E+03	2.944130E-01	1.543938E-02
3.304640E+03	2.940694E-01	1.529768E-02
3.314534E+03	2.936024E-01	1.515101E-02
3.324429E+03	2.929802E-01	1.499794E-02
3.334323E+03	2.922345E-01	1.484027E-02
3.344217E+03	2.913349E-01	1.467666E-02
3.354111E+03	2.903124E-01	1.450888E-02
3.364005E+03	2.891382E-01	1.433565E-02
3.373899E+03	2.878429E-01	1.415869E-02
3.383793E+03	2.863992E-01	1.397682E-02
3.393688E+03	2.848382E-01	1.379174E-02
3.403582E+03	2.831332E-01	1.360230E-02
3.413476E+03	2.813161E-01	1.341020E-02
3.423370E+03	2.793898E-01	1.321572E-02
3.433264E+03	2.773304E-01	1.301785E-02
3.443158E+03	2.751438E-01	1.281699E-02
3.453052E+03	2.728636E-01	1.261479E-02
3.462946E+03	2.704992E-01	1.241169E-02
3.472841E+03	2.680363E-01	1.220709E-02
3.482735E+03	2.654897E-01	1.200169E-02
3.492629E+03	2.629006E-01	1.179736E-02
3.502523E+03	2.602836E-01	1.159472E-02
3.512417E+03	2.576288E-01	1.139331E-02
3.522311E+03	2.549757E-01	1.119483E-02
3.532205E+03	2.523132E-01	1.099875E-02
3.542100E+03	2.496784E-01	1.080662E-02
3.551994E+03	2.470595E-01	1.061784E-02
3.561888E+03	2.444899E-01	1.043378E-02
3.571782E+03	2.419563E-01	1.025377E-02
3.581676E+03	2.394891E-01	1.007901E-02
3.591570E+03	2.370733E-01	9.908766E-03
3.601464E+03	2.347358E-01	9.744067E-03
3.611358E+03	2.324598E-01	9.584101E-03
3.621253E+03	2.302695E-01	9.429770E-03
3.631147E+03	2.281661E-01	9.281016E-03
3.641041E+03	2.261305E-01	9.136951E-03
3.650935E+03	2.241631E-01	8.997501E-03
3.660829E+03	2.222825E-01	8.863323E-03
3.670723E+03	2.204673E-01	8.733473E-03
3.680617E+03	2.187344E-01	8.608526E-03
3.690512E+03	2.170799E-01	8.488247E-03
3.700406E+03	2.154629E-01	8.370963E-03
3.710300E+03	2.139342E-01	8.258582E-03
3.720194E+03	2.124524E-01	8.149425E-03
3.730088E+03	2.110124E-01	8.043251E-03
3.739982E+03	2.096264E-01	7.940474E-03
3.749876E+03	2.082714E-01	7.840167E-03
3.759770E+03	2.069586E-01	7.742721E-03
3.769665E+03	2.056652E-01	7.647241E-03
3.779559E+03	2.044021E-01	7.554109E-03
3.789453E+03	2.031469E-01	7.462472E-03
3.799347E+03	2.018944E-01	7.372122E-03
3.809241E+03	2.006554E-01	7.283444E-03
3.819135E+03	1.994087E-01	7.195661E-03
3.829029E+03	1.981655E-01	7.109174E-03
3.838924E+03	1.969059E-01	7.023262E-03
3.848818E+03	1.956414E-01	6.938347E-03
3.858712E+03	1.943534E-01	6.853771E-03
3.868606E+03	1.930395E-01	6.769462E-03
3.878500E+03	1.917123E-01	6.685875E-03
3.888394E+03	1.903555E-01	6.602454E-03
3.898288E+03	1.889685E-01	6.519189E-03
3.908182E+03	1.875650E-01	6.436576E-03
3.918077E+03	1.861311E-01	6.354148E-03
3.927971E+03	1.846815E-01	6.272419E-03
3.937865E+03	1.831901E-01	6.190522E-03
3.947759E+03	1.816861E-01	6.109458E-03
3.957653E+03	1.801713E-01	6.029297E-03
3.967547E+03	1.786220E-01	5.949257E-03
3.977441E+03	1.770672E-01	5.870320E-03
3.987336E+03	1.754973E-01	5.792166E-03
3.997230E+03	1.739278E-01	5.715321E-03
4.007124E+03	1.723497E-01	5.639487E-03
4.017018E+03	1.707547E-01	5.564394E-03
4.026912E+03	1.691703E-01	5.490951E-03
4.036806E+03	1.675998E-01	5.419251E-03
4.046700E+03	1.660231E-01	5.348647E-03
4.056594E+03	1.644667E-01	5.279989E-03
4.066489E+03	1.629223E-01	5.212999E-03
4.076383E+03	1.613928E-01	5.147770E-03
4.086277E+03	1.598811E-01	5.084381E-03
4.096171E+03	1.583897E-01	5.022905E-03
4.106065E+03	1.569209E-01	4.963404E-03
4.115959E+03	1.554869E-01	4.906250E-03
4.125853E+03	1.540684E-01	4.850824E-03
4.135748E+03	1.526869E-01	4.797788E-03
4.145642E+03	1.513227E-01	4.746514E-03
4.155536E+03	1.499958E-01	4.697609E-03
4.165430E+03	1.486954E-01	4.650726E-03
4.175324E+03	1.474109E-01	4.605490E-03
4.185218E+03	1.461595E-01	4.562365E-03
4.195112E+03	1.449293E-01	4.520902E-03
4.205006E+03	1.437083E-01	4.480655E-03
4.214901E+03	1.425113E-01	4.442018E-03
4.224795E+03	1.413166E-01	4.404245E-03
4.234689E+03	1.401382E-01	4.367703E-03
4.244583E+03	1.389545E-01	4.331654E-03
4.254477E+03	1.377704E-01	4.296191E-03
4.264371E+03	1.365823E-01	4.261134E-03
4.274265E+03	1.353865E-01	4.226313E-03
4.284159E+03	1.341799E-01	4.191566E-03
4.294054E+03	1.329596E-01	4.156751E-03
4.303948E+03	1.317158E-01	4.121502E-03
4.313842E+03	1.304555E-01	4.085981E-03
4.323736E+03	1.291783E-01	4.050128E-03
4.333630E+03	1.278846E-01	4.013904E-03
4.343524E+03	1.265684E-01	3.977070E-03
4.353418E+03	1.252465E-01	3.940112E-03
4.363313E+03	1.239068E-01	3.902606E-03
4.373207E+03	1.225530E-01	3.864622E-03
4.383101E+03	1.212028E-01	3.826687E-03
4.392995E+03	1.198463E-01	3.788449E-03
4.402889E+03	1.184878E-01	3.750017E-03
4.412783E+03	1.171456E-01	3.711932E-03
4.422677E+03	1.158038E-01	3.673672E-03
4.432571E+03	1.144869E-01	3.635985E-03
4.442466E+03	1.131861E-01	3.598570E-03
4.452360E+03	1.119119E-01	3.561745E-03
4.462254E+03	1.106621E-01	3.525418E-03
4.472148E+03	1.094464E-01	3.489890E-03
4.482042E+03	1.082682E-01	3.455252E-03
4.491936E+03	1.071246E-01	3.421400E-03
4.501830E+03	1.060186E-01	3.388420E-03
4.511725E+03	1.049584E-01	3.356567E-03
4.521619E+03	1.039462E-01	3.325903E-03
4.531513E+03	1.029781E-01	3.296299E-03
4.541407E+03	1.020560E-01	3.267805E-03
4.551301E+03	1.011868E-01	3.240636E-03
4.561195E+03	1.003659E-01	3.214645E-03
4.571089E+03	9.959967E-02	3.190026E-03
4.580983E+03	9.888857E-02	3.166790E-03
4.590878E+03	9.822242E-02	3.144606E-03
4.600772E+03	9.761180E-02	3.123806E-03
4.610666E+03	9.705649E-02	3.104378E-03
4.620560E+03	9.655093E-02	3.086137E-03
4.630454E+03	9.609458E-02	3.069060E-03
4.640348E+03	9.569160E-02	3.053272E-03
4.650242E+03	9.533587E-02	3.038569E-03
4.660137E+03	9.502617E-02	3.024906E-03
4.670031E+03	9.476582E-02	3.012377E-03
4.679925E+03	9.454823E-02	3.000766E-03
4.689819E+03	9.437626E-02	2.990153E-03
4.699713E+03	9.424293E-02	2.980305E-03
4.709607E+03	9.414590E-02	2.971140E-03
4.719501E+03	9.408271E-02	2.962570E-03
4.729395E+03	9.405548E-02	2.954651E-03
4.739290E+03	9.405660E-02	2.947133E-03
4.749184E+03	9.408321E-02	2.939918E-03
4.759078E+03	9.413709E-02	2.933051E-03
4.768972E+03	9.421051E-02	2.926283E-03
4.778866E+03	9.430047E-02	2.919512E-03
4.788760E+03	9.440874E-02	2.912785E-03
4.798654E+03	9.452780E-02	2.905865E-03
4.808549E+03	9.465490E-02	2.898661E-03
4.818443E+03	9.478758E-02	2.891094E-03
4.828337E+03	9.492816E-02	2.883233E-03
4.838231E+03	9.506533E-02	2.874732E-03
4.848125E+03	9.521130E-02	2.865962E-03
4.858019E+03	9.535073E-02	2.856458E-03
4.867913E+03	9.549186E-02	2.846473E-03
4.877807E+03	9.562936E-02	2.835850E-03
4.887702E+03	9.576296E-02	2.824585E-03
4.897596E+03	9.589266E-02	2.812683E-03
4.907490E+03	9.602351E-02	2.800300E-03
4.917384E+03	9.615162E-02	2.787327E-03
4.927278E+03	9.627802E-02	2.773800E-03
4.937172E+03	9.640406E-02	2.759767E-03
4.947066E+03	9.653587E-02	2.745410E-03
4.956961E+03	9.667061E-02	2.730653E-03
4.966855E+03	9.681018E-02	2.715557E-03
4.976749E+03	9.696123E-02	2.700315E-03
4.986643E+03	9.711672E-02	2.684734E-03
4.996537E+03	9.728794E-02	2.669135E-03
5.006431E+03	9.747706E-02	2.653579E-03
5.016325E+03	9.767703E-02	2.637876E-03
5.026219E+03	9.789906E-02	2.622334E-03
5.036114E+03	9.814048E-02	2.606882E-03
5.046008E+03	9.840311E-02	2.591572E-03
5.055902E+03	9.868853E-02	2.576446E-03
5.065796E+03	9.900272E-02	2.561663E-03
5.075690E+03	9.934227E-02	2.547133E-03
5.085584E+03	9.970805E-02	2.532881E-03
5.095478E+03	1.001052E-01	2.519040E-03
5.105373E+03	1.005295E-01	2.505505E-03
5.115267E+03	1.009808E-01	2.492275E-03
5.125161E+03	1.014586E-01	2.479349E-03
5.135055E+03	1.019667E-01	2.466826E-03
5.144949E+03	1.024992E-01	2.454572E-03
5.154843E+03	1.030545E-01	2.442563E-03
5.164737E+03	1.036304E-01	2.430767E-03
5.174631E+03	1.042291E-01	2.419254E-03
5.184526E+03	1.048429E-01	2.407871E-03
5.194420E+03	1.054683E-01	2.396567E-03
5.204314E+03	1.061061E-01	2.385401E-03
5.214208E+03	1.067472E-01	2.374203E-03
5.224102E+03	1.073867E-01	2.362915E-03
5.233996E+03	1.080242E-01	2.351580E-03
5.243890E+03	1.086489E-01	2.340027E-03
5.253785E+03	1.092549E-01	2.328191E-03
5.263679E+03	1.098404E-01	2.316113E-03
5.273573E+03	1.103939E-01	2.303622E-03
5.283467E+03	1.109081E-01	2.290661E-03
5.293361E+03	1.113762E-01	2.277175E-03
5.303255E+03	1.117959E-01	2.263220E-03
5.313149E+03	1.121608E-01	2.248759E-03
5.323043E+03	1.124543E-01	2.233567E-03
5.332938E+03	1.126810E-01	2.217841E-03
5.342832E+03	1.128314E-01	2.201498E-03
5.352726E+03	1.129075E-01	2.184680E-03
5.362620E+03	1.129026E-01	2.167358E-03
5.372514E+03	1.128226E-01	2.149737E-03
5.382408E+03	1.126652E-01	2.131863E-03
5.392302E+03	1.124351E-01	2.113900E-03
5.402196E+03	1.121384E-01	2.096035E-03
5.412091E+03	1.117872E-01	2.078550E-03
5.421985E+03	1.113892E-01	2.061615E-03
5.431879E+03	1.109478E-01	2.045240E-03
5.441773E+03	1.104715E-01	2.029513E-03
5.451667E+03	1.099687E-01	2.014513E-03
5.461561E+03	1.094577E-01	2.000493E-03
5.471455E+03	1.089318E-01	1.987246E-03
5.481350E+03	1.084084E-01	1.975006E-03
5.491244E+03	1.078898E-01	1.963729E-03
5.501138E+03	1.073878E-01	1.953540E-03
5.511032E+03	1.069084E-01	1.944468E-03
5.520926E+03	1.064480E-01	1.936363E-03
5.530820E+03	1.060260E-01	1.929500E-03
5.540714E+03	1.056331E-01	1.923631E-03
5.550608E+03	1.052832E-01	1.918936E-03
5.560503E+03	1.049801E-01	1.915416E-03
5.570397E+03	1.047227E-01	1.912983E-03
5.580291E+03	1.045189E-01	1.911721E-03
5.590185E+03	1.043669E-01	1.911535E-03
5.600079E+03	1.042739E-01	1.912501E-03
5.609973E+03	1.042376E-01	1.914522E-03
5.619867E+03	1.042645E-01	1.917668E-03
5.629762E+03	1.043517E-01	1.921838E-03
5.639656E+03	1.045055E-01	1.927099E-03
5.649550E+03	1.047223E-01	1.933343E-03
5.659444E+03	1.050081E-01	1.940634E-03
5.669338E+03	1.053589E-01	1.948860E-03
5.679232E+03	1.057803E-01	1.958081E-03
5.689126E+03	1.062681E-01	1.968181E-03
5.699020E+03	1.068324E-01	1.979304E-03
5.708915E+03	1.074594E-01	1.991157E-03
5.718809E+03	1.081588E-01	2.003879E-03
5.728703E+03	1.089311E-01	2.017440E-03
5.738597E+03	1.097767E-01	2.031806E-03
5.748491E+03	1.106911E-01	2.046854E-03
5.758385E+03	1.116748E-01	2.062549E-03
5.768279E+03	1.127333E-01	2.078951E-03
5.778174E+03	1.138674E-01	2.096033E-03
5.788068E+03	1.150782E-01	2.113769E-03
5.797962E+03	1.163618E-01	2.132043E-03
5.807856E+03	1.177250E-01	2.150930E-03
5.817750E+03	1.191643E-01	2.170320E-03
5.827644E+03	1.206871E-01	2.190300E-03
5.837538E+03	1.222962E-01	2.210868E-03
5.847432E+03	1.239892E-01	2.231927E-03
5.857327E+03	1.257747E-01	2.253581E-03
5.867221E+03	1.276568E-01	2.275846E-03
5.877115E+03	1.296339E-01	2.298635E-03
5.887009E+03	1.317162E-01	2.322071E-03
5.896903E+03	1.339087E-01	2.346179E-03
5.906797E+03	1.362102E-01	2.370879E-03
5.916691E+03	1.386319E-01	2.396300E-03
5.926586E+03	1.411790E-01	2.422465E-03
5.936480E+03	1.438501E-01	2.449283E-03
5.946374E+03	1.466626E-01	2.476984E-03
5.956268E+03	1.496074E-01	2.505346E-03
5.966162E+03	1.526874E-01	2.534353E-03
5.976056E+03	1.559181E-01	2.564201E-03
5.985950E+03	1.592863E-01	2.594611E-03
5.995844E+03	1.627974E-01	2.625621E-03
6.005739E+03	1.664403E-01	2.657009E-03
6.015633E+03	1.702237E-01	2.688880E-03
6.025527E+03	1.741228E-01	2.720825E-03
6.035421E+03	1.781320E-01	2.752758E-03
6.045315E+03	1.822343E-01	2.784439E-03
6.055209E+03	1.863997E-01	2.815459E-03
6.065103E+03	1.906099E-01	2.845626E-03
6.074998E+03	1.948335E-01	2.874588E-03
6.084892E+03	1.990342E-01	2.901963E-03
6.094786E+03	2.031706E-01	2.927351E-03
6.104680E+03	2.071876E-01	2.950205E-03
6.114574E+03	2.110448E-01	2.970247E-03
6.124468E+03	2.146901E-01	2.987087E-03
6.134362E+03	2.180704E-01	3.000377E-03
6.144256E+03	2.211332E-01	3.009829E-03
6.154151E+03	2.238192E-01	3.015104E-03
6.164045E+03	2.261054E-01	3.016385E-03
6.173939E+03	2.279366E-01	3.013446E-03
6.183833E+03	2.292999E-01	3.006623E-03
6.193727E+03	2.301859E-01	2.996289E-03
6.203621E+03	2.305908E-01	2.982858E-03
6.213515E+03	2.305584E-01	2.967319E-03
6.223410E+03	2.301052E-01	2.950251E-03
6.233304E+03	2.293035E-01	2.932887E-03
6.243198E+03	2.281941E-01	2.915994E-03
6.253092E+03	2.268568E-01	2.900770E-03
6.262986E+03	2.253638E-01	2.888262E-03
6.272880E+03	2.237872E-01	2.879407E-03
6.282774E+03	2.221849E-01	2.874717E-03
6.292668E+03	2.206398E-01	2.874969E-03
6.302563E+03	2.191859E-01	2.880321E-03
6.312457E+03	2.178895E-01	2.891365E-03
6.322351E+03	2.167672E-01	2.908073E-03
6.332245E+03	2.158568E-01	2.930725E-03
6.342139E+03	2.151771E-01	2.959388E-03
6.352033E+03	2.147388E-01	2.994043E-03
6.361927E+03	2.145447E-01	3.034598E-03
6.371822E+03	2.145908E-01	3.080884E-03
6.381716E+03	2.148667E-01	3.132659E-03
6.391610E+03	2.153463E-01	3.189460E-03
6.401504E+03	2.160286E-01	3.251196E-03
6.411398E+03	2.168780E-01	3.317263E-03
6.421292E+03	2.178553E-01	3.386979E-03
6.431186E+03	2.189484E-01	3.460063E-03
6.441080E+03	2.201020E-01	3.535540E-03
6.450975E+03	2.212998E-01	3.613022E-03
6.460869E+03	2.224835E-01	3.691413E-03
6.470763E+03	2.236247E-01	3.770067E-03
6.480657E+03	2.246958E-01	3.848328E-03
6.490551E+03	2.256385E-01	3.924983E-03
6.500445E+03	2.264275E-01	3.999346E-03
6.510339E+03	2.270294E-01	4.070562E-03
6.520234E+03	2.274244E-01	4.138002E-03
6.530128E+03	2.275644E-01	4.200496E-03
6.540022E+03	2.274372E-01	4.257508E-03
6.549916E+03	2.270244E-01	4.308381E-03
6.559810E+03	2.263126E-01	4.352547E-03
6.569704E+03	2.253036E-01	4.389734E-03
6.579598E+03	2.239726E-01	4.419161E-03
6.589492E+03	2.223316E-01	4.440768E-03
6.599387E+03	2.203866E-01	4.454402E-03
6.609281E+03	2.181478E-01	4.460020E-03
6.619175E+03	2.156397E-01	4.457897E-03
6.629069E+03	2.128597E-01	4.447778E-03
6.638963E+03	2.098387E-01	4.430128E-03
6.648857E+03	2.065998E-01	4.405291E-03
6.658751E+03	2.031679E-01	4.373676E-03
6.668645E+03	1.995784E-01	4.335963E-03
6.678540E+03	1.958389E-01	4.292254E-03
6.688434E+03	1.919859E-01	4.243312E-03
6.698328E+03	1.880548E-01	4.189910E-03
6.708222E+03	1.840534E-01	4.132233E-03
6.718116E+03	1.800155E-01	4.071070E-03
6.728010E+03	1.759726E-01	4.007187E-03
6.737904E+03	1.719296E-01	3.940760E-03
6.747799E+03	1.679230E-01	3.872701E-03
6.757693E+03	1.639545E-01	3.803142E-03
6.767587E+03	1.600562E-01	3.732919E-03
6.777481E+03	1.562266E-01	3.662106E-03
6.787375E+03	1.524930E-01	3.591446E-03
6.797269E+03	1.488510E-01	3.520945E-03
6.807163E+03	1.453234E-01	3.451253E-03
6.817057E+03	1.419030E-01	3.382305E-03
6.826952E+03	1.386088E-01	3.314662E-03
6.836846E+03	1.354375E-01	3.248348E-03
6.846740E+03	1.323851E-01	3.183370E-03
6.856634E+03	1.294658E-01	3.120161E-03
6.866528E+03	1.266731E-01	3.058658E-03
6.876422E+03	1.240003E-01	2.998784E-03
6.886316E+03	1.214578E-01	2.940871E-03
6.896211E+03	1.190373E-01	2.884790E-03
6.906105E+03	1.167357E-01	2.830541E-03
6.915999E+03	1.145497E-01	2.778104E-03
6.925893E+03	1.124700E-01	2.727313E-03
6.935787E+03	1.105034E-01	2.678389E-03
6.945681E+03	1.086401E-01	2.631142E-03
6.955575E+03	1.068753E-01	2.585505E-03
6.965469E+03	1.052045E-01	2.541408E-03
6.975364E+03	1.036178E-01	2.498653E-03
6.985258E+03	1.021207E-01	2.457404E-03
6.995152E+03	1.007032E-01	2.417459E-03
7.005046E+03	9.936073E-02	2.378733E-03
7.014940E+03	9.808868E-02	2.341147E-03
7.024834E+03	9.687785E-02	2.304507E-03
7.034728E+03	9.573348E-02	2.268965E-03
7.044623E+03	9.464666E-02	2.234333E-03
7.054517E+03	9.361339E-02	2.200540E-03
7.064411E+03	9.262536E-02	2.167416E-03
7.074305E+03	9.168820E-02	2.135116E-03
7.084199E+03	9.079393E-02	2.103476E-03
7.094093E+03	8.993499E-02	2.072347E-03
7.103987E+03	8.911734E-02	2.041891E-03
7.113881E+03	8.832945E-02	2.011869E-03
7.123776E+03	8.757756E-02	1.982451E-03
7.133670E+03	8.685071E-02	1.953415E-03
7.143564E+03	8.615112E-02	1.924842E-03
7.153458E+03	8.547687E-02	1.896719E-03
7.163352E+03	8.483046E-02	1.869134E-03
7.173246E+03	8.420186E-02	1.841899E-03
7.183140E+03	8.359394E-02	1.815113E-03
7.193035E+03	8.300544E-02	1.788787E-03
7.202929E+03	8.243532E-02	1.762937E-03
7.212823E+03	8.187855E-02	1.737499E-03
7.222717E+03	8.134253E-02	1.712674E-03
7.232611E+03	8.081845E-02	1.688322E-03
7.242505E+03	8.031389E-02	1.664650E-03
7.252399E+03	7.982036E-02	1.641532E-03
7.262293E+03	7.934162E-02	1.619098E-03
7.272188E+03	7.888144E-02	1.597481E-03
7.282082E+03	7.843178E-02	1.576573E-03
7.291976E+03	7.799270E-02	1.556438E-03
7.301870E+03	7.757212E-02	1.537296E-03
7.311764E+03	7.716629E-02	1.519134E-03
7.321658E+03	7.677154E-02	1.501946E-03
7.331552E+03	7.639205E-02	1.485882E-03
7.341447E+03	7.603194E-02	1.471090E-03
7.351341E+03	7.568388E-02	1.457497E-03
7.361235E+03	7.534818E-02	1.445181E-03
7.371129E+03	7.503283E-02	1.434367E-03
7.381023E+03	7.473423E-02	1.425056E-03
7.390917E+03	7.444884E-02	1.417251E-03
7.400811E+03	7.418056E-02	1.411097E-03
7.410705E+03	7.392939E-02	1.406663E-03
7.420600E+03	7.369523E-02	1.404011E-03
7.430494E+03	7.347399E-02	1.403129E-03
7.440388E+03	7.327268E-02	1.404209E-03
7.450282E+03	7.308315E-02	1.407152E-03
7.460176E+03	7.290811E-02	1.412062E-03
7.470070E+03	7.274632E-02	1.418954E-03
7.479964E+03	7.259251E-02	1.427718E-03
7.489859E+03	7.245219E-02	1.438426E-03
7.499753E+03	7.231569E-02	1.450843E-03
7.509647E+03	7.218404E-02	1.464943E-03
7.519541E+03	7.205050E-02	1.480535E-03
7.529435E+03	7.191907E-02	1.497643E-03
7.539329E+03	7.177851E-02	1.515969E-03
7.549223E+03	7.162846E-02	1.535434E-03
7.559117E+03	7.146449E-02	1.555869E-03
7.569012E+03	7.127835E-02	1.577009E-03
7.578906E+03	7.106916E-02	1.598746E-03
7.588800E+03	7.083255E-02	1.620885E-03
7.598694E+03	7.056437E-02	1.643229E-03
7.608588E+03	7.025741E-02	1.665504E-03
7.618482E+03	6.991621E-02	1.687701E-03
7.628376E+03	6.953166E-02	1.709487E-03
7.638271E+03	6.910300E-02	1.730719E-03
7.648165E+03	6.863777E-02	1.751464E-03
7.658059E+03	6.813004E-02	1.771453E-03
7.667953E+03	6.758556E-02	1.790717E-03
7.677847E+03	6.700360E-02	1.809123E-03
