#wls	flux	fluxerr
1.583061E+03	6.892385E-02	9.104427E-03
1.622638E+03	7.038889E-02	9.185682E-03
1.662214E+03	7.183382E-02	9.258079E-03
1.701791E+03	7.324632E-02	9.320066E-03
1.741367E+03	7.462802E-02	9.371928E-03
1.780944E+03	7.600888E-02	9.417459E-03
1.820520E+03	7.737084E-02	9.454392E-03
1.860097E+03	7.872427E-02	9.484006E-03
1.899673E+03	8.010982E-02	9.511122E-03
1.939250E+03	8.153267E-02	9.536121E-03
1.978827E+03	8.301493E-02	9.561305E-03
2.018403E+03	8.458249E-02	9.589248E-03
2.057980E+03	8.627860E-02	9.624272E-03
2.097556E+03	8.812134E-02	9.667617E-03
2.137133E+03	9.014398E-02	9.722022E-03
2.176709E+03	9.241095E-02	9.793279E-03
2.216286E+03	9.493093E-02	9.880867E-03
2.255862E+03	9.777272E-02	9.990320E-03
2.295439E+03	1.009441E-01	1.012051E-02
2.335015E+03	1.045137E-01	1.027619E-02
2.374592E+03	1.085232E-01	1.045900E-02
2.414168E+03	1.130020E-01	1.066904E-02
2.453745E+03	1.180179E-01	1.090976E-02
2.493321E+03	1.236282E-01	1.118308E-02
2.532898E+03	1.299122E-01	1.149245E-02
2.572475E+03	1.368923E-01	1.183572E-02
2.612051E+03	1.446758E-01	1.221781E-02
2.651628E+03	1.532663E-01	1.263421E-02
2.691204E+03	1.626504E-01	1.307909E-02
2.730781E+03	1.727815E-01	1.354420E-02
2.770357E+03	1.836020E-01	1.402085E-02
2.809934E+03	1.949709E-01	1.449475E-02
2.849510E+03	2.067855E-01	1.495563E-02
2.889087E+03	2.188302E-01	1.538628E-02
2.928663E+03	2.309055E-01	1.577254E-02
2.968240E+03	2.427520E-01	1.609808E-02
2.978134E+03	2.456420E-01	1.616792E-02
2.988028E+03	2.485120E-01	1.623384E-02
2.997922E+03	2.513272E-01	1.629364E-02
3.007816E+03	2.541134E-01	1.634907E-02
3.017710E+03	2.568349E-01	1.639794E-02
3.027605E+03	2.594866E-01	1.644003E-02
3.037499E+03	2.620949E-01	1.647713E-02
3.047393E+03	2.646231E-01	1.650707E-02
3.057287E+03	2.670985E-01	1.653165E-02
3.067181E+03	2.695159E-01	1.655068E-02
3.077075E+03	2.718393E-01	1.656207E-02
3.086969E+03	2.740634E-01	1.656567E-02
3.096864E+03	2.762156E-01	1.656331E-02
3.106758E+03	2.782597E-01	1.655296E-02
3.116652E+03	2.802228E-01	1.653641E-02
3.126546E+03	2.821013E-01	1.651360E-02
3.136440E+03	2.838583E-01	1.648255E-02
3.146334E+03	2.854900E-01	1.644324E-02
3.156228E+03	2.870249E-01	1.639751E-02
3.166122E+03	2.884594E-01	1.634534E-02
3.176017E+03	2.897577E-01	1.628488E-02
3.185911E+03	2.909168E-01	1.621619E-02
3.195805E+03	2.919981E-01	1.614291E-02
3.205699E+03	2.929025E-01	1.605973E-02
3.215593E+03	2.937235E-01	1.597202E-02
3.225487E+03	2.943634E-01	1.587467E-02
3.235381E+03	2.949155E-01	1.577294E-02
3.245276E+03	2.953149E-01	1.566354E-02
3.255170E+03	2.955602E-01	1.554664E-02
3.265064E+03	2.957131E-01	1.542570E-02
3.274958E+03	2.956789E-01	1.529596E-02
3.284852E+03	2.955507E-01	1.516250E-02
3.294746E+03	2.952353E-01	1.502071E-02
3.304640E+03	2.948254E-01	1.487554E-02
3.314534E+03	2.942598E-01	1.472408E-02
3.324429E+03	2.935695E-01	1.456810E-02
3.334323E+03	2.927254E-01	1.440634E-02
3.344217E+03	2.917587E-01	1.424053E-02
3.354111E+03	2.906412E-01	1.406949E-02
3.364005E+03	2.894042E-01	1.389493E-02
3.373899E+03	2.880494E-01	1.371707E-02
3.383793E+03	2.865505E-01	1.353485E-02
3.393688E+03	2.849386E-01	1.334989E-02
3.403582E+03	2.832169E-01	1.316248E-02
3.413476E+03	2.813604E-01	1.297162E-02
3.423370E+03	2.794011E-01	1.277891E-02
3.433264E+03	2.773165E-01	1.258345E-02
3.443158E+03	2.751385E-01	1.238680E-02
3.453052E+03	2.728738E-01	1.218929E-02
3.462946E+03	2.705059E-01	1.199023E-02
3.472841E+03	2.680725E-01	1.179131E-02
3.482735E+03	2.655633E-01	1.159208E-02
3.492629E+03	2.630424E-01	1.139532E-02
3.502523E+03	2.604514E-01	1.119848E-02
3.512417E+03	2.578772E-01	1.100526E-02
3.522311E+03	2.552863E-01	1.081417E-02
3.532205E+03	2.527149E-01	1.062669E-02
3.542100E+03	2.501526E-01	1.044229E-02
3.551994E+03	2.476335E-01	1.026233E-02
3.561888E+03	2.451447E-01	1.008618E-02
3.571782E+03	2.427389E-01	9.915907E-03
3.581676E+03	2.403795E-01	9.749906E-03
3.591570E+03	2.380736E-01	9.588369E-03
3.601464E+03	2.358468E-01	9.432230E-03
3.611358E+03	2.337027E-01	9.281516E-03
3.621253E+03	2.316232E-01	9.135406E-03
3.631147E+03	2.296300E-01	8.994653E-03
3.641041E+03	2.277226E-01	8.859129E-03
3.650935E+03	2.258815E-01	8.727974E-03
3.660829E+03	2.241236E-01	8.601754E-03
3.670723E+03	2.224463E-01	8.480276E-03
3.680617E+03	2.208276E-01	8.362609E-03
3.690512E+03	2.192639E-01	8.248549E-03
3.700406E+03	2.177865E-01	8.139203E-03
3.710300E+03	2.163368E-01	8.032302E-03
3.720194E+03	2.149618E-01	7.929549E-03
3.730088E+03	2.136210E-01	7.829373E-03
3.739982E+03	2.123251E-01	7.732134E-03
3.749876E+03	2.110512E-01	7.636949E-03
3.759770E+03	2.098094E-01	7.544159E-03
3.769665E+03	2.085771E-01	7.452915E-03
3.779559E+03	2.073642E-01	7.363555E-03
3.789453E+03	2.061642E-01	7.275828E-03
3.799347E+03	2.049554E-01	7.188956E-03
3.809241E+03	2.037323E-01	7.102751E-03
3.819135E+03	2.025053E-01	7.017568E-03
3.829029E+03	2.012692E-01	6.933231E-03
3.838924E+03	2.000045E-01	6.849076E-03
3.848818E+03	1.987222E-01	6.765494E-03
3.858712E+03	1.974046E-01	6.681891E-03
3.868606E+03	1.960492E-01	6.598208E-03
3.878500E+03	1.946686E-01	6.514885E-03
3.888394E+03	1.932613E-01	6.431888E-03
3.898288E+03	1.918128E-01	6.348754E-03
3.908182E+03	1.903371E-01	6.265968E-03
3.918077E+03	1.888082E-01	6.182696E-03
3.927971E+03	1.872676E-01	6.100323E-03
3.937865E+03	1.856780E-01	6.017644E-03
3.947759E+03	1.840808E-01	5.936022E-03
3.957653E+03	1.824407E-01	5.854334E-03
3.967547E+03	1.807866E-01	5.773521E-03
3.977441E+03	1.791098E-01	5.693316E-03
3.987336E+03	1.774264E-01	5.614244E-03
3.997230E+03	1.757284E-01	5.536056E-03
4.007124E+03	1.740204E-01	5.458900E-03
4.017018E+03	1.723066E-01	5.382919E-03
4.026912E+03	1.706027E-01	5.308599E-03
4.036806E+03	1.689015E-01	5.235715E-03
4.046700E+03	1.672180E-01	5.164726E-03
4.056594E+03	1.655345E-01	5.095079E-03
4.066489E+03	1.638762E-01	5.027550E-03
4.076383E+03	1.622360E-01	4.961908E-03
4.086277E+03	1.606175E-01	4.898251E-03
4.096171E+03	1.590337E-01	4.836968E-03
4.106065E+03	1.574674E-01	4.777523E-03
4.115959E+03	1.559410E-01	4.720581E-03
4.125853E+03	1.544465E-01	4.665886E-03
4.135748E+03	1.529856E-01	4.613475E-03
4.145642E+03	1.515593E-01	4.563363E-03
4.155536E+03	1.501679E-01	4.515546E-03
4.165430E+03	1.488112E-01	4.469997E-03
4.175324E+03	1.474880E-01	4.426631E-03
4.185218E+03	1.462052E-01	4.385572E-03
4.195112E+03	1.449426E-01	4.346139E-03
4.205006E+03	1.437056E-01	4.308415E-03
4.214901E+03	1.424902E-01	4.272207E-03
4.224795E+03	1.412917E-01	4.237304E-03
4.234689E+03	1.401052E-01	4.203488E-03
4.244583E+03	1.389256E-01	4.170537E-03
4.254477E+03	1.377477E-01	4.138229E-03
4.264371E+03	1.365667E-01	4.106356E-03
4.274265E+03	1.353704E-01	4.074484E-03
4.284159E+03	1.341701E-01	4.042891E-03
4.294054E+03	1.329470E-01	4.010955E-03
4.303948E+03	1.317065E-01	3.978772E-03
4.313842E+03	1.304397E-01	3.946021E-03
4.323736E+03	1.291606E-01	3.913070E-03
4.333630E+03	1.278554E-01	3.879445E-03
4.343524E+03	1.265327E-01	3.845353E-03
4.353418E+03	1.251946E-01	3.810816E-03
4.363313E+03	1.238374E-01	3.775671E-03
4.373207E+03	1.224715E-01	3.740197E-03
4.383101E+03	1.210948E-01	3.704281E-03
4.392995E+03	1.197245E-01	3.668422E-03
4.402889E+03	1.183465E-01	3.632147E-03
4.412783E+03	1.169845E-01	3.596159E-03
4.422677E+03	1.156311E-01	3.560199E-03
4.432571E+03	1.142912E-01	3.524396E-03
4.442466E+03	1.129756E-01	3.489060E-03
4.452360E+03	1.116885E-01	3.454306E-03
4.462254E+03	1.104284E-01	3.420067E-03
4.472148E+03	1.092048E-01	3.386625E-03
4.482042E+03	1.080155E-01	3.353903E-03
4.491936E+03	1.068639E-01	3.321994E-03
4.501830E+03	1.057583E-01	3.291147E-03
4.511725E+03	1.046957E-01	3.261264E-03
4.521619E+03	1.036837E-01	3.232574E-03
4.531513E+03	1.027189E-01	3.204965E-03
4.541407E+03	1.018081E-01	3.178644E-03
4.551301E+03	1.009473E-01	3.153487E-03
4.561195E+03	1.001377E-01	3.129527E-03
4.571089E+03	9.938512E-02	3.106938E-03
4.580983E+03	9.868023E-02	3.085427E-03
4.590878E+03	9.803784E-02	3.065454E-03
4.600772E+03	9.744357E-02	3.046565E-03
4.610666E+03	9.690674E-02	3.029047E-03
4.620560E+03	9.642220E-02	3.012733E-03
4.630454E+03	9.598927E-02	2.997597E-03
4.640348E+03	9.561163E-02	2.983748E-03
4.650242E+03	9.528351E-02	2.970999E-03
4.660137E+03	9.500359E-02	2.959300E-03
4.670031E+03	9.477023E-02	2.948594E-03
4.679925E+03	9.458605E-02	2.938952E-03
4.689819E+03	9.444447E-02	2.930162E-03
4.699713E+03	9.433883E-02	2.922008E-03
4.709607E+03	9.427980E-02	2.914809E-03
4.719501E+03	9.425151E-02	2.908065E-03
4.729395E+03	9.425546E-02	2.901813E-03
4.739290E+03	9.429296E-02	2.896083E-03
4.749184E+03	9.435651E-02	2.890634E-03
4.759078E+03	9.444281E-02	2.885356E-03
4.768972E+03	9.454860E-02	2.880141E-03
4.778866E+03	9.467056E-02	2.874879E-03
4.788760E+03	9.480972E-02	2.869595E-03
4.798654E+03	9.495434E-02	2.863926E-03
4.808549E+03	9.510995E-02	2.858037E-03
4.818443E+03	9.526948E-02	2.851709E-03
4.828337E+03	9.543037E-02	2.844865E-03
4.838231E+03	9.559041E-02	2.837436E-03
4.848125E+03	9.574766E-02	2.829369E-03
4.858019E+03	9.590490E-02	2.820745E-03
4.867913E+03	9.605253E-02	2.811285E-03
4.877807E+03	9.619835E-02	2.801223E-03
4.887702E+03	9.633787E-02	2.790434E-03
4.897596E+03	9.646702E-02	2.778805E-03
4.907490E+03	9.659487E-02	2.766608E-03
4.917384E+03	9.671809E-02	2.753753E-03
4.927278E+03	9.683801E-02	2.740286E-03
4.937172E+03	9.696043E-02	2.726380E-03
4.947066E+03	9.707875E-02	2.711857E-03
4.956961E+03	9.720349E-02	2.697018E-03
4.966855E+03	9.732843E-02	2.681700E-03
4.976749E+03	9.746438E-02	2.666207E-03
4.986643E+03	9.760955E-02	2.650495E-03
4.996537E+03	9.776637E-02	2.634637E-03
5.006431E+03	9.793732E-02	2.618704E-03
5.016325E+03	9.812480E-02	2.602764E-03
5.026219E+03	9.833112E-02	2.586883E-03
5.036114E+03	9.856268E-02	2.571229E-03
5.046008E+03	9.881312E-02	2.555638E-03
5.055902E+03	9.909266E-02	2.540377E-03
5.065796E+03	9.939872E-02	2.525379E-03
5.075690E+03	9.973268E-02	2.510679E-03
5.085584E+03	1.000956E-01	2.496306E-03
5.095478E+03	1.004883E-01	2.482280E-03
5.105373E+03	1.009110E-01	2.468613E-03
5.115267E+03	1.013682E-01	2.455413E-03
5.125161E+03	1.018553E-01	2.442573E-03
5.135055E+03	1.023671E-01	2.429979E-03
5.144949E+03	1.029112E-01	2.417819E-03
5.154843E+03	1.034816E-01	2.405964E-03
5.164737E+03	1.040806E-01	2.394483E-03
5.174631E+03	1.046970E-01	2.383137E-03
5.184526E+03	1.053365E-01	2.372083E-03
5.194420E+03	1.059912E-01	2.361172E-03
5.204314E+03	1.066573E-01	2.350352E-03
5.214208E+03	1.073303E-01	2.339566E-03
5.224102E+03	1.080051E-01	2.328752E-03
5.233996E+03	1.086810E-01	2.317944E-03
5.243890E+03	1.093428E-01	2.306883E-03
5.253785E+03	1.099932E-01	2.295693E-03
5.263679E+03	1.106253E-01	2.284302E-03
5.273573E+03	1.112228E-01	2.272453E-03
5.283467E+03	1.117872E-01	2.260268E-03
5.293361E+03	1.123060E-01	2.247586E-03
5.303255E+03	1.127712E-01	2.234349E-03
5.313149E+03	1.131750E-01	2.220507E-03
5.323043E+03	1.135099E-01	2.206021E-03
5.332938E+03	1.137737E-01	2.190959E-03
5.342832E+03	1.139560E-01	2.175230E-03
5.352726E+03	1.140572E-01	2.158950E-03
5.362620E+03	1.140655E-01	2.142004E-03
5.372514E+03	1.139908E-01	2.124675E-03
5.382408E+03	1.138317E-01	2.107031E-03
5.392302E+03	1.135984E-01	2.089344E-03
5.402196E+03	1.132935E-01	2.071730E-03
5.412091E+03	1.129254E-01	2.054404E-03
5.421985E+03	1.125030E-01	2.037550E-03
5.431879E+03	1.120404E-01	2.021364E-03
5.441773E+03	1.115423E-01	2.005862E-03
5.451667E+03	1.110180E-01	1.991128E-03
5.461561E+03	1.104810E-01	1.977321E-03
5.471455E+03	1.099353E-01	1.964423E-03
5.481350E+03	1.093889E-01	1.952489E-03
5.491244E+03	1.088537E-01	1.941642E-03
5.501138E+03	1.083322E-01	1.931836E-03
5.511032E+03	1.078306E-01	1.923097E-03
5.520926E+03	1.073592E-01	1.915520E-03
5.530820E+03	1.069188E-01	1.909040E-03
5.540714E+03	1.065142E-01	1.903664E-03
5.550608E+03	1.061540E-01	1.899469E-03
5.560503E+03	1.058420E-01	1.896455E-03
5.570397E+03	1.055733E-01	1.894462E-03
5.580291E+03	1.053637E-01	1.893712E-03
5.590185E+03	1.052032E-01	1.893965E-03
5.600079E+03	1.051028E-01	1.895361E-03
5.609973E+03	1.050647E-01	1.897887E-03
5.619867E+03	1.050865E-01	1.901447E-03
5.629762E+03	1.051700E-01	1.906024E-03
5.639656E+03	1.053207E-01	1.911672E-03
5.649550E+03	1.055356E-01	1.918293E-03
5.659444E+03	1.058200E-01	1.925937E-03
5.669338E+03	1.061703E-01	1.934499E-03
5.679232E+03	1.065915E-01	1.944027E-03
5.689126E+03	1.070796E-01	1.954410E-03
5.699020E+03	1.076393E-01	1.965693E-03
5.708915E+03	1.082664E-01	1.977760E-03
5.718809E+03	1.089656E-01	1.990652E-03
5.728703E+03	1.097323E-01	2.004252E-03
5.738597E+03	1.105711E-01	2.018599E-03
5.748491E+03	1.114776E-01	2.033573E-03
5.758385E+03	1.124565E-01	2.049217E-03
5.768279E+03	1.135035E-01	2.065411E-03
5.778174E+03	1.146235E-01	2.082202E-03
5.788068E+03	1.158175E-01	2.099559E-03
5.797962E+03	1.170814E-01	2.117368E-03
5.807856E+03	1.184213E-01	2.135689E-03
5.817750E+03	1.198340E-01	2.154417E-03
5.827644E+03	1.213262E-01	2.173626E-03
5.837538E+03	1.229004E-01	2.193308E-03
5.847432E+03	1.245543E-01	2.213373E-03
5.857327E+03	1.262964E-01	2.233916E-03
5.867221E+03	1.281252E-01	2.254858E-03
5.877115E+03	1.300501E-01	2.276309E-03
5.887009E+03	1.320759E-01	2.298292E-03
5.896903E+03	1.342023E-01	2.320742E-03
5.906797E+03	1.364399E-01	2.343783E-03
5.916691E+03	1.387888E-01	2.367353E-03
5.926586E+03	1.412660E-01	2.391676E-03
5.936480E+03	1.438657E-01	2.416586E-03
5.946374E+03	1.465932E-01	2.442105E-03
5.956268E+03	1.494652E-01	2.468447E-03
5.966162E+03	1.524740E-01	2.495411E-03
5.976056E+03	1.556222E-01	2.522982E-03
5.985950E+03	1.589244E-01	2.551333E-03
5.995844E+03	1.623677E-01	2.580197E-03
6.005739E+03	1.659495E-01	2.609487E-03
6.015633E+03	1.696783E-01	2.639301E-03
6.025527E+03	1.735323E-01	2.669271E-03
6.035421E+03	1.775065E-01	2.699316E-03
6.045315E+03	1.815849E-01	2.729207E-03
6.055209E+03	1.857391E-01	2.758556E-03
6.065103E+03	1.899582E-01	2.787278E-03
6.074998E+03	1.941953E-01	2.814787E-03
6.084892E+03	1.984125E-01	2.840688E-03
6.094786E+03	2.025828E-01	2.864792E-03
6.104680E+03	2.066411E-01	2.886419E-03
6.114574E+03	2.105419E-01	2.905233E-03
6.124468E+03	2.142276E-01	2.920787E-03
6.134362E+03	2.176381E-01	2.932662E-03
6.144256E+03	2.207036E-01	2.940368E-03
6.154151E+03	2.233745E-01	2.943735E-03
6.164045E+03	2.255975E-01	2.942578E-03
6.173939E+03	2.273278E-01	2.936852E-03
6.183833E+03	2.285332E-01	2.926679E-03
6.193727E+03	2.291975E-01	2.912378E-03
6.203621E+03	2.293150E-01	2.894368E-03
6.213515E+03	2.289214E-01	2.873540E-03
6.223410E+03	2.280667E-01	2.850902E-03
6.233304E+03	2.268199E-01	2.827621E-03
6.243198E+03	2.252631E-01	2.804951E-03
6.253092E+03	2.234758E-01	2.784046E-03
6.262986E+03	2.215672E-01	2.766367E-03
6.272880E+03	2.196056E-01	2.752764E-03
6.282774E+03	2.176804E-01	2.744106E-03
6.292668E+03	2.158711E-01	2.741092E-03
6.302563E+03	2.142190E-01	2.743955E-03
6.312457E+03	2.127727E-01	2.753042E-03
6.322351E+03	2.115866E-01	2.768822E-03
6.332245E+03	2.106778E-01	2.791319E-03
6.342139E+03	2.100621E-01	2.820578E-03
6.352033E+03	2.097371E-01	2.856438E-03
6.361927E+03	2.097190E-01	2.899016E-03
6.371822E+03	2.099809E-01	2.947870E-03
6.381716E+03	2.105163E-01	3.002847E-03
6.391610E+03	2.113126E-01	3.063726E-03
6.401504E+03	2.123257E-01	3.129827E-03
6.411398E+03	2.135336E-01	3.200779E-03
6.421292E+03	2.149020E-01	3.276012E-03
6.431186E+03	2.163930E-01	3.354882E-03
6.441080E+03	2.179665E-01	3.436678E-03
6.450975E+03	2.195807E-01	3.520625E-03
6.460869E+03	2.211923E-01	3.605893E-03
6.470763E+03	2.227578E-01	3.691603E-03
6.480657E+03	2.242343E-01	3.776842E-03
6.490551E+03	2.255796E-01	3.860676E-03
6.500445E+03	2.267440E-01	3.941994E-03
6.510339E+03	2.277097E-01	4.020201E-03
6.520234E+03	2.284330E-01	4.094228E-03
6.530128E+03	2.288841E-01	4.163221E-03
6.540022E+03	2.290379E-01	4.226388E-03
6.549916E+03	2.288743E-01	4.283018E-03
6.559810E+03	2.283788E-01	4.332494E-03
6.569704E+03	2.275326E-01	4.374116E-03
6.579598E+03	2.263520E-01	4.407863E-03
6.589492E+03	2.248294E-01	4.433274E-03
6.599387E+03	2.229721E-01	4.450195E-03
6.609281E+03	2.207923E-01	4.458592E-03
6.619175E+03	2.183065E-01	4.458548E-03
6.629069E+03	2.155350E-01	4.450255E-03
6.638963E+03	2.125011E-01	4.434003E-03
6.648857E+03	2.092306E-01	4.410171E-03
6.658751E+03	2.057513E-01	4.379211E-03
6.668645E+03	2.021005E-01	4.341828E-03
6.678540E+03	1.982899E-01	4.298203E-03
6.688434E+03	1.943578E-01	4.249124E-03
6.698328E+03	1.903329E-01	4.195205E-03
6.708222E+03	1.862511E-01	4.137255E-03
6.718116E+03	1.821227E-01	4.075530E-03
6.728010E+03	1.779884E-01	4.010999E-03
6.737904E+03	1.738558E-01	3.943896E-03
6.747799E+03	1.697612E-01	3.875130E-03
6.757693E+03	1.657086E-01	3.804883E-03
6.767587E+03	1.617294E-01	3.733978E-03
6.777481E+03	1.578309E-01	3.662692E-03
6.787375E+03	1.540190E-01	3.591270E-03
6.797269E+03	1.503178E-01	3.520389E-03
6.807163E+03	1.467290E-01	3.450203E-03
6.817057E+03	1.432595E-01	3.380985E-03
6.826952E+03	1.399142E-01	3.312964E-03
6.836846E+03	1.366969E-01	3.246334E-03
6.846740E+03	1.336097E-01	3.181249E-03
6.856634E+03	1.306536E-01	3.117830E-03
6.866528E+03	1.278341E-01	3.056301E-03
6.876422E+03	1.251387E-01	2.996449E-03
6.886316E+03	1.225711E-01	2.938448E-03
6.896211E+03	1.201287E-01	2.882310E-03
6.906105E+03	1.178136E-01	2.828153E-03
6.915999E+03	1.156114E-01	2.775699E-03
6.925893E+03	1.135232E-01	2.725035E-03
6.935787E+03	1.115496E-01	2.676228E-03
6.945681E+03	1.096759E-01	2.628975E-03
6.955575E+03	1.079070E-01	2.583443E-03
6.965469E+03	1.062283E-01	2.539320E-03
6.975364E+03	1.046444E-01	2.496756E-03
6.985258E+03	1.031455E-01	2.455551E-03
6.995152E+03	1.017219E-01	2.415509E-03
7.005046E+03	1.003781E-01	2.376766E-03
7.014940E+03	9.910011E-02	2.339020E-03
7.024834E+03	9.789238E-02	2.302401E-03
7.034728E+03	9.674594E-02	2.266723E-03
7.044623E+03	9.565215E-02	2.231810E-03
7.054517E+03	9.461570E-02	2.197794E-03
7.064411E+03	9.362405E-02	2.164407E-03
7.074305E+03	9.268214E-02	2.131789E-03
7.084199E+03	9.177813E-02	2.099691E-03
7.094093E+03	9.091718E-02	2.068254E-03
7.103987E+03	9.008804E-02	2.037248E-03
7.113881E+03	8.929623E-02	2.006825E-03
7.123776E+03	8.853107E-02	1.976770E-03
7.133670E+03	8.779437E-02	1.947154E-03
7.143564E+03	8.708801E-02	1.918048E-03
7.153458E+03	8.640210E-02	1.889264E-03
7.163352E+03	8.573896E-02	1.860887E-03
7.173246E+03	8.509704E-02	1.832918E-03
7.183140E+03	8.447498E-02	1.805365E-03
7.193035E+03	8.387160E-02	1.778240E-03
7.202929E+03	8.328582E-02	1.751562E-03
7.212823E+03	8.271300E-02	1.725276E-03
7.222717E+03	8.215995E-02	1.699570E-03
7.232611E+03	8.162225E-02	1.674398E-03
7.242505E+03	8.109565E-02	1.649724E-03
7.252399E+03	8.058360E-02	1.625670E-03
7.262293E+03	8.008577E-02	1.602284E-03
7.272188E+03	7.960574E-02	1.579695E-03
7.282082E+03	7.913245E-02	1.557740E-03
7.291976E+03	7.867698E-02	1.536703E-03
7.301870E+03	7.823585E-02	1.516577E-03
7.311764E+03	7.780565E-02	1.497363E-03
7.321658E+03	7.739398E-02	1.479274E-03
7.331552E+03	7.699403E-02	1.462250E-03
7.341447E+03	7.660982E-02	1.446439E-03
7.351341E+03	7.623830E-02	1.431856E-03
7.361235E+03	7.588705E-02	1.418717E-03
7.371129E+03	7.554953E-02	1.406974E-03
7.381023E+03	7.523321E-02	1.396838E-03
7.390917E+03	7.493151E-02	1.388263E-03
7.400811E+03	7.464830E-02	1.381392E-03
7.410705E+03	7.438031E-02	1.376235E-03
7.420600E+03	7.413466E-02	1.372995E-03
7.430494E+03	7.390434E-02	1.371607E-03
7.440388E+03	7.369258E-02	1.372194E-03
7.450282E+03	7.349550E-02	1.374741E-03
7.460176E+03	7.331923E-02	1.379419E-03
7.470070E+03	7.315589E-02	1.386123E-03
7.479964E+03	7.300754E-02	1.394885E-03
7.489859E+03	7.287244E-02	1.405638E-03
7.499753E+03	7.274504E-02	1.418232E-03
7.509647E+03	7.262959E-02	1.432702E-03
7.519541E+03	7.251613E-02	1.448801E-03
7.529435E+03	7.240109E-02	1.466397E-03
7.539329E+03	7.228733E-02	1.485486E-03
7.549223E+03	7.216335E-02	1.505763E-03
7.559117E+03	7.202764E-02	1.527118E-03
7.569012E+03	7.187141E-02	1.549285E-03
7.578906E+03	7.169600E-02	1.572199E-03
7.588800E+03	7.148900E-02	1.595494E-03
7.598694E+03	7.124513E-02	1.618943E-03
7.608588E+03	7.096638E-02	1.642478E-03
7.618482E+03	7.064200E-02	1.665732E-03
7.628376E+03	7.027267E-02	1.688595E-03
7.638271E+03	6.985400E-02	1.710829E-03
7.648165E+03	6.939012E-02	1.732404E-03
7.658059E+03	6.888296E-02	1.753240E-03
7.667953E+03	6.833560E-02	1.773291E-03
7.677847E+03	6.774836E-02	1.792444E-03
