#wls	flux	fluxerr
1.583061E+03	6.632550E-02	8.451631E-03
1.622638E+03	6.777760E-02	8.541673E-03
1.662214E+03	6.922467E-02	8.625631E-03
1.701791E+03	7.065655E-02	8.702199E-03
1.741367E+03	7.210095E-02	8.774740E-03
1.780944E+03	7.353837E-02	8.840785E-03
1.820520E+03	7.498810E-02	8.902586E-03
1.860097E+03	7.645927E-02	8.961095E-03
1.899673E+03	7.796337E-02	9.017481E-03
1.939250E+03	7.951435E-02	9.073124E-03
1.978827E+03	8.112885E-02	9.129624E-03
2.018403E+03	8.282627E-02	9.188778E-03
2.057980E+03	8.462889E-02	9.252573E-03
2.097556E+03	8.656161E-02	9.323132E-03
2.137133E+03	8.866631E-02	9.404212E-03
2.176709E+03	9.094340E-02	9.494960E-03
2.216286E+03	9.345460E-02	9.600794E-03
2.255862E+03	9.621836E-02	9.722319E-03
2.295439E+03	9.928279E-02	9.862948E-03
2.335015E+03	1.026633E-01	1.002255E-02
2.374592E+03	1.063919E-01	1.020243E-02
2.414168E+03	1.105202E-01	1.040555E-02
2.453745E+03	1.150682E-01	1.063151E-02
2.493321E+03	1.200742E-01	1.088148E-02
2.532898E+03	1.256169E-01	1.115988E-02
2.572475E+03	1.316768E-01	1.146204E-02
2.612051E+03	1.383456E-01	1.179288E-02
2.651628E+03	1.455933E-01	1.214652E-02
2.691204E+03	1.534291E-01	1.252050E-02
2.730781E+03	1.618217E-01	1.290904E-02
2.770357E+03	1.706932E-01	1.330298E-02
2.809934E+03	1.799942E-01	1.369589E-02
2.849510E+03	1.896305E-01	1.407841E-02
2.889087E+03	1.994856E-01	1.444035E-02
2.928663E+03	2.094208E-01	1.477087E-02
2.968240E+03	2.192436E-01	1.505658E-02
2.978134E+03	2.216956E-01	1.512206E-02
2.988028E+03	2.240923E-01	1.518154E-02
2.997922E+03	2.264950E-01	1.523922E-02
3.007816E+03	2.288353E-01	1.529054E-02
3.017710E+03	2.311755E-01	1.533972E-02
3.027605E+03	2.334795E-01	1.538439E-02
3.037499E+03	2.357437E-01	1.542437E-02
3.047393E+03	2.379650E-01	1.545953E-02
3.057287E+03	2.401396E-01	1.548970E-02
3.067181E+03	2.422639E-01	1.551472E-02
3.077075E+03	2.443686E-01	1.553663E-02
3.086969E+03	2.463815E-01	1.555089E-02
3.096864E+03	2.483678E-01	1.556175E-02
3.106758E+03	2.502894E-01	1.556688E-02
3.116652E+03	2.521069E-01	1.556396E-02
3.126546E+03	2.538871E-01	1.555722E-02
3.136440E+03	2.556267E-01	1.554654E-02
3.146334E+03	2.572503E-01	1.552743E-02
3.156228E+03	2.587895E-01	1.550198E-02
3.166122E+03	2.602767E-01	1.547222E-02
3.176017E+03	2.616357E-01	1.543376E-02
3.185911E+03	2.629347E-01	1.539078E-02
3.195805E+03	2.641337E-01	1.534106E-02
3.205699E+03	2.652288E-01	1.528451E-02
3.215593E+03	2.662156E-01	1.522106E-02
3.225487E+03	2.670906E-01	1.515066E-02
3.235381E+03	2.678857E-01	1.507529E-02
3.245276E+03	2.685243E-01	1.499079E-02
3.255170E+03	2.690757E-01	1.490122E-02
3.265064E+03	2.694990E-01	1.480447E-02
3.274958E+03	2.697541E-01	1.469856E-02
3.284852E+03	2.699102E-01	1.458746E-02
3.294746E+03	2.699270E-01	1.446916E-02
3.304640E+03	2.698368E-01	1.434558E-02
3.314534E+03	2.695643E-01	1.421291E-02
3.324429E+03	2.691422E-01	1.407312E-02
3.334323E+03	2.686029E-01	1.392809E-02
3.344217E+03	2.678723E-01	1.377419E-02
3.354111E+03	2.670188E-01	1.361516E-02
3.364005E+03	2.660046E-01	1.344928E-02
3.373899E+03	2.648276E-01	1.327664E-02
3.383793E+03	2.634868E-01	1.309743E-02
3.393688E+03	2.619809E-01	1.291180E-02
3.403582E+03	2.603438E-01	1.272163E-02
3.413476E+03	2.585083E-01	1.252383E-02
3.423370E+03	2.565097E-01	1.232036E-02
3.433264E+03	2.543840E-01	1.211312E-02
3.443158E+03	2.521014E-01	1.190088E-02
3.453052E+03	2.496683E-01	1.168407E-02
3.462946E+03	2.470942E-01	1.146330E-02
3.472841E+03	2.443926E-01	1.123933E-02
3.482735E+03	2.415796E-01	1.101303E-02
3.492629E+03	2.386726E-01	1.078527E-02
3.502523E+03	2.356891E-01	1.055692E-02
3.512417E+03	2.326767E-01	1.033017E-02
3.522311E+03	2.295938E-01	1.010318E-02
3.532205E+03	2.265156E-01	9.879290E-03
3.542100E+03	2.234292E-01	9.657913E-03
3.551994E+03	2.203226E-01	9.438514E-03
3.561888E+03	2.172657E-01	9.224060E-03
3.571782E+03	2.142439E-01	9.013854E-03
3.581676E+03	2.112695E-01	8.808345E-03
3.591570E+03	2.083791E-01	8.608976E-03
3.601464E+03	2.055308E-01	8.413912E-03
3.611358E+03	2.027595E-01	8.224495E-03
3.621253E+03	2.000969E-01	8.041906E-03
3.631147E+03	1.975000E-01	7.864290E-03
3.641041E+03	1.950226E-01	7.693680E-03
3.650935E+03	1.926442E-01	7.529130E-03
3.660829E+03	1.903448E-01	7.369743E-03
3.670723E+03	1.881726E-01	7.217277E-03
3.680617E+03	1.861055E-01	7.070734E-03
3.690512E+03	1.841435E-01	6.930001E-03
3.700406E+03	1.822860E-01	6.794935E-03
3.710300E+03	1.805318E-01	6.665367E-03
3.720194E+03	1.788787E-01	6.541113E-03
3.730088E+03	1.773455E-01	6.422733E-03
3.739982E+03	1.758865E-01	6.308472E-03
3.749876E+03	1.745197E-01	6.198886E-03
3.759770E+03	1.732616E-01	6.094462E-03
3.769665E+03	1.720670E-01	5.993518E-03
3.779559E+03	1.709720E-01	5.897242E-03
3.789453E+03	1.699319E-01	5.804003E-03
3.799347E+03	1.689815E-01	5.714941E-03
3.809241E+03	1.680960E-01	5.629137E-03
3.819135E+03	1.672702E-01	5.546369E-03
3.829029E+03	1.664798E-01	5.465791E-03
3.838924E+03	1.657582E-01	5.388471E-03
3.848818E+03	1.650811E-01	5.313569E-03
3.858712E+03	1.644432E-01	5.240898E-03
3.868606E+03	1.638398E-01	5.170286E-03
3.878500E+03	1.632660E-01	5.101570E-03
3.888394E+03	1.627173E-01	5.034603E-03
3.898288E+03	1.621893E-01	4.969252E-03
3.908182E+03	1.616780E-01	4.905400E-03
3.918077E+03	1.611795E-01	4.842943E-03
3.927971E+03	1.606905E-01	4.781794E-03
3.937865E+03	1.602258E-01	4.722410E-03
3.947759E+03	1.597465E-01	4.663668E-03
3.957653E+03	1.592684E-01	4.606065E-03
3.967547E+03	1.587893E-01	4.549572E-03
3.977441E+03	1.583077E-01	4.494175E-03
3.987336E+03	1.578395E-01	4.440360E-03
3.997230E+03	1.573488E-01	4.387147E-03
4.007124E+03	1.568522E-01	4.335050E-03
4.017018E+03	1.563493E-01	4.284097E-03
4.026912E+03	1.558397E-01	4.234317E-03
4.036806E+03	1.553404E-01	4.186206E-03
4.046700E+03	1.548174E-01	4.138887E-03
4.056594E+03	1.542879E-01	4.092867E-03
4.066489E+03	1.537523E-01	4.048196E-03
4.076383E+03	1.532111E-01	4.004923E-03
4.086277E+03	1.526812E-01	3.963527E-03
4.096171E+03	1.521301E-01	3.923197E-03
4.106065E+03	1.515749E-01	3.884413E-03
4.115959E+03	1.510163E-01	3.847223E-03
4.125853E+03	1.504545E-01	3.811668E-03
4.135748E+03	1.498899E-01	3.777782E-03
4.145642E+03	1.493226E-01	3.745593E-03
4.155536E+03	1.487524E-01	3.715122E-03
4.165430E+03	1.481788E-01	3.686376E-03
4.175324E+03	1.476009E-01	3.659353E-03
4.185218E+03	1.470176E-01	3.634036E-03
4.195112E+03	1.464119E-01	3.610019E-03
4.205006E+03	1.458123E-01	3.587990E-03
4.214901E+03	1.452012E-01	3.567434E-03
4.224795E+03	1.445606E-01	3.547836E-03
4.234689E+03	1.439177E-01	3.529777E-03
4.244583E+03	1.432394E-01	3.512360E-03
4.254477E+03	1.425522E-01	3.496147E-03
4.264371E+03	1.418235E-01	3.480252E-03
4.274265E+03	1.410802E-01	3.465246E-03
4.284159E+03	1.402919E-01	3.450289E-03
4.294054E+03	1.394723E-01	3.435625E-03
4.303948E+03	1.386209E-01	3.421151E-03
4.313842E+03	1.377376E-01	3.406773E-03
4.323736E+03	1.368228E-01	3.392411E-03
4.333630E+03	1.358773E-01	3.377993E-03
4.343524E+03	1.349024E-01	3.363463E-03
4.353418E+03	1.338862E-01	3.348438E-03
4.363313E+03	1.328580E-01	3.333565E-03
4.373207E+03	1.317934E-01	3.318154E-03
4.383101E+03	1.307219E-01	3.302866E-03
4.392995E+03	1.296204E-01	3.287044E-03
4.402889E+03	1.285054E-01	3.271035E-03
4.412783E+03	1.273804E-01	3.254863E-03
4.422677E+03	1.262489E-01	3.238556E-03
4.432571E+03	1.251146E-01	3.222150E-03
4.442466E+03	1.239810E-01	3.205681E-03
4.452360E+03	1.228516E-01	3.189191E-03
4.462254E+03	1.217177E-01	3.172411E-03
4.472148E+03	1.206068E-01	3.156012E-03
4.482042E+03	1.194980E-01	3.139419E-03
4.491936E+03	1.184064E-01	3.122989E-03
4.501830E+03	1.173349E-01	3.106770E-03
4.511725E+03	1.162861E-01	3.090810E-03
4.521619E+03	1.152628E-01	3.075158E-03
4.531513E+03	1.142563E-01	3.059565E-03
4.541407E+03	1.132913E-01	3.044675E-03
4.551301E+03	1.123479E-01	3.029944E-03
4.561195E+03	1.114502E-01	3.016006E-03
4.571089E+03	1.105785E-01	3.002323E-03
4.580983E+03	1.097454E-01	2.989231E-03
4.590878E+03	1.089525E-01	2.976767E-03
4.600772E+03	1.081908E-01	2.964684E-03
4.610666E+03	1.074824E-01	2.953583E-03
4.620560E+03	1.068076E-01	2.942923E-03
4.630454E+03	1.061876E-01	2.933287E-03
4.640348E+03	1.056025E-01	2.924129E-03
4.650242E+03	1.050627E-01	2.915734E-03
4.660137E+03	1.045681E-01	2.908101E-03
4.670031E+03	1.041083E-01	2.900946E-03
4.679925E+03	1.037025E-01	2.894798E-03
4.689819E+03	1.033298E-01	2.889081E-03
4.699713E+03	1.029988E-01	2.884032E-03
4.709607E+03	1.027077E-01	2.879601E-03
4.719501E+03	1.024545E-01	2.875732E-03
4.729395E+03	1.022368E-01	2.872360E-03
4.739290E+03	1.020519E-01	2.869409E-03
4.749184E+03	1.018877E-01	2.866531E-03
4.759078E+03	1.017503E-01	2.863904E-03
4.768972E+03	1.016367E-01	2.861437E-03
4.778866E+03	1.015434E-01	2.859030E-03
4.788760E+03	1.014670E-01	2.856588E-03
4.798654E+03	1.013946E-01	2.853749E-03
4.808549E+03	1.013418E-01	2.850944E-03
4.818443E+03	1.012866E-01	2.847558E-03
4.828337E+03	1.012353E-01	2.843769E-03
4.838231E+03	1.011852E-01	2.839503E-03
4.848125E+03	1.011340E-01	2.834692E-03
4.858019E+03	1.010702E-01	2.829023E-03
4.867913E+03	1.010108E-01	2.822972E-03
4.877807E+03	1.009359E-01	2.815988E-03
4.887702E+03	1.008539E-01	2.808313E-03
4.897596E+03	1.007643E-01	2.799940E-03
4.907490E+03	1.006580E-01	2.790619E-03
4.917384E+03	1.005533E-01	2.780875E-03
4.927278E+03	1.004328E-01	2.770229E-03
4.937172E+03	1.003064E-01	2.758969E-03
4.947066E+03	1.001754E-01	2.747139E-03
4.956961E+03	1.000412E-01	2.734788E-03
4.966855E+03	9.989632E-02	2.721727E-03
4.976749E+03	9.976065E-02	2.708509E-03
4.986643E+03	9.961806E-02	2.694707E-03
4.996537E+03	9.947947E-02	2.680630E-03
5.006431E+03	9.934695E-02	2.666346E-03
5.016325E+03	9.921349E-02	2.651679E-03
5.026219E+03	9.909894E-02	2.637174E-03
5.036114E+03	9.898732E-02	2.622415E-03
5.046008E+03	9.888927E-02	2.607698E-03
5.055902E+03	9.880639E-02	2.593076E-03
5.065796E+03	9.874005E-02	2.578596E-03
5.075690E+03	9.869138E-02	2.564299E-03
5.085584E+03	9.865248E-02	2.549993E-03
5.095478E+03	9.863271E-02	2.535932E-03
5.105373E+03	9.863240E-02	2.522138E-03
5.115267E+03	9.865145E-02	2.508619E-03
5.125161E+03	9.868947E-02	2.495379E-03
5.135055E+03	9.873699E-02	2.482193E-03
5.144949E+03	9.881048E-02	2.469492E-03
5.154843E+03	9.889102E-02	2.456817E-03
5.164737E+03	9.898576E-02	2.444367E-03
5.174631E+03	9.909277E-02	2.432113E-03
5.184526E+03	9.920115E-02	2.419810E-03
5.194420E+03	9.932603E-02	2.407851E-03
5.204314E+03	9.944743E-02	2.395777E-03
5.214208E+03	9.957144E-02	2.383762E-03
5.224102E+03	9.969534E-02	2.371773E-03
5.233996E+03	9.981633E-02	2.359773E-03
5.243890E+03	9.992280E-02	2.347523E-03
5.253785E+03	1.000295E-01	2.335409E-03
5.263679E+03	1.001162E-01	2.322991E-03
5.273573E+03	1.001890E-01	2.310454E-03
5.283467E+03	1.002453E-01	2.297780E-03
5.293361E+03	1.002828E-01	2.284958E-03
5.303255E+03	1.002905E-01	2.271782E-03
5.313149E+03	1.002842E-01	2.258652E-03
5.323043E+03	1.002445E-01	2.245180E-03
5.332938E+03	1.001791E-01	2.231581E-03
5.342832E+03	1.000871E-01	2.217880E-03
5.352726E+03	9.995958E-02	2.203921E-03
5.362620E+03	9.981432E-02	2.190141E-03
5.372514E+03	9.963534E-02	2.176226E-03
5.382408E+03	9.944262E-02	2.162652E-03
5.392302E+03	9.922223E-02	2.149148E-03
5.402196E+03	9.897808E-02	2.135832E-03
5.412091E+03	9.873145E-02	2.123186E-03
5.421985E+03	9.847786E-02	2.111094E-03
5.431879E+03	9.821300E-02	2.099426E-03
5.441773E+03	9.794974E-02	2.088420E-03
5.451667E+03	9.770083E-02	2.078308E-03
5.461561E+03	9.745346E-02	2.068774E-03
5.471455E+03	9.721180E-02	2.059867E-03
5.481350E+03	9.699673E-02	2.051987E-03
5.491244E+03	9.679521E-02	2.044817E-03
5.501138E+03	9.662775E-02	2.038747E-03
5.511032E+03	9.648105E-02	2.033456E-03
5.520926E+03	9.636695E-02	2.029154E-03
5.530820E+03	9.628859E-02	2.025866E-03
5.540714E+03	9.624907E-02	2.023618E-03
5.550608E+03	9.624294E-02	2.022260E-03
5.560503E+03	9.628967E-02	2.022163E-03
5.570397E+03	9.637517E-02	2.022994E-03
5.580291E+03	9.651024E-02	2.024947E-03
5.590185E+03	9.669716E-02	2.028035E-03
5.600079E+03	9.693807E-02	2.032269E-03
5.609973E+03	9.723490E-02	2.037658E-03
5.619867E+03	9.758940E-02	2.044207E-03
5.629762E+03	9.799467E-02	2.051739E-03
5.639656E+03	9.846042E-02	2.060427E-03
5.649550E+03	9.899624E-02	2.070442E-03
5.659444E+03	9.958595E-02	2.081414E-03
5.669338E+03	1.002385E-01	2.093502E-03
5.679232E+03	1.009543E-01	2.106682E-03
5.689126E+03	1.017245E-01	2.120740E-03
5.699020E+03	1.025664E-01	2.136006E-03
5.708915E+03	1.034617E-01	2.152070E-03
5.718809E+03	1.044275E-01	2.169255E-03
5.728703E+03	1.054448E-01	2.187136E-03
5.738597E+03	1.065213E-01	2.205844E-03
5.748491E+03	1.076557E-01	2.225318E-03
5.758385E+03	1.088465E-01	2.245497E-03
5.768279E+03	1.100922E-01	2.266318E-03
5.778174E+03	1.113817E-01	2.287522E-03
5.788068E+03	1.127325E-01	2.309441E-03
5.797962E+03	1.141242E-01	2.331621E-03
5.807856E+03	1.155652E-01	2.354208E-03
5.817750E+03	1.170649E-01	2.377361E-03
5.827644E+03	1.186028E-01	2.400635E-03
5.837538E+03	1.201890E-01	2.424207E-03
5.847432E+03	1.218242E-01	2.448063E-03
5.857327E+03	1.234989E-01	2.471984E-03
5.867221E+03	1.252361E-01	2.496407E-03
5.877115E+03	1.270169E-01	2.520929E-03
5.887009E+03	1.288663E-01	2.546019E-03
5.896903E+03	1.307662E-01	2.571294E-03
5.906797E+03	1.327320E-01	2.597037E-03
5.916691E+03	1.347807E-01	2.623552E-03
5.926586E+03	1.368950E-01	2.650479E-03
5.936480E+03	1.390924E-01	2.678139E-03
5.946374E+03	1.413675E-01	2.706401E-03
5.956268E+03	1.437512E-01	2.735841E-03
5.966162E+03	1.462384E-01	2.766336E-03
5.976056E+03	1.488229E-01	2.797753E-03
5.985950E+03	1.515366E-01	2.830670E-03
5.995844E+03	1.543591E-01	2.864696E-03
6.005739E+03	1.573217E-01	2.900396E-03
6.015633E+03	1.604008E-01	2.937330E-03
6.025527E+03	1.636119E-01	2.975780E-03
6.035421E+03	1.669546E-01	3.015749E-03
6.045315E+03	1.704265E-01	3.057205E-03
6.055209E+03	1.740222E-01	3.100078E-03
6.065103E+03	1.777330E-01	3.144252E-03
6.074998E+03	1.815464E-01	3.189560E-03
6.084892E+03	1.854297E-01	3.235500E-03
6.094786E+03	1.893930E-01	3.282343E-03
6.104680E+03	1.933775E-01	3.329181E-03
6.114574E+03	1.973844E-01	3.376171E-03
6.124468E+03	2.013423E-01	3.422257E-03
6.134362E+03	2.052253E-01	3.467183E-03
6.144256E+03	2.090032E-01	3.510653E-03
6.154151E+03	2.125876E-01	3.551417E-03
6.164045E+03	2.159405E-01	3.589099E-03
6.173939E+03	2.190043E-01	3.623020E-03
6.183833E+03	2.217228E-01	3.652534E-03
6.193727E+03	2.240444E-01	3.677082E-03
6.203621E+03	2.259281E-01	3.696277E-03
6.213515E+03	2.273347E-01	3.709751E-03
6.223410E+03	2.283212E-01	3.718686E-03
6.233304E+03	2.289106E-01	3.723667E-03
6.243198E+03	2.291376E-01	3.725447E-03
6.253092E+03	2.291036E-01	3.725823E-03
6.262986E+03	2.288320E-01	3.725301E-03
6.272880E+03	2.284251E-01	3.725640E-03
6.282774E+03	2.279021E-01	3.727182E-03
6.292668E+03	2.273364E-01	3.731010E-03
6.302563E+03	2.267755E-01	3.737754E-03
6.312457E+03	2.262799E-01	3.748264E-03
6.322351E+03	2.258436E-01	3.762302E-03
6.332245E+03	2.255126E-01	3.780501E-03
6.342139E+03	2.253063E-01	3.803064E-03
6.352033E+03	2.252372E-01	3.830091E-03
6.361927E+03	2.253113E-01	3.861588E-03
6.371822E+03	2.255286E-01	3.897462E-03
6.381716E+03	2.258637E-01	3.937185E-03
6.391610E+03	2.263449E-01	3.981167E-03
6.401504E+03	2.269366E-01	4.028711E-03
6.411398E+03	2.276190E-01	4.079376E-03
6.421292E+03	2.283482E-01	4.132289E-03
6.431186E+03	2.291374E-01	4.187583E-03
6.441080E+03	2.299174E-01	4.243889E-03
6.450975E+03	2.306975E-01	4.301254E-03
6.460869E+03	2.314054E-01	4.358197E-03
6.470763E+03	2.320497E-01	4.414720E-03
6.480657E+03	2.325580E-01	4.469285E-03
6.490551E+03	2.329405E-01	4.521898E-03
6.500445E+03	2.331278E-01	4.571018E-03
6.510339E+03	2.331139E-01	4.616309E-03
6.520234E+03	2.328756E-01	4.657089E-03
6.530128E+03	2.323930E-01	4.692729E-03
6.540022E+03	2.316703E-01	4.723085E-03
6.549916E+03	2.306546E-01	4.746845E-03
6.559810E+03	2.293583E-01	4.764022E-03
6.569704E+03	2.277778E-01	4.774308E-03
6.579598E+03	2.259135E-01	4.777490E-03
6.589492E+03	2.237697E-01	4.773449E-03
6.599387E+03	2.213548E-01	4.762160E-03
6.609281E+03	2.186802E-01	4.743688E-03
6.619175E+03	2.157418E-01	4.717774E-03
6.629069E+03	2.125952E-01	4.685485E-03
6.638963E+03	2.092409E-01	4.646711E-03
6.648857E+03	2.057007E-01	4.601827E-03
6.658751E+03	2.019796E-01	4.550863E-03
6.668645E+03	1.981379E-01	4.495106E-03
6.678540E+03	1.941821E-01	4.434667E-03
6.688434E+03	1.901203E-01	4.369704E-03
6.698328E+03	1.860114E-01	4.301559E-03
6.708222E+03	1.818623E-01	4.230410E-03
6.718116E+03	1.776807E-01	4.156461E-03
6.728010E+03	1.735207E-01	4.081012E-03
6.737904E+03	1.693719E-01	4.003874E-03
6.747799E+03	1.652693E-01	3.925931E-03
6.757693E+03	1.612445E-01	3.848008E-03
6.767587E+03	1.572842E-01	3.769864E-03
6.777481E+03	1.534165E-01	3.692253E-03
6.787375E+03	1.496665E-01	3.615863E-03
6.797269E+03	1.460171E-01	3.540368E-03
6.807163E+03	1.424896E-01	3.466374E-03
6.817057E+03	1.390902E-01	3.394114E-03
6.826952E+03	1.358233E-01	3.323784E-03
6.836846E+03	1.327037E-01	3.255827E-03
6.846740E+03	1.297089E-01	3.189772E-03
6.856634E+03	1.268511E-01	3.125998E-03
6.866528E+03	1.241295E-01	3.064552E-03
6.876422E+03	1.215421E-01	3.005456E-03
6.886316E+03	1.190859E-01	2.948701E-03
6.896211E+03	1.167573E-01	2.894258E-03
6.906105E+03	1.145419E-01	2.841826E-03
6.915999E+03	1.124555E-01	2.791848E-03
6.925893E+03	1.104825E-01	2.743987E-03
6.935787E+03	1.086175E-01	2.698151E-03
6.945681E+03	1.068548E-01	2.654240E-03
6.955575E+03	1.051790E-01	2.611914E-03
6.965469E+03	1.036034E-01	2.571535E-03
6.975364E+03	1.021125E-01	2.532752E-03
6.985258E+03	1.006915E-01	2.495231E-03
6.995152E+03	9.935291E-02	2.459312E-03
7.005046E+03	9.807340E-02	2.424444E-03
7.014940E+03	9.686541E-02	2.390964E-03
7.024834E+03	9.570649E-02	2.358343E-03
7.034728E+03	9.460925E-02	2.326918E-03
7.044623E+03	9.355217E-02	2.296184E-03
7.054517E+03	9.253982E-02	2.266281E-03
7.064411E+03	9.157664E-02	2.237341E-03
7.074305E+03	9.064261E-02	2.208900E-03
7.084199E+03	8.974294E-02	2.181112E-03
7.094093E+03	8.887472E-02	2.153933E-03
7.103987E+03	8.803542E-02	2.127327E-03
7.113881E+03	8.723055E-02	2.101455E-03
7.123776E+03	8.644218E-02	2.075912E-03
7.133670E+03	8.567638E-02	2.050872E-03
7.143564E+03	8.493147E-02	2.026327E-03
7.153458E+03	8.420594E-02	2.002268E-03
7.163352E+03	8.349078E-02	1.978513E-03
7.173246E+03	8.279999E-02	1.955427E-03
7.183140E+03	8.212482E-02	1.932833E-03
7.193035E+03	8.146427E-02	1.910741E-03
7.202929E+03	8.081009E-02	1.888993E-03
7.212823E+03	8.017619E-02	1.867947E-03
7.222717E+03	7.955449E-02	1.847451E-03
7.232611E+03	7.893714E-02	1.827359E-03
7.242505E+03	7.833804E-02	1.808028E-03
7.252399E+03	7.774238E-02	1.789155E-03
7.262293E+03	7.716401E-02	1.771096E-03
7.272188E+03	7.658846E-02	1.753555E-03
7.282082E+03	7.602265E-02	1.736731E-03
7.291976E+03	7.546638E-02	1.720656E-03
7.301870E+03	7.492642E-02	1.705524E-03
7.311764E+03	7.438898E-02	1.691057E-03
7.321658E+03	7.386099E-02	1.677452E-03
7.331552E+03	7.334255E-02	1.664748E-03
7.341447E+03	7.283377E-02	1.652984E-03
7.351341E+03	7.233471E-02	1.642197E-03
7.361235E+03	7.184558E-02	1.632427E-03
7.371129E+03	7.135988E-02	1.623559E-03
7.381023E+03	7.089091E-02	1.615929E-03
7.390917E+03	7.043212E-02	1.609418E-03
7.400811E+03	6.997701E-02	1.603907E-03
7.410705E+03	6.953855E-02	1.599721E-03
7.420600E+03	6.910363E-02	1.596584E-03
7.430494E+03	6.868488E-02	1.594810E-03
7.440388E+03	6.826919E-02	1.594117E-03
7.450282E+03	6.786880E-02	1.594808E-03
7.460176E+03	6.747057E-02	1.596584E-03
7.470070E+03	6.708012E-02	1.599550E-03
7.479964E+03	6.669670E-02	1.603653E-03
7.489859E+03	6.631936E-02	1.608836E-03
7.499753E+03	6.594710E-02	1.615036E-03
7.509647E+03	6.557877E-02	1.622187E-03
7.519541E+03	6.521313E-02	1.630217E-03
7.529435E+03	6.484883E-02	1.639052E-03
7.539329E+03	6.447842E-02	1.648458E-03
7.549223E+03	6.411249E-02	1.658660E-03
7.559117E+03	6.374343E-02	1.669419E-03
7.569012E+03	6.336365E-02	1.680486E-03
7.578906E+03	6.298337E-02	1.692083E-03
7.588800E+03	6.258915E-02	1.703799E-03
7.598694E+03	6.218533E-02	1.715697E-03
7.608588E+03	6.177617E-02	1.727844E-03
7.618482E+03	6.134870E-02	1.739824E-03
7.628376E+03	6.090776E-02	1.751714E-03
7.638271E+03	6.045299E-02	1.763449E-03
7.648165E+03	5.998474E-02	1.774982E-03
7.658059E+03	5.950367E-02	1.786278E-03
7.667953E+03	5.900509E-02	1.797142E-03
7.677847E+03	5.850107E-02	1.807888E-03
