#wls	flux	fluxerr
1.583061E+03	7.997003E-02	5.058350E-03
1.622638E+03	8.168366E-02	5.127806E-03
1.662214E+03	8.343008E-02	5.197464E-03
1.701791E+03	8.519652E-02	5.266508E-03
1.741367E+03	8.698463E-02	5.335036E-03
1.780944E+03	8.879619E-02	5.403154E-03
1.820520E+03	9.064886E-02	5.471928E-03
1.860097E+03	9.251235E-02	5.539527E-03
1.899673E+03	9.442010E-02	5.607968E-03
1.939250E+03	9.635642E-02	5.676313E-03
1.978827E+03	9.832072E-02	5.744545E-03
2.018403E+03	1.003290E-01	5.813614E-03
2.057980E+03	1.023440E-01	5.881393E-03
2.097556E+03	1.044023E-01	5.950032E-03
2.137133E+03	1.064950E-01	6.019049E-03
2.176709E+03	1.086531E-01	6.090184E-03
2.216286E+03	1.108498E-01	6.161912E-03
2.255862E+03	1.131339E-01	6.236906E-03
2.295439E+03	1.154963E-01	6.314588E-03
2.335015E+03	1.179459E-01	6.395339E-03
2.374592E+03	1.204881E-01	6.479351E-03
2.414168E+03	1.231451E-01	6.567679E-03
2.453745E+03	1.258905E-01	6.658787E-03
2.493321E+03	1.287113E-01	6.751885E-03
2.532898E+03	1.315861E-01	6.845777E-03
2.572475E+03	1.345086E-01	6.940079E-03
2.612051E+03	1.373992E-01	7.030670E-03
2.651628E+03	1.402757E-01	7.118505E-03
2.691204E+03	1.431141E-01	7.202336E-03
2.730781E+03	1.458360E-01	7.278216E-03
2.770357E+03	1.484537E-01	7.346815E-03
2.809934E+03	1.508721E-01	7.403493E-03
2.849510E+03	1.531166E-01	7.449642E-03
2.889087E+03	1.550523E-01	7.478877E-03
2.928663E+03	1.566434E-01	7.489787E-03
2.968240E+03	1.578536E-01	7.480988E-03
2.978134E+03	1.580851E-01	7.475210E-03
2.988028E+03	1.582862E-01	7.467926E-03
2.997922E+03	1.584561E-01	7.459098E-03
3.007816E+03	1.585937E-01	7.448693E-03
3.017710E+03	1.586982E-01	7.436680E-03
3.027605E+03	1.587688E-01	7.423026E-03
3.037499E+03	1.588045E-01	7.407702E-03
3.047393E+03	1.588047E-01	7.390683E-03
3.057287E+03	1.587685E-01	7.371943E-03
3.067181E+03	1.586952E-01	7.351459E-03
3.077075E+03	1.585842E-01	7.329214E-03
3.086969E+03	1.584349E-01	7.305189E-03
3.096864E+03	1.582466E-01	7.279371E-03
3.106758E+03	1.580190E-01	7.251750E-03
3.116652E+03	1.577516E-01	7.222318E-03
3.126546E+03	1.574704E-01	7.192279E-03
3.136440E+03	1.571222E-01	7.159210E-03
3.146334E+03	1.567333E-01	7.124328E-03
3.156228E+03	1.563036E-01	7.087642E-03
3.166122E+03	1.558331E-01	7.049163E-03
3.176017E+03	1.553217E-01	7.008906E-03
3.185911E+03	1.547957E-01	6.968060E-03
3.195805E+03	1.542032E-01	6.924307E-03
3.205699E+03	1.535707E-01	6.878850E-03
3.215593E+03	1.528986E-01	6.831725E-03
3.225487E+03	1.521876E-01	6.782970E-03
3.235381E+03	1.514636E-01	6.733758E-03
3.245276E+03	1.506766E-01	6.681874E-03
3.255170E+03	1.498531E-01	6.628509E-03
3.265064E+03	1.489941E-01	6.573722E-03
3.274958E+03	1.481256E-01	6.518668E-03
3.284852E+03	1.471992E-01	6.461229E-03
3.294746E+03	1.462413E-01	6.402580E-03
3.304640E+03	1.452535E-01	6.342801E-03
3.314534E+03	1.442615E-01	6.283024E-03
3.324429E+03	1.432190E-01	6.221237E-03
3.334323E+03	1.421521E-01	6.158592E-03
3.344217E+03	1.410863E-01	6.096203E-03
3.354111E+03	1.399769E-01	6.032136E-03
3.364005E+03	1.388497E-01	5.967524E-03
3.373899E+03	1.377301E-01	5.903458E-03
3.383793E+03	1.365747E-01	5.838084E-03
3.393688E+03	1.354091E-01	5.772510E-03
3.403582E+03	1.342584E-01	5.707799E-03
3.413476E+03	1.330806E-01	5.642169E-03
3.423370E+03	1.319007E-01	5.576692E-03
3.433264E+03	1.307432E-01	5.512394E-03
3.443158E+03	1.295669E-01	5.447545E-03
3.453052E+03	1.284173E-01	5.384048E-03
3.462946E+03	1.272537E-01	5.320200E-03
3.472841E+03	1.260994E-01	5.256980E-03
3.482735E+03	1.249771E-01	5.195323E-03
3.492629E+03	1.238474E-01	5.133583E-03
3.502523E+03	1.227531E-01	5.073540E-03
3.512417E+03	1.216557E-01	5.013591E-03
3.522311E+03	1.205974E-01	4.955471E-03
3.532205E+03	1.195403E-01	4.897616E-03
3.542100E+03	1.185064E-01	4.840923E-03
3.551994E+03	1.175170E-01	4.786250E-03
3.561888E+03	1.165350E-01	4.732083E-03
3.571782E+03	1.156009E-01	4.680050E-03
3.581676E+03	1.146783E-01	4.628669E-03
3.591570E+03	1.138066E-01	4.579522E-03
3.601464E+03	1.129499E-01	4.531152E-03
3.611358E+03	1.121468E-01	4.485098E-03
3.621253E+03	1.113619E-01	4.439926E-03
3.631147E+03	1.106330E-01	4.397132E-03
3.641041E+03	1.099247E-01	4.355302E-03
3.650935E+03	1.092742E-01	4.315887E-03
3.660829E+03	1.086464E-01	4.277490E-03
3.670723E+03	1.080599E-01	4.240833E-03
3.680617E+03	1.075327E-01	4.206606E-03
3.690512E+03	1.070301E-01	4.173429E-03
3.700406E+03	1.065872E-01	4.142663E-03
3.710300E+03	1.061692E-01	4.112937E-03
3.720194E+03	1.058108E-01	4.085580E-03
3.730088E+03	1.054772E-01	4.059231E-03
3.739982E+03	1.052025E-01	4.035187E-03
3.749876E+03	1.049518E-01	4.012097E-03
3.759770E+03	1.047588E-01	3.991232E-03
3.769665E+03	1.045887E-01	3.971250E-03
3.779559E+03	1.044746E-01	3.953395E-03
3.789453E+03	1.043817E-01	3.936332E-03
3.799347E+03	1.043427E-01	3.921289E-03
3.809241E+03	1.043229E-01	3.906935E-03
3.819135E+03	1.043548E-01	3.894483E-03
3.829029E+03	1.044033E-01	3.882608E-03
3.838924E+03	1.045010E-01	3.872506E-03
3.848818E+03	1.046126E-01	3.862863E-03
3.858712E+03	1.047706E-01	3.854862E-03
3.868606E+03	1.049396E-01	3.847195E-03
3.878500E+03	1.051352E-01	3.840420E-03
3.888394E+03	1.053728E-01	3.835091E-03
3.898288E+03	1.056169E-01	3.829906E-03
3.908182E+03	1.059001E-01	3.826037E-03
3.918077E+03	1.061868E-01	3.822190E-03
3.927971E+03	1.065096E-01	3.819534E-03
3.937865E+03	1.068329E-01	3.816782E-03
3.947759E+03	1.071895E-01	3.815102E-03
3.957653E+03	1.075436E-01	3.813213E-03
3.967547E+03	1.079284E-01	3.812285E-03
3.977441E+03	1.083079E-01	3.811044E-03
3.987336E+03	1.086981E-01	3.810052E-03
3.997230E+03	1.091152E-01	3.809869E-03
4.007124E+03	1.095231E-01	3.809232E-03
4.017018E+03	1.099555E-01	3.809315E-03
4.026912E+03	1.103763E-01	3.808858E-03
4.036806E+03	1.108017E-01	3.808431E-03
4.046700E+03	1.112485E-01	3.808601E-03
4.056594E+03	1.116802E-01	3.808117E-03
4.066489E+03	1.121133E-01	3.807549E-03
4.076383E+03	1.125647E-01	3.807470E-03
4.086277E+03	1.129976E-01	3.806630E-03
4.096171E+03	1.134468E-01	3.806210E-03
4.106065E+03	1.138752E-01	3.804960E-03
4.115959E+03	1.142996E-01	3.803452E-03
4.125853E+03	1.147371E-01	3.802258E-03
4.135748E+03	1.151502E-01	3.800130E-03
4.145642E+03	1.155556E-01	3.797635E-03
4.155536E+03	1.159521E-01	3.794735E-03
4.165430E+03	1.163568E-01	3.791993E-03
4.175324E+03	1.167313E-01	3.788161E-03
4.185218E+03	1.170924E-01	3.783798E-03
4.195112E+03	1.174572E-01	3.779460E-03
4.205006E+03	1.177869E-01	3.773901E-03
4.214901E+03	1.180982E-01	3.767675E-03
4.224795E+03	1.183894E-01	3.760737E-03
4.234689E+03	1.186776E-01	3.753634E-03
4.244583E+03	1.189235E-01	3.745136E-03
4.254477E+03	1.191443E-01	3.735800E-03
4.264371E+03	1.193386E-01	3.725593E-03
4.274265E+03	1.195053E-01	3.714493E-03
4.284159E+03	1.196438E-01	3.702488E-03
4.294054E+03	1.197726E-01	3.690159E-03
4.303948E+03	1.198539E-01	3.676346E-03
4.313842E+03	1.199066E-01	3.661642E-03
4.323736E+03	1.199308E-01	3.646060E-03
4.333630E+03	1.199267E-01	3.629613E-03
4.343524E+03	1.198945E-01	3.612315E-03
4.353418E+03	1.198345E-01	3.594183E-03
4.363313E+03	1.197471E-01	3.575240E-03
4.373207E+03	1.196329E-01	3.555506E-03
4.383101E+03	1.194924E-01	3.535010E-03
4.392995E+03	1.193263E-01	3.513780E-03
4.402889E+03	1.191356E-01	3.491848E-03
4.412783E+03	1.189397E-01	3.469793E-03
4.422677E+03	1.186839E-01	3.446021E-03
4.432571E+03	1.184252E-01	3.422203E-03
4.442466E+03	1.181461E-01	3.397835E-03
4.452360E+03	1.178479E-01	3.372962E-03
4.462254E+03	1.175319E-01	3.347625E-03
4.472148E+03	1.171996E-01	3.321869E-03
4.482042E+03	1.168523E-01	3.295740E-03
4.491936E+03	1.164914E-01	3.269279E-03
4.501830E+03	1.161185E-01	3.242532E-03
4.511725E+03	1.157348E-01	3.215543E-03
4.521619E+03	1.153419E-01	3.188351E-03
4.531513E+03	1.149232E-01	3.160506E-03
4.541407E+03	1.145159E-01	3.133037E-03
4.551301E+03	1.141035E-01	3.105484E-03
4.561195E+03	1.136870E-01	3.077881E-03
4.571089E+03	1.132678E-01	3.050261E-03
4.580983E+03	1.128294E-01	3.022183E-03
4.590878E+03	1.124079E-01	2.994621E-03
4.600772E+03	1.119867E-01	2.967122E-03
4.610666E+03	1.115492E-01	2.939250E-03
4.620560E+03	1.111309E-01	2.911942E-03
4.630454E+03	1.107149E-01	2.884749E-03
4.640348E+03	1.102846E-01	2.857238E-03
4.650242E+03	1.098746E-01	2.830307E-03
4.660137E+03	1.094678E-01	2.803511E-03
4.670031E+03	1.090473E-01	2.776419E-03
4.679925E+03	1.086471E-01	2.749893E-03
4.689819E+03	1.082330E-01	2.723068E-03
4.699713E+03	1.078383E-01	2.696783E-03
4.709607E+03	1.074290E-01	2.670185E-03
4.719501E+03	1.070378E-01	2.644089E-03
4.729395E+03	1.066310E-01	2.617657E-03
4.739290E+03	1.062405E-01	2.591681E-03
4.749184E+03	1.058328E-01	2.565339E-03
4.759078E+03	1.054397E-01	2.539404E-03
4.768972E+03	1.050275E-01	2.513068E-03
4.778866E+03	1.046277E-01	2.487091E-03
4.788760E+03	1.042071E-01	2.460680E-03
4.798654E+03	1.037807E-01	2.434205E-03
4.808549E+03	1.033638E-01	2.408021E-03
4.818443E+03	1.029235E-01	2.381367E-03
4.828337E+03	1.024750E-01	2.354607E-03
4.838231E+03	1.020334E-01	2.328089E-03
4.848125E+03	1.015667E-01	2.301088E-03
4.858019E+03	1.010901E-01	2.273963E-03
4.867913E+03	1.006035E-01	2.246717E-03
4.877807E+03	1.001221E-01	2.219695E-03
4.887702E+03	9.961502E-02	2.192219E-03
4.897596E+03	9.909792E-02	2.164646E-03
4.907490E+03	9.857113E-02	2.136993E-03
4.917384E+03	9.803509E-02	2.109275E-03
4.927278E+03	9.749042E-02	2.081516E-03
4.937172E+03	9.693783E-02	2.053738E-03
4.947066E+03	9.637819E-02	2.025968E-03
4.956961E+03	9.582714E-02	1.998538E-03
4.966855E+03	9.525624E-02	1.970861E-03
4.976749E+03	9.468139E-02	1.943277E-03
4.986643E+03	9.410381E-02	1.915817E-03
4.996537E+03	9.352472E-02	1.888512E-03
5.006431E+03	9.293114E-02	1.861107E-03
5.016325E+03	9.235293E-02	1.834208E-03
5.026219E+03	9.177703E-02	1.807553E-03
5.036114E+03	9.120474E-02	1.781173E-03
5.046008E+03	9.063729E-02	1.755095E-03
5.055902E+03	9.007590E-02	1.729344E-03
5.065796E+03	8.952174E-02	1.703944E-03
5.075690E+03	8.897593E-02	1.678920E-03
5.085584E+03	8.842601E-02	1.654039E-03
5.095478E+03	8.790007E-02	1.629830E-03
5.105373E+03	8.738545E-02	1.606053E-03
5.115267E+03	8.688298E-02	1.582724E-03
5.125161E+03	8.638028E-02	1.559620E-03
5.135055E+03	8.590448E-02	1.537231E-03
5.144949E+03	8.544300E-02	1.515329E-03
5.154843E+03	8.498344E-02	1.493693E-03
5.164737E+03	8.455235E-02	1.472793E-03
5.174631E+03	8.413716E-02	1.452404E-03
5.184526E+03	8.372558E-02	1.432314E-03
5.194420E+03	8.334360E-02	1.412970E-03
5.204314E+03	8.296617E-02	1.393944E-03
5.214208E+03	8.261898E-02	1.375667E-03
5.224102E+03	8.227722E-02	1.357725E-03
5.233996E+03	8.196635E-02	1.340538E-03
5.243890E+03	8.166179E-02	1.323701E-03
5.253785E+03	8.138888E-02	1.307626E-03
5.263679E+03	8.112324E-02	1.291919E-03
5.273573E+03	8.089011E-02	1.276983E-03
5.283467E+03	8.066538E-02	1.262435E-03
5.293361E+03	8.046199E-02	1.248480E-03
5.303255E+03	8.029281E-02	1.235315E-03
5.313149E+03	8.013411E-02	1.222574E-03
5.323043E+03	7.999885E-02	1.210456E-03
5.332938E+03	7.990001E-02	1.199156E-03
5.342832E+03	7.981416E-02	1.188321E-03
5.352726E+03	7.975430E-02	1.178146E-03
5.362620E+03	7.972133E-02	1.168644E-03
5.372514E+03	7.972825E-02	1.160004E-03
5.382408E+03	7.975168E-02	1.151884E-03
5.392302E+03	7.980457E-02	1.144474E-03
5.402196E+03	7.988765E-02	1.137784E-03
5.412091E+03	8.000163E-02	1.131824E-03
5.421985E+03	8.014714E-02	1.126601E-03
5.431879E+03	8.033687E-02	1.122279E-03
5.441773E+03	8.054708E-02	1.118508E-03
5.451667E+03	8.079048E-02	1.115448E-03
5.461561E+03	8.106773E-02	1.113091E-03
5.471455E+03	8.137943E-02	1.111427E-03
5.481350E+03	8.172627E-02	1.110449E-03
5.491244E+03	8.210893E-02	1.110147E-03
5.501138E+03	8.252808E-02	1.110515E-03
5.511032E+03	8.298445E-02	1.111544E-03
5.520926E+03	8.347874E-02	1.113226E-03
5.530820E+03	8.399894E-02	1.115386E-03
5.540714E+03	8.457108E-02	1.118353E-03
5.550608E+03	8.518319E-02	1.121951E-03
5.560503E+03	8.583595E-02	1.126171E-03
5.570397E+03	8.652996E-02	1.131005E-03
5.580291E+03	8.726585E-02	1.136445E-03
5.590185E+03	8.804419E-02	1.142482E-03
5.600079E+03	8.885200E-02	1.148931E-03
5.609973E+03	8.971654E-02	1.156130E-03
5.619867E+03	9.062489E-02	1.163894E-03
5.629762E+03	9.157740E-02	1.172212E-03
5.639656E+03	9.256034E-02	1.180892E-03
5.649550E+03	9.360177E-02	1.190277E-03
5.659444E+03	9.468798E-02	1.200175E-03
5.669338E+03	9.580457E-02	1.210389E-03
5.679232E+03	9.698027E-02	1.221265E-03
5.689126E+03	9.820072E-02	1.232606E-03
5.699020E+03	9.945074E-02	1.244206E-03
5.708915E+03	1.007600E-01	1.256420E-03
5.718809E+03	1.020979E-01	1.268852E-03
5.728703E+03	1.034949E-01	1.281863E-03
5.738597E+03	1.049195E-01	1.295048E-03
5.748491E+03	1.064029E-01	1.308778E-03
5.758385E+03	1.079129E-01	1.322639E-03
5.768279E+03	1.094814E-01	1.337009E-03
5.778174E+03	1.110755E-01	1.351469E-03
5.788068E+03	1.127282E-01	1.366409E-03
5.797962E+03	1.144057E-01	1.381403E-03
5.807856E+03	1.161423E-01	1.396852E-03
5.817750E+03	1.179036E-01	1.412325E-03
5.827644E+03	1.197069E-01	1.428022E-03
5.837538E+03	1.215714E-01	1.444155E-03
5.847432E+03	1.234614E-01	1.460287E-03
5.857327E+03	1.253958E-01	1.476633E-03
5.867221E+03	1.273951E-01	1.493421E-03
5.877115E+03	1.294225E-01	1.510207E-03
5.887009E+03	1.314986E-01	1.527224E-03
5.896903E+03	1.336454E-01	1.544715E-03
5.906797E+03	1.358248E-01	1.562231E-03
5.916691E+03	1.380587E-01	1.580017E-03
5.926586E+03	1.403492E-01	1.598090E-03
5.936480E+03	1.426985E-01	1.616469E-03
5.946374E+03	1.451305E-01	1.635419E-03
5.956268E+03	1.476038E-01	1.654467E-03
5.966162E+03	1.501416E-01	1.673872E-03
5.976056E+03	1.527451E-01	1.693649E-03
5.985950E+03	1.554152E-01	1.713808E-03
5.995844E+03	1.581523E-01	1.734357E-03
6.005739E+03	1.609558E-01	1.755294E-03
6.015633E+03	1.638491E-01	1.776882E-03
6.025527E+03	1.667809E-01	1.798574E-03
6.035421E+03	1.697718E-01	1.820614E-03
6.045315E+03	1.728171E-01	1.842968E-03
6.055209E+03	1.759106E-01	1.865594E-03
6.065103E+03	1.790445E-01	1.888438E-03
6.074998E+03	1.822092E-01	1.911436E-03
6.084892E+03	1.853938E-01	1.934509E-03
6.094786E+03	1.885855E-01	1.957572E-03
6.104680E+03	1.917697E-01	1.980525E-03
6.114574E+03	1.949305E-01	2.003262E-03
6.124468E+03	1.980504E-01	2.025668E-03
6.134362E+03	2.010803E-01	2.047313E-03
6.144256E+03	2.040612E-01	2.068690E-03
6.154151E+03	2.069430E-01	2.089374E-03
6.164045E+03	2.097058E-01	2.109247E-03
6.173939E+03	2.123300E-01	2.128202E-03
6.183833E+03	2.147971E-01	2.146148E-03
6.193727E+03	2.170906E-01	2.163012E-03
6.203621E+03	2.191635E-01	2.178419E-03
6.213515E+03	2.210729E-01	2.193031E-03
6.223410E+03	2.227840E-01	2.206587E-03
6.233304E+03	2.243003E-01	2.219208E-03
6.243198E+03	2.256290E-01	2.231043E-03
6.253092E+03	2.267458E-01	2.241923E-03
6.262986E+03	2.277309E-01	2.252707E-03
6.272880E+03	2.285639E-01	2.263254E-03
6.282774E+03	2.292594E-01	2.273758E-03
6.292668E+03	2.297977E-01	2.284031E-03
6.302563E+03	2.302625E-01	2.294865E-03
6.312457E+03	2.306333E-01	2.306003E-03
6.322351E+03	2.308876E-01	2.317167E-03
6.332245E+03	2.311062E-01	2.329105E-03
6.342139E+03	2.312636E-01	2.341503E-03
6.352033E+03	2.313323E-01	2.354016E-03
6.361927E+03	2.313876E-01	2.367345E-03
6.371822E+03	2.313629E-01	2.380746E-03
6.381716E+03	2.313297E-01	2.394883E-03
6.391610E+03	2.312524E-01	2.409328E-03
6.401504E+03	2.310941E-01	2.423623E-03
6.411398E+03	2.309206E-01	2.438390E-03
6.421292E+03	2.306570E-01	2.452770E-03
6.431186E+03	2.303665E-01	2.467364E-03
6.441080E+03	2.299723E-01	2.481278E-03
6.450975E+03	2.295358E-01	2.495101E-03
6.460869E+03	2.289791E-01	2.507916E-03
6.470763E+03	2.283629E-01	2.520311E-03
6.480657E+03	2.276094E-01	2.531355E-03
6.490551E+03	2.267794E-01	2.541644E-03
6.500445E+03	2.257964E-01	2.550249E-03
6.510339E+03	2.247220E-01	2.557785E-03
6.520234E+03	2.234820E-01	2.563335E-03
6.530128E+03	2.221058E-01	2.567154E-03
6.540022E+03	2.206230E-01	2.569513E-03
6.549916E+03	2.189645E-01	2.569536E-03
6.559810E+03	2.171957E-01	2.567917E-03
6.569704E+03	2.152511E-01	2.563818E-03
6.579598E+03	2.131660E-01	2.557586E-03
6.589492E+03	2.109755E-01	2.549586E-03
6.599387E+03	2.086203E-01	2.539044E-03
6.609281E+03	2.061385E-01	2.526367E-03
6.619175E+03	2.035680E-01	2.511974E-03
6.629069E+03	2.008552E-01	2.495161E-03
6.638963E+03	1.980402E-01	2.476385E-03
6.648857E+03	1.951329E-01	2.455736E-03
6.658751E+03	1.921730E-01	2.433688E-03
6.668645E+03	1.891126E-01	2.409616E-03
6.678540E+03	1.859926E-01	2.384018E-03
6.688434E+03	1.828520E-01	2.357386E-03
6.698328E+03	1.796464E-01	2.329141E-03
6.708222E+03	1.764151E-01	2.299789E-03
6.718116E+03	1.731691E-01	2.269473E-03
6.728010E+03	1.699191E-01	2.238339E-03
6.737904E+03	1.667004E-01	2.206866E-03
6.747799E+03	1.634716E-01	2.174520E-03
6.757693E+03	1.602673E-01	2.141773E-03
6.767587E+03	1.570958E-01	2.108755E-03
6.777481E+03	1.539646E-01	2.075588E-03
6.787375E+03	1.508804E-01	2.042385E-03
6.797269E+03	1.478491E-01	2.009251E-03
6.807163E+03	1.448978E-01	1.976580E-03
6.817057E+03	1.419867E-01	1.943856E-03
6.826952E+03	1.391417E-01	1.911458E-03
6.836846E+03	1.363657E-01	1.879454E-03
6.846740E+03	1.336609E-01	1.847902E-03
6.856634E+03	1.310290E-01	1.816851E-03
6.866528E+03	1.284708E-01	1.786340E-03
6.876422E+03	1.259867E-01	1.756401E-03
6.886316E+03	1.235766E-01	1.727058E-03
6.896211E+03	1.212398E-01	1.698328E-03
6.906105E+03	1.189754E-01	1.670222E-03
6.915999E+03	1.167820E-01	1.642745E-03
6.925893E+03	1.146579E-01	1.615897E-03
6.935787E+03	1.126012E-01	1.589671E-03
6.945681E+03	1.106097E-01	1.564060E-03
6.955575E+03	1.086811E-01	1.539053E-03
6.965469E+03	1.068129E-01	1.514634E-03
6.975364E+03	1.050026E-01	1.490787E-03
6.985258E+03	1.032476E-01	1.467493E-03
6.995152E+03	1.015453E-01	1.444736E-03
7.005046E+03	9.989314E-02	1.422494E-03
7.014940E+03	9.828844E-02	1.400749E-03
7.024834E+03	9.672873E-02	1.379481E-03
7.034728E+03	9.519708E-02	1.358464E-03
7.044623E+03	9.372034E-02	1.338098E-03
7.054517E+03	9.228153E-02	1.318156E-03
7.064411E+03	9.087850E-02	1.298621E-03
7.074305E+03	8.950927E-02	1.279481E-03
7.084199E+03	8.817192E-02	1.260721E-03
7.094093E+03	8.686467E-02	1.242331E-03
7.103987E+03	8.557285E-02	1.224114E-03
7.113881E+03	8.432123E-02	1.206438E-03
7.123776E+03	8.309515E-02	1.189106E-03
7.133670E+03	8.189337E-02	1.172114E-03
7.143564E+03	8.070244E-02	1.155281E-03
7.153458E+03	7.954607E-02	1.138959E-03
7.163352E+03	7.841087E-02	1.122970E-03
7.173246E+03	7.729602E-02	1.107311E-03
7.183140E+03	7.618910E-02	1.091818E-03
7.193035E+03	7.511296E-02	1.076830E-03
7.202929E+03	7.405521E-02	1.062178E-03
7.212823E+03	7.301536E-02	1.047867E-03
7.222717E+03	7.198200E-02	1.033744E-03
7.232611E+03	7.097698E-02	1.020132E-03
7.242505E+03	6.998882E-02	1.006876E-03
7.252399E+03	6.900680E-02	9.938310E-04
7.262293E+03	6.805196E-02	9.813086E-04
7.272188E+03	6.711353E-02	9.691623E-04
7.282082E+03	6.618128E-02	9.572526E-04
7.291976E+03	6.527559E-02	9.458815E-04
7.301870E+03	6.437634E-02	9.347652E-04
7.311764E+03	6.350342E-02	9.241990E-04
7.321658E+03	6.264687E-02	9.140452E-04
7.331552E+03	6.179733E-02	9.041730E-04
7.341447E+03	6.097396E-02	8.948678E-04
7.351341E+03	6.015802E-02	8.858606E-04
7.361235E+03	5.936823E-02	8.774310E-04
7.371129E+03	5.858637E-02	8.693152E-04
7.381023E+03	5.783062E-02	8.617861E-04
7.390917E+03	5.708327E-02	8.545841E-04
7.400811E+03	5.636203E-02	8.479772E-04
7.410705E+03	5.564958E-02	8.417084E-04
7.420600E+03	5.496319E-02	8.360410E-04
7.430494E+03	5.428596E-02	8.307210E-04
7.440388E+03	5.363467E-02	8.260065E-04
7.450282E+03	5.299278E-02	8.216413E-04
7.460176E+03	5.237666E-02	8.178683E-04
7.470070E+03	5.177009E-02	8.144242E-04
7.479964E+03	5.118898E-02	8.115480E-04
7.489859E+03	5.061741E-02	8.089785E-04
7.499753E+03	5.007090E-02	8.069536E-04
7.509647E+03	4.953382E-02	8.052135E-04
7.519541E+03	4.901377E-02	8.038717E-04
7.529435E+03	4.851798E-02	8.030402E-04
7.539329E+03	4.803130E-02	8.024622E-04
7.549223E+03	4.756103E-02	8.022512E-04
7.559117E+03	4.711420E-02	8.025207E-04
7.569012E+03	4.667594E-02	8.030137E-04
7.578906E+03	4.625328E-02	8.038436E-04
7.588800E+03	4.585294E-02	8.051244E-04
7.598694E+03	4.546044E-02	8.065991E-04
7.608588E+03	4.508253E-02	8.083817E-04
7.618482E+03	4.472570E-02	8.105871E-04
7.628376E+03	4.437571E-02	8.129557E-04
7.638271E+03	4.403913E-02	8.156029E-04
7.648165E+03	4.371548E-02	8.185186E-04
7.658059E+03	4.341105E-02	8.218197E-04
7.667953E+03	4.311195E-02	8.252435E-04
7.677847E+03	4.282446E-02	8.289067E-04
