#wls	flux	fluxerr
1.591305E+03	2.097071E-02	9.029450E-04
1.631088E+03	2.031695E-02	8.588715E-04
1.670870E+03	1.960536E-02	8.132574E-04
1.710653E+03	1.883423E-02	7.661973E-04
1.750436E+03	1.800411E-02	7.178847E-04
1.790218E+03	1.711727E-02	6.685798E-04
1.830001E+03	1.617035E-02	6.183212E-04
1.869784E+03	1.516753E-02	5.674422E-04
1.909566E+03	1.410906E-02	5.161175E-04
1.949349E+03	1.299685E-02	4.645806E-04
1.989131E+03	1.183647E-02	4.131846E-04
2.028914E+03	1.064547E-02	3.626692E-04
2.068697E+03	9.461758E-03	3.143888E-04
2.108479E+03	8.363022E-03	2.708537E-04
2.148262E+03	7.472361E-03	2.357417E-04
2.188045E+03	6.892888E-03	2.117012E-04
2.227827E+03	6.705235E-03	2.003663E-04
2.267610E+03	6.996499E-03	2.032996E-04
2.307392E+03	7.861412E-03	2.220102E-04
2.347175E+03	9.443279E-03	2.590610E-04
2.386958E+03	1.198710E-02	3.193110E-04
2.426740E+03	1.585790E-02	4.100207E-04
2.466523E+03	2.153174E-02	5.402060E-04
2.506306E+03	2.951377E-02	7.182974E-04
2.546088E+03	4.014150E-02	9.474778E-04
2.585871E+03	5.324706E-02	1.218622E-03
2.625653E+03	6.788364E-02	1.506067E-03
2.665436E+03	8.279344E-02	1.780323E-03
2.705219E+03	9.692993E-02	2.019838E-03
2.745001E+03	1.094960E-01	2.210878E-03
2.784784E+03	1.199839E-01	2.347345E-03
2.824567E+03	1.281777E-01	2.429788E-03
2.864349E+03	1.341318E-01	2.464049E-03
2.904132E+03	1.381060E-01	2.459278E-03
2.943914E+03	1.405313E-01	2.426773E-03
2.983697E+03	1.419243E-01	2.378138E-03
2.993643E+03	1.421811E-01	2.364856E-03
3.003588E+03	1.424156E-01	2.351400E-03
3.013534E+03	1.426366E-01	2.337928E-03
3.023480E+03	1.428595E-01	2.324692E-03
3.033425E+03	1.430899E-01	2.311776E-03
3.043371E+03	1.433365E-01	2.299313E-03
3.053317E+03	1.436114E-01	2.287485E-03
3.063262E+03	1.439201E-01	2.276366E-03
3.073208E+03	1.442716E-01	2.266079E-03
3.083154E+03	1.446805E-01	2.256837E-03
3.093099E+03	1.451497E-01	2.248661E-03
3.103045E+03	1.456910E-01	2.241710E-03
3.112991E+03	1.463105E-01	2.236051E-03
3.122936E+03	1.470258E-01	2.231926E-03
3.132882E+03	1.478375E-01	2.229311E-03
3.142828E+03	1.487577E-01	2.228358E-03
3.152773E+03	1.497990E-01	2.229220E-03
3.162719E+03	1.509712E-01	2.232007E-03
3.172665E+03	1.522787E-01	2.236744E-03
3.182610E+03	1.537405E-01	2.243672E-03
3.192556E+03	1.553620E-01	2.252826E-03
3.202502E+03	1.571572E-01	2.264367E-03
3.212447E+03	1.591355E-01	2.278382E-03
3.222393E+03	1.613120E-01	2.295040E-03
3.232339E+03	1.636999E-01	2.314480E-03
3.242284E+03	1.663130E-01	2.336845E-03
3.252230E+03	1.691630E-01	2.362245E-03
3.262175E+03	1.722682E-01	2.390879E-03
3.272121E+03	1.756448E-01	2.422914E-03
3.282067E+03	1.793070E-01	2.458486E-03
3.292012E+03	1.832758E-01	2.497820E-03
3.301958E+03	1.875673E-01	2.541069E-03
3.311904E+03	1.922044E-01	2.588478E-03
3.321849E+03	1.972051E-01	2.640218E-03
3.331795E+03	2.025915E-01	2.696513E-03
3.341741E+03	2.083864E-01	2.757594E-03
3.351686E+03	2.146144E-01	2.823706E-03
3.361632E+03	2.213014E-01	2.895113E-03
3.371578E+03	2.284717E-01	2.972051E-03
3.381523E+03	2.361550E-01	3.054824E-03
3.391469E+03	2.443678E-01	3.143558E-03
3.401415E+03	2.531371E-01	3.238516E-03
3.411360E+03	2.624692E-01	3.339695E-03
3.421306E+03	2.723643E-01	3.447014E-03
3.431252E+03	2.828102E-01	3.560245E-03
3.441197E+03	2.937698E-01	3.678853E-03
3.451143E+03	3.051756E-01	3.801942E-03
3.461089E+03	3.169286E-01	3.928243E-03
3.471034E+03	3.289130E-01	4.056315E-03
3.480980E+03	3.409664E-01	4.184170E-03
3.490926E+03	3.528681E-01	4.309156E-03
3.500871E+03	3.643583E-01	4.428194E-03
3.510817E+03	3.751085E-01	4.537425E-03
3.520763E+03	3.847721E-01	4.632805E-03
3.530708E+03	3.929847E-01	4.710143E-03
3.540654E+03	3.994083E-01	4.765630E-03
3.550600E+03	4.037253E-01	4.795759E-03
3.560545E+03	4.056779E-01	4.797783E-03
3.570491E+03	4.051089E-01	4.770187E-03
3.580436E+03	4.019233E-01	4.712203E-03
3.590382E+03	3.961242E-01	4.624223E-03
3.600328E+03	3.877980E-01	4.507601E-03
3.610273E+03	3.771094E-01	4.364576E-03
3.620219E+03	3.643111E-01	4.198371E-03
3.630165E+03	3.497506E-01	4.013247E-03
3.640110E+03	3.338344E-01	3.814079E-03
3.650056E+03	3.170460E-01	3.606539E-03
3.660002E+03	2.999165E-01	3.396752E-03
3.669947E+03	2.829833E-01	3.190814E-03
3.679893E+03	2.667398E-01	2.994225E-03
3.689839E+03	2.516403E-01	2.811956E-03
3.699784E+03	2.380555E-01	2.647958E-03
3.709730E+03	2.262778E-01	2.505239E-03
3.719676E+03	2.165366E-01	2.386051E-03
3.729621E+03	2.090127E-01	2.292062E-03
3.739567E+03	2.038454E-01	2.224442E-03
3.749513E+03	2.011554E-01	2.184125E-03
3.759458E+03	2.010676E-01	2.172049E-03
3.769404E+03	2.037175E-01	2.189232E-03
3.779350E+03	2.092480E-01	2.236725E-03
3.789295E+03	2.178131E-01	2.315649E-03
3.799241E+03	2.295567E-01	2.426967E-03
3.809187E+03	2.445075E-01	2.570381E-03
3.819132E+03	2.625842E-01	2.744412E-03
3.829078E+03	2.835782E-01	2.946267E-03
3.839024E+03	3.070514E-01	3.170809E-03
3.848969E+03	3.323141E-01	3.410421E-03
3.858915E+03	3.584575E-01	3.655414E-03
3.868861E+03	3.843949E-01	3.894528E-03
3.878806E+03	4.089212E-01	4.115601E-03
3.888752E+03	4.308431E-01	4.306922E-03
3.898698E+03	4.491877E-01	4.459310E-03
3.908643E+03	4.632599E-01	4.566616E-03
3.918589E+03	4.727181E-01	4.626370E-03
3.928534E+03	4.776876E-01	4.640766E-03
3.938480E+03	4.786586E-01	4.615508E-03
3.948426E+03	4.763888E-01	4.558740E-03
3.958371E+03	4.718675E-01	4.480604E-03
3.968317E+03	4.661447E-01	4.391533E-03
3.978263E+03	4.602180E-01	4.301169E-03
3.988208E+03	4.549483E-01	4.217584E-03
3.998154E+03	4.510287E-01	4.147053E-03
4.008100E+03	4.489123E-01	4.093453E-03
4.018045E+03	4.486942E-01	4.057282E-03
4.027991E+03	4.502413E-01	4.036969E-03
4.037937E+03	4.532110E-01	4.029123E-03
4.047882E+03	4.569939E-01	4.028111E-03
4.057828E+03	4.608295E-01	4.027174E-03
4.067774E+03	4.639603E-01	4.019815E-03
4.077719E+03	4.657179E-01	4.000533E-03
4.087665E+03	4.655503E-01	3.965018E-03
4.097611E+03	4.631175E-01	3.910905E-03
4.107556E+03	4.583898E-01	3.838516E-03
4.117502E+03	4.515457E-01	3.749896E-03
4.127448E+03	4.428456E-01	3.647692E-03
4.137393E+03	4.326145E-01	3.534987E-03
4.147339E+03	4.211859E-01	3.414824E-03
4.157285E+03	4.088653E-01	3.289911E-03
4.167230E+03	3.959240E-01	3.162587E-03
4.177176E+03	3.825977E-01	3.034821E-03
4.187122E+03	3.691071E-01	2.908398E-03
4.197067E+03	3.556821E-01	2.785105E-03
4.207013E+03	3.425410E-01	2.666586E-03
4.216959E+03	3.299026E-01	2.554436E-03
4.226904E+03	3.180005E-01	2.450327E-03
4.236850E+03	3.070509E-01	2.355764E-03
4.246796E+03	2.972385E-01	2.271992E-03
4.256741E+03	2.887359E-01	2.200162E-03
4.266687E+03	2.816747E-01	2.141122E-03
4.276632E+03	2.761253E-01	2.095277E-03
4.286578E+03	2.720814E-01	2.062463E-03
4.296524E+03	2.694709E-01	2.042042E-03
4.306469E+03	2.681550E-01	2.032913E-03
4.316415E+03	2.678876E-01	2.033194E-03
4.326361E+03	2.683600E-01	2.040519E-03
4.336306E+03	2.692009E-01	2.052027E-03
4.346252E+03	2.700956E-01	2.065274E-03
4.356198E+03	2.709794E-01	2.079705E-03
4.366143E+03	2.718610E-01	2.095322E-03
4.376089E+03	2.727166E-01	2.111872E-03
4.386035E+03	2.735197E-01	2.129077E-03
4.395980E+03	2.743117E-01	2.147184E-03
4.405926E+03	2.753533E-01	2.168173E-03
4.415872E+03	2.769918E-01	2.194758E-03
4.425817E+03	2.795143E-01	2.229254E-03
4.435763E+03	2.831013E-01	2.273187E-03
4.445709E+03	2.878381E-01	2.327365E-03
4.455654E+03	2.936631E-01	2.391430E-03
4.465600E+03	3.003023E-01	2.463275E-03
4.475546E+03	3.073489E-01	2.539633E-03
4.485491E+03	3.143483E-01	2.616744E-03
4.495437E+03	3.208288E-01	2.690588E-03
4.505383E+03	3.263518E-01	2.757303E-03
4.515328E+03	3.305693E-01	2.813686E-03
4.525274E+03	3.332649E-01	2.857569E-03
4.535220E+03	3.343360E-01	2.887714E-03
4.545165E+03	3.337604E-01	2.903562E-03
4.555111E+03	3.315825E-01	2.905133E-03
4.565057E+03	3.278897E-01	2.892850E-03
4.575002E+03	3.228142E-01	2.867565E-03
4.584948E+03	3.165115E-01	2.830382E-03
4.594894E+03	3.091653E-01	2.782711E-03
4.604839E+03	3.009910E-01	2.726303E-03
4.614785E+03	2.922535E-01	2.663426E-03
4.624730E+03	2.832063E-01	2.596312E-03
4.634676E+03	2.741044E-01	2.527270E-03
4.644622E+03	2.651636E-01	2.458310E-03
4.654567E+03	2.565623E-01	2.391139E-03
4.664513E+03	2.484278E-01	2.327024E-03
4.674459E+03	2.408249E-01	2.266667E-03
4.684404E+03	2.337807E-01	2.210422E-03
4.694350E+03	2.272814E-01	2.158257E-03
4.704296E+03	2.212813E-01	2.109831E-03
4.714241E+03	2.157174E-01	2.064625E-03
4.724187E+03	2.105100E-01	2.021946E-03
4.734133E+03	2.055803E-01	1.981099E-03
4.744078E+03	2.008404E-01	1.941284E-03
4.754024E+03	1.962269E-01	1.901931E-03
4.763970E+03	1.916909E-01	1.862602E-03
4.773915E+03	1.872027E-01	1.823041E-03
4.783861E+03	1.827700E-01	1.783356E-03
4.793807E+03	1.784387E-01	1.744029E-03
4.803752E+03	1.742769E-01	1.705760E-03
4.813698E+03	1.703847E-01	1.669569E-03
4.823644E+03	1.668928E-01	1.636776E-03
4.833589E+03	1.639338E-01	1.608718E-03
4.843535E+03	1.616054E-01	1.586388E-03
4.853481E+03	1.599449E-01	1.570174E-03
4.863426E+03	1.589448E-01	1.560022E-03
4.873372E+03	1.585585E-01	1.555477E-03
4.883318E+03	1.586693E-01	1.555393E-03
4.893263E+03	1.591380E-01	1.558397E-03
4.903209E+03	1.598312E-01	1.563174E-03
4.913155E+03	1.606363E-01	1.568614E-03
4.923100E+03	1.614722E-01	1.573921E-03
4.933046E+03	1.622967E-01	1.578682E-03
4.942991E+03	1.631273E-01	1.583068E-03
4.952937E+03	1.640193E-01	1.587614E-03
4.962883E+03	1.650526E-01	1.593090E-03
4.972828E+03	1.663178E-01	1.600356E-03
4.982774E+03	1.679171E-01	1.610372E-03
4.992720E+03	1.699315E-01	1.623881E-03
5.002665E+03	1.724057E-01	1.641263E-03
5.012611E+03	1.753619E-01	1.662676E-03
5.022557E+03	1.787900E-01	1.687965E-03
5.032502E+03	1.826289E-01	1.716493E-03
5.042448E+03	1.867853E-01	1.747330E-03
5.052394E+03	1.911416E-01	1.779335E-03
5.062339E+03	1.955407E-01	1.811022E-03
5.072285E+03	1.998102E-01	1.840797E-03
5.082231E+03	2.037782E-01	1.867106E-03
5.092176E+03	2.072673E-01	1.888389E-03
5.102122E+03	2.101217E-01	1.903319E-03
5.112068E+03	2.121941E-01	1.910690E-03
5.122013E+03	2.133687E-01	1.909613E-03
5.131959E+03	2.135479E-01	1.899394E-03
5.141905E+03	2.126565E-01	1.879568E-03
5.151850E+03	2.106333E-01	1.849810E-03
5.161796E+03	2.074497E-01	1.810100E-03
5.171742E+03	2.031379E-01	1.760952E-03
5.181687E+03	1.977970E-01	1.703446E-03
5.191633E+03	1.915962E-01	1.639242E-03
5.201579E+03	1.847588E-01	1.570412E-03
5.211524E+03	1.775759E-01	1.499547E-03
5.221470E+03	1.703567E-01	1.429320E-03
5.231416E+03	1.634052E-01	1.362288E-03
5.241361E+03	1.570084E-01	1.300796E-03
5.251307E+03	1.514172E-01	1.246833E-03
5.261253E+03	1.468211E-01	1.201837E-03
5.271198E+03	1.433533E-01	1.166754E-03
5.281144E+03	1.410873E-01	1.142036E-03
5.291089E+03	1.400230E-01	1.127538E-03
5.301035E+03	1.400582E-01	1.122317E-03
5.310981E+03	1.410259E-01	1.124944E-03
5.320926E+03	1.426966E-01	1.133538E-03
5.330872E+03	1.447598E-01	1.145622E-03
5.340818E+03	1.468557E-01	1.158379E-03
5.350763E+03	1.486335E-01	1.169103E-03
5.360709E+03	1.497740E-01	1.175364E-03
5.370655E+03	1.500172E-01	1.175206E-03
5.380600E+03	1.492055E-01	1.167467E-03
5.390546E+03	1.473350E-01	1.152145E-03
5.400492E+03	1.445059E-01	1.129993E-03
5.410437E+03	1.409060E-01	1.102418E-03
5.420383E+03	1.368966E-01	1.072163E-03
5.430329E+03	1.330238E-01	1.043428E-03
5.440274E+03	1.298584E-01	1.020631E-03
5.450220E+03	1.278215E-01	1.007059E-03
5.460166E+03	1.271871E-01	1.004892E-03
5.470111E+03	1.280815E-01	1.015190E-03
5.480057E+03	1.304320E-01	1.037469E-03
5.490003E+03	1.340476E-01	1.070313E-03
5.499948E+03	1.386562E-01	1.111654E-03
5.509894E+03	1.439061E-01	1.158756E-03
5.519840E+03	1.493916E-01	1.208403E-03
5.529785E+03	1.547251E-01	1.257468E-03
5.539731E+03	1.595949E-01	1.303380E-03
5.549677E+03	1.637715E-01	1.344188E-03
5.559622E+03	1.671103E-01	1.378594E-03
5.569568E+03	1.695859E-01	1.406261E-03
5.579514E+03	1.712501E-01	1.427485E-03
5.589459E+03	1.722012E-01	1.442955E-03
5.599405E+03	1.725608E-01	1.453574E-03
5.609351E+03	1.724490E-01	1.460255E-03
5.619296E+03	1.719598E-01	1.463707E-03
5.629242E+03	1.711321E-01	1.464189E-03
5.639187E+03	1.699733E-01	1.461697E-03
5.649133E+03	1.684746E-01	1.456091E-03
5.659079E+03	1.666192E-01	1.447162E-03
5.669024E+03	1.643926E-01	1.434723E-03
5.678970E+03	1.618070E-01	1.418822E-03
5.688916E+03	1.589273E-01	1.399977E-03
5.698861E+03	1.558381E-01	1.378895E-03
5.708807E+03	1.526535E-01	1.356560E-03
5.718753E+03	1.495197E-01	1.334267E-03
5.728698E+03	1.465839E-01	1.313340E-03
5.738644E+03	1.439751E-01	1.294964E-03
5.748590E+03	1.418008E-01	1.280144E-03
5.758535E+03	1.401348E-01	1.269597E-03
5.768481E+03	1.390098E-01	1.263669E-03
5.778427E+03	1.384102E-01	1.262269E-03
5.788372E+03	1.382801E-01	1.264930E-03
5.798318E+03	1.385483E-01	1.271038E-03
5.808264E+03	1.391295E-01	1.279835E-03
5.818209E+03	1.399324E-01	1.290502E-03
5.828155E+03	1.408783E-01	1.302324E-03
5.838101E+03	1.419127E-01	1.314802E-03
5.848046E+03	1.430053E-01	1.327658E-03
5.857992E+03	1.441320E-01	1.340673E-03
5.867938E+03	1.452840E-01	1.353762E-03
5.877883E+03	1.464564E-01	1.366886E-03
5.887829E+03	1.476369E-01	1.379930E-03
5.897775E+03	1.487982E-01	1.392645E-03
5.907720E+03	1.498900E-01	1.404560E-03
5.917666E+03	1.508347E-01	1.414953E-03
5.927612E+03	1.515114E-01	1.422692E-03
5.937557E+03	1.517632E-01	1.426303E-03
5.947503E+03	1.513984E-01	1.423988E-03
5.957449E+03	1.501993E-01	1.413697E-03
5.967394E+03	1.479381E-01	1.393286E-03
5.977340E+03	1.444351E-01	1.361063E-03
5.987285E+03	1.395699E-01	1.315896E-03
5.997231E+03	1.333266E-01	1.257635E-03
6.007177E+03	1.258404E-01	1.187561E-03
6.017122E+03	1.174174E-01	1.108569E-03
6.027068E+03	1.084537E-01	1.024403E-03
6.037014E+03	9.937033E-02	9.390510E-04
6.046959E+03	9.059124E-02	8.565254E-04
6.056905E+03	8.246374E-02	7.801205E-04
6.066851E+03	7.524142E-02	7.122471E-04
6.076796E+03	6.908685E-02	6.544584E-04
6.086742E+03	6.408499E-02	6.075774E-04
6.096688E+03	6.026460E-02	5.718996E-04
6.106633E+03	5.762492E-02	5.474465E-04
6.116579E+03	5.615220E-02	5.341235E-04
6.126525E+03	5.582540E-02	5.317753E-04
6.136470E+03	5.661322E-02	5.401591E-04
6.146416E+03	5.848568E-02	5.590560E-04
6.156362E+03	6.141836E-02	5.883126E-04
6.166307E+03	6.536749E-02	6.276049E-04
6.176253E+03	7.026526E-02	6.763911E-04
6.186199E+03	7.600876E-02	7.338027E-04
6.196144E+03	8.244364E-02	7.984803E-04
6.206090E+03	8.936187E-02	8.685414E-04
6.216036E+03	9.651040E-02	9.416510E-04
6.225981E+03	1.036167E-01	1.015256E-03
6.235927E+03	1.104066E-01	1.086748E-03
6.245873E+03	1.166338E-01	1.153743E-03
6.255818E+03	1.221085E-01	1.214362E-03
6.265764E+03	1.267097E-01	1.267343E-03
6.275710E+03	1.303820E-01	1.312018E-03
6.285655E+03	1.331232E-01	1.348218E-03
6.295601E+03	1.349721E-01	1.376173E-03
6.305546E+03	1.359992E-01	1.396421E-03
6.315492E+03	1.362820E-01	1.409575E-03
6.325438E+03	1.358974E-01	1.416252E-03
6.335383E+03	1.349281E-01	1.417136E-03
6.345329E+03	1.334461E-01	1.412818E-03
6.355275E+03	1.315200E-01	1.403865E-03
6.365220E+03	1.292249E-01	1.390933E-03
6.375166E+03	1.266550E-01	1.374908E-03
6.385112E+03	1.239065E-01	1.356727E-03
6.395057E+03	1.210961E-01	1.337593E-03
6.405003E+03	1.183656E-01	1.319032E-03
6.414949E+03	1.158572E-01	1.302632E-03
6.424894E+03	1.137021E-01	1.289916E-03
6.434840E+03	1.119535E-01	1.281576E-03
6.444786E+03	1.105430E-01	1.276921E-03
6.454731E+03	1.093738E-01	1.274908E-03
6.464677E+03	1.083741E-01	1.274748E-03
6.474623E+03	1.074783E-01	1.275698E-03
6.484568E+03	1.066264E-01	1.277057E-03
6.494514E+03	1.057766E-01	1.278317E-03
6.504460E+03	1.048958E-01	1.279063E-03
6.514405E+03	1.039597E-01	1.278968E-03
6.524351E+03	1.029552E-01	1.277839E-03
6.534297E+03	1.018788E-01	1.275598E-03
6.544242E+03	1.007291E-01	1.272192E-03
6.554188E+03	9.951267E-02	1.267670E-03
6.564134E+03	9.824121E-02	1.262150E-03
6.574079E+03	9.692668E-02	1.255760E-03
6.584025E+03	9.558088E-02	1.248632E-03
6.593971E+03	9.421897E-02	1.240949E-03
6.603916E+03	9.285160E-02	1.232839E-03
6.613862E+03	9.149226E-02	1.224477E-03
6.623808E+03	9.014612E-02	1.215930E-03
6.633753E+03	8.881912E-02	1.207279E-03
6.643699E+03	8.751538E-02	1.198582E-03
6.653644E+03	8.623561E-02	1.189854E-03
6.663590E+03	8.497871E-02	1.181084E-03
6.673536E+03	8.374505E-02	1.172283E-03
6.683481E+03	8.253703E-02	1.163491E-03
6.693427E+03	8.135568E-02	1.154728E-03
6.703373E+03	8.020785E-02	1.146100E-03
6.713318E+03	7.909741E-02	1.137673E-03
6.723264E+03	7.803446E-02	1.129602E-03
6.733210E+03	7.702384E-02	1.121973E-03
6.743155E+03	7.607550E-02	1.114947E-03
6.753101E+03	7.519178E-02	1.108574E-03
6.763047E+03	7.437555E-02	1.102915E-03
6.772992E+03	7.362616E-02	1.097979E-03
6.782938E+03	7.293910E-02	1.093715E-03
6.792884E+03	7.230949E-02	1.090066E-03
6.802829E+03	7.172816E-02	1.086906E-03
6.812775E+03	7.118859E-02	1.084149E-03
6.822721E+03	7.068074E-02	1.081651E-03
6.832666E+03	7.020051E-02	1.079355E-03
6.842612E+03	6.974158E-02	1.077171E-03
6.852558E+03	6.930098E-02	1.075058E-03
6.862503E+03	6.887609E-02	1.072979E-03
6.872449E+03	6.846929E-02	1.070974E-03
6.882395E+03	6.807746E-02	1.069000E-03
6.892340E+03	6.770582E-02	1.067141E-03
6.902286E+03	6.735293E-02	1.065379E-03
6.912232E+03	6.701908E-02	1.063722E-03
6.922177E+03	6.670552E-02	1.062194E-03
6.932123E+03	6.641041E-02	1.060770E-03
6.942069E+03	6.613232E-02	1.059429E-03
6.952014E+03	6.586944E-02	1.058146E-03
6.961960E+03	6.562005E-02	1.056896E-03
6.971906E+03	6.538216E-02	1.055648E-03
6.981851E+03	6.515276E-02	1.054357E-03
6.991797E+03	6.493288E-02	1.053040E-03
7.001742E+03	6.471711E-02	1.051611E-03
7.011688E+03	6.450819E-02	1.050115E-03
7.021634E+03	6.430100E-02	1.048472E-03
7.031579E+03	6.409691E-02	1.046704E-03
7.041525E+03	6.389315E-02	1.044766E-03
7.051471E+03	6.368841E-02	1.042639E-03
7.061416E+03	6.348197E-02	1.040312E-03
7.071362E+03	6.326901E-02	1.037706E-03
7.081308E+03	6.304863E-02	1.034809E-03
7.091253E+03	6.281712E-02	1.031559E-03
7.101199E+03	6.257319E-02	1.027939E-03
7.111145E+03	6.231452E-02	1.023910E-03
7.121090E+03	6.203769E-02	1.019418E-03
7.131036E+03	6.174203E-02	1.014455E-03
7.140982E+03	6.142349E-02	1.008957E-03
7.150927E+03	6.108334E-02	1.002948E-03
7.160873E+03	6.071929E-02	9.963929E-04
7.170819E+03	6.032933E-02	9.892630E-04
7.180764E+03	5.991359E-02	9.815651E-04
7.190710E+03	5.947097E-02	9.732861E-04
7.200656E+03	5.899942E-02	9.643975E-04
7.210601E+03	5.849771E-02	9.548859E-04
7.220547E+03	5.796493E-02	9.447426E-04
7.230493E+03	5.740037E-02	9.339636E-04
7.240438E+03	5.680328E-02	9.225444E-04
7.250384E+03	5.617085E-02	9.104480E-04
7.260330E+03	5.550537E-02	8.977206E-04
7.270275E+03	5.480560E-02	8.843519E-04
7.280221E+03	5.407076E-02	8.703399E-04
7.290167E+03	5.330290E-02	8.557279E-04
7.300112E+03	5.250117E-02	8.405136E-04
7.310058E+03	5.166764E-02	8.247421E-04
7.320004E+03	5.080523E-02	8.084715E-04
7.329949E+03	4.991658E-02	7.917558E-04
7.339895E+03	4.900736E-02	7.746965E-04
7.349840E+03	4.808014E-02	7.573454E-04
7.359786E+03	4.714396E-02	7.398553E-04
7.369732E+03	4.620465E-02	7.223271E-04
7.379677E+03	4.527242E-02	7.049284E-04
7.389623E+03	4.435756E-02	6.878255E-04
7.399569E+03	4.347176E-02	6.712033E-04
7.409514E+03	4.262770E-02	6.552585E-04
7.419460E+03	4.183735E-02	6.401728E-04
7.429406E+03	4.111540E-02	6.261660E-04
7.439351E+03	4.047034E-02	6.133579E-04
7.449297E+03	3.991291E-02	6.019000E-04
7.459243E+03	3.944947E-02	5.918735E-04
7.469188E+03	3.908691E-02	5.833643E-04
7.479134E+03	3.882465E-02	5.763453E-04
7.489080E+03	3.866073E-02	5.707675E-04
7.499025E+03	3.859205E-02	5.665656E-04
7.508971E+03	3.861186E-02	5.636214E-04
7.518917E+03	3.871367E-02	5.618220E-04
7.528862E+03	3.888690E-02	5.609977E-04
7.538808E+03	3.912258E-02	5.610051E-04
7.548754E+03	3.941135E-02	5.616984E-04
7.558699E+03	3.974221E-02	5.629120E-04
7.568645E+03	4.010611E-02	5.645119E-04
7.578591E+03	4.049274E-02	5.663495E-04
7.588536E+03	4.089514E-02	5.683272E-04
7.598482E+03	4.130340E-02	5.703100E-04
7.608428E+03	4.171227E-02	5.722300E-04
7.618373E+03	4.211397E-02	5.739878E-04
7.628319E+03	4.250596E-02	5.755582E-04
7.638265E+03	4.288311E-02	5.768825E-04
7.648210E+03	4.324573E-02	5.779771E-04
7.658156E+03	4.359351E-02	5.788505E-04
7.668101E+03	4.392843E-02	5.795423E-04
7.678047E+03	4.425293E-02	5.800977E-04
7.687993E+03	4.456980E-02	5.805663E-04
7.697938E+03	4.488171E-02	5.809955E-04
7.707884E+03	4.518897E-02	5.814027E-04
7.717830E+03	4.549238E-02	5.818111E-04
