#wls	flux	fluxerr
1.591305E+03	2.724759E-02	9.522659E-04
1.631088E+03	2.622024E-02	9.013618E-04
1.670870E+03	2.511664E-02	8.489326E-04
1.710653E+03	2.393697E-02	7.951436E-04
1.750436E+03	2.268498E-02	7.402767E-04
1.790218E+03	2.136713E-02	6.846921E-04
1.830001E+03	1.998361E-02	6.285379E-04
1.869784E+03	1.854483E-02	5.722752E-04
1.909566E+03	1.705665E-02	5.162011E-04
1.949349E+03	1.552633E-02	4.606374E-04
1.989131E+03	1.396278E-02	4.059330E-04
2.028914E+03	1.238445E-02	3.526833E-04
2.068697E+03	1.083428E-02	3.021170E-04
2.108479E+03	9.410253E-03	2.568590E-04
2.148262E+03	8.251226E-03	2.203911E-04
2.188045E+03	7.467408E-03	1.951218E-04
2.227827E+03	7.128631E-03	1.821788E-04
2.267610E+03	7.296761E-03	1.823446E-04
2.307392E+03	8.041779E-03	1.964826E-04
2.347175E+03	9.479918E-03	2.264384E-04
2.386958E+03	1.181548E-02	2.759073E-04
2.426740E+03	1.535253E-02	3.504914E-04
2.466523E+03	2.047965E-02	4.571350E-04
2.506306E+03	2.759497E-02	6.023071E-04
2.546088E+03	3.695605E-02	7.888202E-04
2.585871E+03	4.847449E-02	1.011918E-03
2.625653E+03	6.167407E-02	1.259233E-03
2.665436E+03	7.564181E-02	1.510662E-03
2.705219E+03	8.928918E-02	1.744361E-03
2.745001E+03	1.017152E-01	1.943958E-03
2.784784E+03	1.122754E-01	2.099348E-03
2.824567E+03	1.206205E-01	2.206792E-03
2.864349E+03	1.266990E-01	2.268324E-03
2.904132E+03	1.307014E-01	2.290175E-03
2.943914E+03	1.330195E-01	2.281613E-03
2.983697E+03	1.341498E-01	2.252981E-03
2.993643E+03	1.343151E-01	2.243993E-03
3.003588E+03	1.344479E-01	2.234540E-03
3.013534E+03	1.345567E-01	2.224773E-03
3.023480E+03	1.346563E-01	2.214941E-03
3.033425E+03	1.347523E-01	2.205134E-03
3.043371E+03	1.348531E-01	2.195490E-03
3.053317E+03	1.349702E-01	2.186188E-03
3.063262E+03	1.351092E-01	2.177311E-03
3.073208E+03	1.352785E-01	2.168985E-03
3.083154E+03	1.354921E-01	2.161426E-03
3.093099E+03	1.357527E-01	2.154661E-03
3.103045E+03	1.360715E-01	2.148852E-03
3.112991E+03	1.364542E-01	2.144074E-03
3.122936E+03	1.369173E-01	2.140567E-03
3.132882E+03	1.374612E-01	2.138315E-03
3.142828E+03	1.380972E-01	2.137475E-03
3.152773E+03	1.388368E-01	2.138198E-03
3.162719E+03	1.396890E-01	2.140597E-03
3.172665E+03	1.406577E-01	2.144704E-03
3.182610E+03	1.417603E-01	2.150757E-03
3.192556E+03	1.430016E-01	2.158794E-03
3.202502E+03	1.443944E-01	2.168977E-03
3.212447E+03	1.459469E-01	2.181394E-03
3.222393E+03	1.476731E-01	2.196217E-03
3.232339E+03	1.495849E-01	2.213582E-03
3.242284E+03	1.516949E-01	2.233636E-03
3.252230E+03	1.540141E-01	2.256493E-03
3.262175E+03	1.565593E-01	2.282355E-03
3.272121E+03	1.593458E-01	2.311394E-03
3.282067E+03	1.623873E-01	2.343759E-03
3.292012E+03	1.657039E-01	2.379681E-03
3.301958E+03	1.693117E-01	2.419334E-03
3.311904E+03	1.732335E-01	2.462981E-03
3.321849E+03	1.774884E-01	2.510826E-03
3.331795E+03	1.820992E-01	2.563123E-03
3.341741E+03	1.870909E-01	2.620149E-03
3.351686E+03	1.924896E-01	2.682191E-03
3.361632E+03	1.983230E-01	2.749547E-03
3.371578E+03	2.046158E-01	2.822475E-03
3.381523E+03	2.113985E-01	2.901298E-03
3.391469E+03	2.186897E-01	2.986175E-03
3.401415E+03	2.265153E-01	3.077357E-03
3.411360E+03	2.348804E-01	3.174809E-03
3.421306E+03	2.437826E-01	3.278394E-03
3.431252E+03	2.532021E-01	3.387745E-03
3.441197E+03	2.630928E-01	3.502150E-03
3.451143E+03	2.733893E-01	3.620656E-03
3.461089E+03	2.839978E-01	3.741956E-03
3.471034E+03	2.948131E-01	3.864616E-03
3.480980E+03	3.057092E-01	3.986965E-03
3.490926E+03	3.165192E-01	4.106832E-03
3.500871E+03	3.270419E-01	4.221650E-03
3.510817E+03	3.370183E-01	4.328162E-03
3.520763E+03	3.461735E-01	4.422961E-03
3.530708E+03	3.542074E-01	4.502390E-03
3.540654E+03	3.608240E-01	4.562918E-03
3.550600E+03	3.657344E-01	4.601177E-03
3.560545E+03	3.686889E-01	4.614367E-03
3.570491E+03	3.694997E-01	4.600516E-03
3.580436E+03	3.680254E-01	4.558278E-03
3.590382E+03	3.642139E-01	4.487446E-03
3.600328E+03	3.580861E-01	4.388714E-03
3.610273E+03	3.497426E-01	4.263752E-03
3.620219E+03	3.393767E-01	4.115324E-03
3.630165E+03	3.272727E-01	3.947247E-03
3.640110E+03	3.137854E-01	3.764109E-03
3.650056E+03	2.993488E-01	3.571359E-03
3.660002E+03	2.844339E-01	3.374770E-03
3.669947E+03	2.695314E-01	3.180226E-03
3.679893E+03	2.551054E-01	2.993175E-03
3.689839E+03	2.415807E-01	2.818484E-03
3.699784E+03	2.293162E-01	2.660142E-03
3.709730E+03	2.186103E-01	2.521346E-03
3.719676E+03	2.097033E-01	2.404545E-03
3.729621E+03	2.027899E-01	2.311601E-03
3.739567E+03	1.980256E-01	2.243877E-03
3.749513E+03	1.955458E-01	2.202466E-03
3.759458E+03	1.954765E-01	2.188311E-03
3.769404E+03	1.979419E-01	2.202299E-03
3.779350E+03	2.030684E-01	2.245301E-03
3.789295E+03	2.109664E-01	2.317975E-03
3.799241E+03	2.217300E-01	2.420761E-03
3.809187E+03	2.353951E-01	2.553437E-03
3.819132E+03	2.519019E-01	2.714740E-03
3.829078E+03	2.710700E-01	2.902120E-03
3.839024E+03	2.925539E-01	3.111324E-03
3.848969E+03	3.158098E-01	3.336099E-03
3.858915E+03	3.400978E-01	3.568286E-03
3.868861E+03	3.645092E-01	3.798184E-03
3.878806E+03	3.880323E-01	4.015286E-03
3.888752E+03	4.096433E-01	4.209261E-03
3.898698E+03	4.284393E-01	4.371311E-03
3.908643E+03	4.437330E-01	4.495092E-03
3.918589E+03	4.551350E-01	4.577461E-03
3.928534E+03	4.626193E-01	4.619026E-03
3.938480E+03	4.664877E-01	4.623651E-03
3.948426E+03	4.673102E-01	4.597760E-03
3.958371E+03	4.658735E-01	4.549722E-03
3.968317E+03	4.630409E-01	4.488425E-03
3.978263E+03	4.596607E-01	4.422362E-03
3.988208E+03	4.564734E-01	4.358749E-03
3.998154E+03	4.540595E-01	4.303072E-03
4.008100E+03	4.528099E-01	4.258871E-03
4.018045E+03	4.528711E-01	4.227297E-03
4.027991E+03	4.541905E-01	4.207619E-03
4.037937E+03	4.565325E-01	4.197446E-03
4.047882E+03	4.595017E-01	4.193000E-03
4.057828E+03	4.625979E-01	4.189668E-03
4.067774E+03	4.652939E-01	4.182739E-03
4.077719E+03	4.670904E-01	4.167890E-03
4.087665E+03	4.675688E-01	4.141649E-03
4.097611E+03	4.664411E-01	4.101790E-03
4.107556E+03	4.635607E-01	4.047391E-03
4.117502E+03	4.589245E-01	3.978796E-03
4.127448E+03	4.526222E-01	3.897133E-03
4.137393E+03	4.448208E-01	3.804152E-03
4.147339E+03	4.357243E-01	3.701864E-03
4.157285E+03	4.255505E-01	3.592330E-03
4.167230E+03	4.145270E-01	3.477627E-03
4.177176E+03	4.028777E-01	3.359744E-03
4.187122E+03	3.908280E-01	3.240615E-03
4.197067E+03	3.786167E-01	3.122234E-03
4.207013E+03	3.664768E-01	3.006495E-03
4.216959E+03	3.546384E-01	2.895219E-03
4.226904E+03	3.433330E-01	2.790199E-03
4.236850E+03	3.327693E-01	2.693012E-03
4.246796E+03	3.231220E-01	2.604937E-03
4.256741E+03	3.145487E-01	2.527106E-03
4.266687E+03	3.071637E-01	2.460297E-03
4.276632E+03	3.010229E-01	2.404832E-03
4.286578E+03	2.961150E-01	2.360509E-03
4.296524E+03	2.923706E-01	2.326672E-03
4.306469E+03	2.896704E-01	2.302285E-03
4.316415E+03	2.878245E-01	2.285779E-03
4.326361E+03	2.866318E-01	2.275516E-03
4.336306E+03	2.858972E-01	2.269899E-03
4.346252E+03	2.854574E-01	2.267583E-03
4.356198E+03	2.852070E-01	2.267686E-03
4.366143E+03	2.851086E-01	2.269866E-03
4.376089E+03	2.851722E-01	2.274163E-03
4.386035E+03	2.854757E-01	2.281160E-03
4.395980E+03	2.861548E-01	2.291910E-03
4.405926E+03	2.873884E-01	2.307830E-03
4.415872E+03	2.893873E-01	2.330612E-03
4.425817E+03	2.923387E-01	2.361790E-03
4.435763E+03	2.963564E-01	2.402326E-03
4.445709E+03	3.014698E-01	2.452523E-03
4.455654E+03	3.075915E-01	2.511740E-03
4.465600E+03	3.145027E-01	2.578254E-03
4.475546E+03	3.218700E-01	2.649380E-03
4.485491E+03	3.292924E-01	2.721824E-03
4.495437E+03	3.363421E-01	2.792018E-03
4.505383E+03	3.425920E-01	2.856334E-03
4.515328E+03	3.476651E-01	2.911493E-03
4.525274E+03	3.512883E-01	2.955031E-03
4.535220E+03	3.532763E-01	2.985180E-03
4.545165E+03	3.535236E-01	3.000814E-03
4.555111E+03	3.520210E-01	3.001614E-03
4.565057E+03	3.488142E-01	2.987726E-03
4.575002E+03	3.440088E-01	2.959821E-03
4.584948E+03	3.377721E-01	2.919128E-03
4.594894E+03	3.303076E-01	2.867214E-03
4.604839E+03	3.218401E-01	2.805875E-03
4.614785E+03	3.126435E-01	2.737373E-03
4.624730E+03	3.029732E-01	2.663858E-03
4.634676E+03	2.930893E-01	2.587565E-03
4.644622E+03	2.832246E-01	2.510529E-03
4.654567E+03	2.735752E-01	2.434497E-03
4.664513E+03	2.642928E-01	2.360851E-03
4.674459E+03	2.554868E-01	2.290614E-03
4.684404E+03	2.472276E-01	2.224477E-03
4.694350E+03	2.395373E-01	2.162700E-03
4.704296E+03	2.324058E-01	2.105256E-03
4.714241E+03	2.257980E-01	2.051888E-03
4.724187E+03	2.196539E-01	2.002106E-03
4.734133E+03	2.139154E-01	1.955431E-03
4.744078E+03	2.085084E-01	1.911227E-03
4.754024E+03	2.033771E-01	1.869020E-03
4.763970E+03	1.984797E-01	1.828458E-03
4.773915E+03	1.937887E-01	1.789316E-03
4.783861E+03	1.893054E-01	1.751635E-03
4.793807E+03	1.850610E-01	1.715730E-03
4.803752E+03	1.811004E-01	1.682046E-03
4.813698E+03	1.774878E-01	1.651207E-03
4.823644E+03	1.742978E-01	1.623939E-03
4.833589E+03	1.715964E-01	1.600888E-03
4.843535E+03	1.694280E-01	1.582498E-03
4.853481E+03	1.678077E-01	1.568933E-03
4.863426E+03	1.667145E-01	1.560023E-03
4.873372E+03	1.661000E-01	1.555330E-03
4.883318E+03	1.658835E-01	1.554112E-03
4.893263E+03	1.659743E-01	1.555526E-03
4.903209E+03	1.662810E-01	1.558720E-03
4.913155E+03	1.667271E-01	1.562979E-03
4.923100E+03	1.672610E-01	1.567821E-03
4.933046E+03	1.678584E-01	1.573017E-03
4.942991E+03	1.685377E-01	1.578742E-03
4.952937E+03	1.693428E-01	1.585408E-03
4.962883E+03	1.703387E-01	1.593621E-03
4.972828E+03	1.716039E-01	1.604113E-03
4.982774E+03	1.732234E-01	1.617671E-03
4.992720E+03	1.752636E-01	1.634908E-03
5.002665E+03	1.777750E-01	1.656278E-03
5.012611E+03	1.807846E-01	1.682017E-03
5.022557E+03	1.842868E-01	1.712050E-03
5.032502E+03	1.882472E-01	1.746036E-03
5.042448E+03	1.925980E-01	1.783323E-03
5.052394E+03	1.972400E-01	1.822975E-03
5.062339E+03	2.020448E-01	1.863790E-03
5.072285E+03	2.068596E-01	1.904352E-03
5.082231E+03	2.115145E-01	1.943102E-03
5.092176E+03	2.158243E-01	1.978355E-03
5.102122E+03	2.196072E-01	2.008476E-03
5.112068E+03	2.226731E-01	2.031772E-03
5.122013E+03	2.248604E-01	2.046830E-03
5.131959E+03	2.260200E-01	2.052368E-03
5.141905E+03	2.260299E-01	2.047368E-03
5.151850E+03	2.248067E-01	2.031171E-03
5.161796E+03	2.223107E-01	2.003527E-03
5.171742E+03	2.185628E-01	1.964732E-03
5.181687E+03	2.136508E-01	1.915678E-03
5.191633E+03	2.077345E-01	1.857897E-03
5.201579E+03	2.010258E-01	1.793362E-03
5.211524E+03	1.938004E-01	1.724599E-03
5.221470E+03	1.863590E-01	1.654323E-03
5.231416E+03	1.790104E-01	1.585290E-03
5.241361E+03	1.720587E-01	1.520189E-03
5.251307E+03	1.657785E-01	1.461421E-03
5.261253E+03	1.603865E-01	1.410856E-03
5.271198E+03	1.560449E-01	1.369870E-03
5.281144E+03	1.528511E-01	1.339266E-03
5.291089E+03	1.508307E-01	1.319217E-03
5.301035E+03	1.499224E-01	1.309141E-03
5.310981E+03	1.499983E-01	1.307890E-03
5.320926E+03	1.508588E-01	1.313708E-03
5.330872E+03	1.522267E-01	1.324178E-03
5.340818E+03	1.537657E-01	1.336387E-03
5.350763E+03	1.551295E-01	1.347349E-03
5.360709E+03	1.559857E-01	1.354208E-03
5.370655E+03	1.560547E-01	1.354563E-03
5.380600E+03	1.551545E-01	1.346857E-03
5.390546E+03	1.532553E-01	1.330832E-03
5.400492E+03	1.504740E-01	1.307473E-03
5.410437E+03	1.470563E-01	1.278873E-03
5.420383E+03	1.433729E-01	1.248210E-03
5.430329E+03	1.398512E-01	1.219168E-03
5.440274E+03	1.369062E-01	1.195342E-03
5.450220E+03	1.348831E-01	1.179748E-03
5.460166E+03	1.340339E-01	1.174612E-03
5.470111E+03	1.345073E-01	1.181285E-03
5.480057E+03	1.363121E-01	1.199909E-03
5.490003E+03	1.393625E-01	1.229802E-03
5.499948E+03	1.434906E-01	1.269563E-03
5.509894E+03	1.484501E-01	1.317086E-03
5.519840E+03	1.539332E-01	1.369698E-03
5.529785E+03	1.596138E-01	1.424537E-03
5.539731E+03	1.651711E-01	1.478751E-03
5.549677E+03	1.703178E-01	1.529753E-03
5.559622E+03	1.748207E-01	1.575406E-03
5.569568E+03	1.785347E-01	1.614339E-03
5.579514E+03	1.813895E-01	1.645836E-03
5.589459E+03	1.833815E-01	1.669777E-03
5.599405E+03	1.845555E-01	1.686478E-03
5.609351E+03	1.849859E-01	1.696531E-03
5.619296E+03	1.847569E-01	1.700627E-03
5.629242E+03	1.839372E-01	1.699320E-03
5.639187E+03	1.825902E-01	1.693128E-03
5.649133E+03	1.807720E-01	1.682506E-03
5.659079E+03	1.785276E-01	1.667815E-03
5.669024E+03	1.759056E-01	1.649454E-03
5.678970E+03	1.729689E-01	1.627969E-03
5.688916E+03	1.698010E-01	1.604105E-03
5.698861E+03	1.664952E-01	1.578717E-03
5.708807E+03	1.631661E-01	1.552872E-03
5.718753E+03	1.599316E-01	1.527689E-03
5.728698E+03	1.569063E-01	1.504273E-03
5.738644E+03	1.541962E-01	1.483661E-03
5.748590E+03	1.518853E-01	1.466696E-03
5.758535E+03	1.500305E-01	1.453967E-03
5.768481E+03	1.486620E-01	1.445813E-03
5.778427E+03	1.477804E-01	1.442289E-03
5.788372E+03	1.473560E-01	1.443152E-03
5.798318E+03	1.473460E-01	1.448027E-03
5.808264E+03	1.476911E-01	1.456372E-03
5.818209E+03	1.483274E-01	1.467588E-03
5.828155E+03	1.491956E-01	1.481115E-03
5.838101E+03	1.502388E-01	1.496410E-03
5.848046E+03	1.514159E-01	1.513080E-03
5.857992E+03	1.526896E-01	1.530763E-03
5.867938E+03	1.540294E-01	1.549165E-03
5.877883E+03	1.554057E-01	1.567994E-03
5.887829E+03	1.567817E-01	1.586883E-03
5.897775E+03	1.581060E-01	1.605313E-03
5.907720E+03	1.593006E-01	1.622489E-03
5.917666E+03	1.602628E-01	1.637351E-03
5.927612E+03	1.608554E-01	1.648477E-03
5.937557E+03	1.609091E-01	1.654095E-03
5.947503E+03	1.602272E-01	1.652133E-03
5.957449E+03	1.586057E-01	1.640418E-03
5.967394E+03	1.558471E-01	1.616815E-03
5.977340E+03	1.518124E-01	1.579777E-03
5.987285E+03	1.464268E-01	1.528407E-03
5.997231E+03	1.397279E-01	1.462973E-03
6.007177E+03	1.318817E-01	1.385092E-03
6.017122E+03	1.231704E-01	1.297629E-03
6.027068E+03	1.139570E-01	1.204331E-03
6.037014E+03	1.046361E-01	1.109326E-03
6.046959E+03	9.559823E-02	1.016753E-03
6.056905E+03	8.717146E-02	9.301326E-04
6.066851E+03	7.960875E-02	8.522273E-04
6.076796E+03	7.307797E-02	7.849220E-04
6.086742E+03	6.767414E-02	7.293430E-04
6.096688E+03	6.343558E-02	6.860201E-04
6.106633E+03	6.036453E-02	6.551015E-04
6.116579E+03	5.844558E-02	6.365487E-04
6.126525E+03	5.765760E-02	6.302636E-04
6.136470E+03	5.797704E-02	6.361245E-04
6.146416E+03	5.938481E-02	6.540615E-04
6.156362E+03	6.186842E-02	6.840825E-04
6.166307E+03	6.540242E-02	7.260567E-04
6.176253E+03	6.994370E-02	7.796607E-04
6.186199E+03	7.542060E-02	8.442525E-04
6.196144E+03	8.171654E-02	9.186809E-04
6.206090E+03	8.866416E-02	1.001207E-03
6.216036E+03	9.604415E-02	1.089477E-03
6.225981E+03	1.035970E-01	1.180642E-03
6.235927E+03	1.110396E-01	1.271528E-03
6.245873E+03	1.180940E-01	1.358961E-03
6.255818E+03	1.245125E-01	1.440043E-03
6.265764E+03	1.301017E-01	1.512436E-03
6.275710E+03	1.347309E-01	1.574485E-03
6.285655E+03	1.383271E-01	1.625166E-03
6.295601E+03	1.408717E-01	1.664073E-03
6.305546E+03	1.423977E-01	1.691397E-03
6.315492E+03	1.429687E-01	1.707694E-03
6.325438E+03	1.426690E-01	1.713778E-03
6.335383E+03	1.416064E-01	1.710767E-03
6.345329E+03	1.398905E-01	1.699817E-03
6.355275E+03	1.376388E-01	1.682215E-03
6.365220E+03	1.349790E-01	1.659401E-03
6.375166E+03	1.320478E-01	1.632962E-03
6.385112E+03	1.289806E-01	1.604505E-03
6.395057E+03	1.259181E-01	1.575747E-03
6.405003E+03	1.229887E-01	1.548290E-03
6.414949E+03	1.202976E-01	1.523483E-03
6.424894E+03	1.179169E-01	1.502286E-03
6.434840E+03	1.158761E-01	1.485137E-03
6.444786E+03	1.141649E-01	1.471971E-03
6.454731E+03	1.127353E-01	1.462232E-03
6.464677E+03	1.115286E-01	1.455213E-03
6.474623E+03	1.104773E-01	1.450069E-03
6.484568E+03	1.095144E-01	1.445947E-03
6.494514E+03	1.085845E-01	1.442124E-03
6.504460E+03	1.076417E-01	1.437991E-03
6.514405E+03	1.066520E-01	1.433078E-03
6.524351E+03	1.055926E-01	1.427062E-03
6.534297E+03	1.044530E-01	1.419781E-03
6.544242E+03	1.032286E-01	1.411145E-03
6.554188E+03	1.019230E-01	1.401183E-03
6.564134E+03	1.005475E-01	1.390025E-03
6.574079E+03	9.911448E-02	1.377826E-03
6.584025E+03	9.763698E-02	1.364750E-03
6.593971E+03	9.613133E-02	1.351014E-03
6.603916E+03	9.461018E-02	1.336789E-03
6.613862E+03	9.308901E-02	1.322289E-03
6.623808E+03	9.157502E-02	1.307614E-03
6.633753E+03	9.007645E-02	1.292885E-03
6.643699E+03	8.860072E-02	1.278210E-03
6.653644E+03	8.715208E-02	1.263655E-03
6.663590E+03	8.573224E-02	1.249252E-03
6.673536E+03	8.434374E-02	1.235043E-03
6.683481E+03	8.299089E-02	1.221099E-03
6.693427E+03	8.167539E-02	1.207452E-03
6.703373E+03	8.040266E-02	1.194192E-03
6.713318E+03	7.917445E-02	1.181354E-03
6.723264E+03	7.799862E-02	1.169067E-03
6.733210E+03	7.687729E-02	1.157373E-03
6.743155E+03	7.581742E-02	1.146389E-03
6.753101E+03	7.481931E-02	1.136133E-03
6.763047E+03	7.388584E-02	1.126663E-03
6.772992E+03	7.301665E-02	1.117985E-03
6.782938E+03	7.220837E-02	1.110061E-03
6.792884E+03	7.145867E-02	1.102867E-03
6.802829E+03	7.076155E-02	1.096322E-03
6.812775E+03	7.011302E-02	1.090375E-03
6.822721E+03	6.950507E-02	1.084908E-03
6.832666E+03	6.893519E-02	1.079891E-03
6.842612E+03	6.839761E-02	1.075240E-03
6.852558E+03	6.788877E-02	1.070906E-03
6.862503E+03	6.740481E-02	1.066831E-03
6.872449E+03	6.694631E-02	1.063031E-03
6.882395E+03	6.650810E-02	1.059428E-03
6.892340E+03	6.609307E-02	1.056071E-03
6.902286E+03	6.569771E-02	1.052908E-03
6.912232E+03	6.532117E-02	1.049930E-03
6.922177E+03	6.496361E-02	1.047142E-03
6.932123E+03	6.462243E-02	1.044506E-03
6.942069E+03	6.429621E-02	1.042001E-03
6.952014E+03	6.398355E-02	1.039608E-03
6.961960E+03	6.368287E-02	1.037304E-03
6.971906E+03	6.339303E-02	1.035071E-03
6.981851E+03	6.311177E-02	1.032875E-03
6.991797E+03	6.284068E-02	1.030745E-03
7.001742E+03	6.257554E-02	1.028612E-03
7.011688E+03	6.231970E-02	1.026533E-03
7.021634E+03	6.206896E-02	1.024441E-03
7.031579E+03	6.182551E-02	1.022373E-03
7.041525E+03	6.158759E-02	1.020303E-03
7.051471E+03	6.135432E-02	1.018217E-03
7.061416E+03	6.112592E-02	1.016119E-03
7.071362E+03	6.089851E-02	1.013948E-03
7.081308E+03	6.067158E-02	1.011695E-03
7.091253E+03	6.044195E-02	1.009309E-03
7.101199E+03	6.020866E-02	1.006774E-03
7.111145E+03	5.996925E-02	1.004052E-03
7.121090E+03	5.972002E-02	1.001079E-03
7.131036E+03	5.945975E-02	9.978380E-04
7.140982E+03	5.918331E-02	9.942421E-04
7.150927E+03	5.889046E-02	9.902888E-04
7.160873E+03	5.857732E-02	9.859134E-04
7.170819E+03	5.823986E-02	9.810490E-04
7.180764E+03	5.787643E-02	9.756688E-04
7.190710E+03	5.748414E-02	9.697252E-04
7.200656E+03	5.705876E-02	9.631479E-04
7.210601E+03	5.659763E-02	9.558935E-04
7.220547E+03	5.609799E-02	9.479168E-04
7.230493E+03	5.555757E-02	9.391811E-04
7.240438E+03	5.497438E-02	9.296548E-04
7.250384E+03	5.434471E-02	9.192773E-04
7.260330E+03	5.366992E-02	9.080742E-04
7.270275E+03	5.294872E-02	8.960261E-04
7.280221E+03	5.218054E-02	8.831269E-04
7.290167E+03	5.136787E-02	8.694216E-04
7.300112E+03	5.051094E-02	8.549179E-04
7.310058E+03	4.961316E-02	8.396771E-04
7.320004E+03	4.867886E-02	8.237764E-04
7.329949E+03	4.771250E-02	8.072954E-04
7.339895E+03	4.672161E-02	7.903657E-04
7.349840E+03	4.571081E-02	7.730697E-04
7.359786E+03	4.469094E-02	7.555945E-04
7.369732E+03	4.366996E-02	7.380789E-04
7.379677E+03	4.265973E-02	7.207269E-04
7.389623E+03	4.167121E-02	7.037270E-04
7.399569E+03	4.071684E-02	6.872923E-04
7.409514E+03	3.980995E-02	6.716501E-04
7.419460E+03	3.896175E-02	6.569915E-04
7.429406E+03	3.818598E-02	6.435495E-04
7.439351E+03	3.749092E-02	6.314640E-04
7.449297E+03	3.688638E-02	6.209009E-04
7.459243E+03	3.637775E-02	6.119498E-04
7.469188E+03	3.597125E-02	6.047149E-04
7.479134E+03	3.566753E-02	5.992056E-04
7.489080E+03	3.546569E-02	5.954055E-04
7.499025E+03	3.536352E-02	5.932758E-04
7.508971E+03	3.535614E-02	5.927331E-04
7.518917E+03	3.543859E-02	5.936929E-04
7.528862E+03	3.560152E-02	5.959973E-04
7.538808E+03	3.583685E-02	5.995105E-04
7.548754E+03	3.613581E-02	6.040850E-04
7.558699E+03	3.648749E-02	6.095389E-04
7.568645E+03	3.688246E-02	6.157152E-04
7.578591E+03	3.730971E-02	6.224312E-04
7.588536E+03	3.776120E-02	6.295546E-04
7.598482E+03	3.822632E-02	6.369109E-04
7.608428E+03	3.869889E-02	6.443998E-04
7.618373E+03	3.917048E-02	6.518837E-04
7.628319E+03	3.963756E-02	6.593080E-04
7.638265E+03	4.009464E-02	6.665847E-04
7.648210E+03	4.054142E-02	6.737129E-04
7.658156E+03	4.097642E-02	6.806726E-04
7.668101E+03	4.140042E-02	6.874805E-04
7.678047E+03	4.181508E-02	6.941690E-04
7.687993E+03	4.222254E-02	7.007779E-04
7.697938E+03	4.262479E-02	7.073449E-04
7.707884E+03	4.302210E-02	7.138793E-04
7.717830E+03	4.341658E-02	7.204206E-04
