#wls	flux	fluxerr
1.591305E+03	2.833404E-02	8.545395E-04
1.631088E+03	2.654958E-02	7.899188E-04
1.670870E+03	2.469402E-02	7.245798E-04
1.710653E+03	2.278289E-02	6.590853E-04
1.750436E+03	2.083218E-02	5.939851E-04
1.790218E+03	1.886349E-02	5.299585E-04
1.830001E+03	1.690024E-02	4.676971E-04
1.869784E+03	1.497271E-02	4.080372E-04
1.909566E+03	1.311260E-02	3.517991E-04
1.949349E+03	1.135372E-02	2.998014E-04
1.989131E+03	9.734453E-03	2.529212E-04
2.028914E+03	8.293593E-03	2.119771E-04
2.068697E+03	7.073369E-03	1.778061E-04
2.108479E+03	6.106291E-03	1.509322E-04
2.148262E+03	5.386964E-03	1.309038E-04
2.188045E+03	4.914013E-03	1.173759E-04
2.227827E+03	4.693228E-03	1.101772E-04
2.267610E+03	4.736340E-03	1.092690E-04
2.307392E+03	5.068194E-03	1.148982E-04
2.347175E+03	5.730674E-03	1.276615E-04
2.386958E+03	6.793617E-03	1.487126E-04
2.426740E+03	8.356573E-03	1.797470E-04
2.466523E+03	1.054382E-02	2.228463E-04
2.506306E+03	1.348981E-02	2.801349E-04
2.546088E+03	1.731603E-02	3.532947E-04
2.585871E+03	2.211025E-02	4.431763E-04
2.625653E+03	2.790602E-02	5.494591E-04
2.665436E+03	3.458272E-02	6.688156E-04
2.705219E+03	4.182464E-02	7.944015E-04
2.745001E+03	4.920448E-02	9.177413E-04
2.784784E+03	5.624889E-02	1.030108E-03
2.824567E+03	6.252879E-02	1.124210E-03
2.864349E+03	6.773712E-02	1.195472E-03
2.904132E+03	7.172943E-02	1.242526E-03
2.943914E+03	7.453487E-02	1.267125E-03
2.983697E+03	7.631771E-02	1.273216E-03
2.993643E+03	7.663139E-02	1.272428E-03
3.003588E+03	7.690105E-02	1.270889E-03
3.013534E+03	7.713272E-02	1.268707E-03
3.023480E+03	7.733058E-02	1.265962E-03
3.033425E+03	7.749913E-02	1.262735E-03
3.043371E+03	7.764441E-02	1.259131E-03
3.053317E+03	7.776932E-02	1.255205E-03
3.063262E+03	7.788172E-02	1.251087E-03
3.073208E+03	7.798445E-02	1.246826E-03
3.083154E+03	7.808369E-02	1.242523E-03
3.093099E+03	7.818398E-02	1.238250E-03
3.103045E+03	7.829142E-02	1.234103E-03
3.112991E+03	7.841051E-02	1.230150E-03
3.122936E+03	7.854564E-02	1.226455E-03
3.132882E+03	7.870291E-02	1.223111E-03
3.142828E+03	7.888526E-02	1.220157E-03
3.152773E+03	7.910020E-02	1.217703E-03
3.162719E+03	7.935069E-02	1.215786E-03
3.172665E+03	7.964285E-02	1.214492E-03
3.182610E+03	7.998118E-02	1.213880E-03
3.192556E+03	8.037041E-02	1.214011E-03
3.202502E+03	8.081674E-02	1.214967E-03
3.212447E+03	8.132494E-02	1.216808E-03
3.222393E+03	8.189868E-02	1.219574E-03
3.232339E+03	8.254713E-02	1.223388E-03
3.242284E+03	8.327140E-02	1.228250E-03
3.252230E+03	8.408099E-02	1.234285E-03
3.262175E+03	8.497866E-02	1.241513E-03
3.272121E+03	8.597143E-02	1.250021E-03
3.282067E+03	8.706640E-02	1.259890E-03
3.292012E+03	8.826661E-02	1.271145E-03
3.301958E+03	8.958065E-02	1.283886E-03
3.311904E+03	9.101417E-02	1.298173E-03
3.321849E+03	9.257149E-02	1.314041E-03
3.331795E+03	9.425780E-02	1.331542E-03
3.341741E+03	9.607781E-02	1.350714E-03
3.351686E+03	9.803688E-02	1.371609E-03
3.361632E+03	1.001353E-01	1.394202E-03
3.371578E+03	1.023773E-01	1.418526E-03
3.381523E+03	1.047601E-01	1.444514E-03
3.391469E+03	1.072810E-01	1.472106E-03
3.401415E+03	1.099360E-01	1.501218E-03
3.411360E+03	1.127119E-01	1.531648E-03
3.421306E+03	1.155983E-01	1.563234E-03
3.431252E+03	1.185762E-01	1.595701E-03
3.441197E+03	1.216196E-01	1.628685E-03
3.451143E+03	1.247077E-01	1.661899E-03
3.461089E+03	1.278153E-01	1.695004E-03
3.471034E+03	1.309326E-01	1.727870E-03
3.480980E+03	1.340518E-01	1.760395E-03
3.490926E+03	1.371575E-01	1.792383E-03
3.500871E+03	1.402345E-01	1.823641E-03
3.510817E+03	1.432553E-01	1.853823E-03
3.520763E+03	1.461847E-01	1.882489E-03
3.530708E+03	1.489826E-01	1.909145E-03
3.540654E+03	1.516002E-01	1.933190E-03
3.550600E+03	1.539870E-01	1.954019E-03
3.560545E+03	1.560905E-01	1.971010E-03
3.570491E+03	1.578640E-01	1.983629E-03
3.580436E+03	1.592644E-01	1.991393E-03
3.590382E+03	1.602537E-01	1.993900E-03
3.600328E+03	1.608070E-01	1.990913E-03
3.610273E+03	1.609105E-01	1.982341E-03
3.620219E+03	1.605606E-01	1.968218E-03
3.630165E+03	1.597754E-01	1.948849E-03
3.640110E+03	1.585815E-01	1.924630E-03
3.650056E+03	1.570283E-01	1.896231E-03
3.660002E+03	1.551814E-01	1.864504E-03
3.669947E+03	1.531225E-01	1.830475E-03
3.679893E+03	1.509496E-01	1.795349E-03
3.689839E+03	1.487753E-01	1.760475E-03
3.699784E+03	1.467157E-01	1.727218E-03
3.709730E+03	1.448985E-01	1.697053E-03
3.719676E+03	1.434469E-01	1.671369E-03
3.729621E+03	1.424863E-01	1.651553E-03
3.739567E+03	1.421379E-01	1.638912E-03
3.749513E+03	1.425151E-01	1.634634E-03
3.759458E+03	1.437316E-01	1.639885E-03
3.769404E+03	1.458897E-01	1.655673E-03
3.779350E+03	1.490858E-01	1.682915E-03
3.789295E+03	1.534041E-01	1.722366E-03
3.799241E+03	1.589132E-01	1.774589E-03
3.809187E+03	1.656551E-01	1.839835E-03
3.819132E+03	1.736400E-01	1.917992E-03
3.829078E+03	1.828324E-01	2.008445E-03
3.839024E+03	1.931432E-01	2.110000E-03
3.848969E+03	2.044145E-01	2.220742E-03
3.858915E+03	2.164188E-01	2.338039E-03
3.868861E+03	2.288612E-01	2.458594E-03
3.878806E+03	2.413855E-01	2.578525E-03
3.888752E+03	2.536003E-01	2.693666E-03
3.898698E+03	2.651030E-01	2.799824E-03
3.908643E+03	2.755164E-01	2.893176E-03
3.918589E+03	2.845225E-01	2.970606E-03
3.928534E+03	2.918996E-01	3.030075E-03
3.938480E+03	2.975463E-01	3.070838E-03
3.948426E+03	3.014695E-01	3.093287E-03
3.958371E+03	3.038024E-01	3.099099E-03
3.968317E+03	3.047673E-01	3.090822E-03
3.978263E+03	3.046512E-01	3.071602E-03
3.988208E+03	3.037735E-01	3.044842E-03
3.998154E+03	3.024503E-01	3.013833E-03
4.008100E+03	3.009753E-01	2.981574E-03
4.018045E+03	2.995887E-01	2.950463E-03
4.027991E+03	2.984772E-01	2.922322E-03
4.037937E+03	2.977675E-01	2.898348E-03
4.047882E+03	2.975281E-01	2.879143E-03
4.057828E+03	2.977819E-01	2.864862E-03
4.067774E+03	2.985041E-01	2.855194E-03
4.077719E+03	2.996396E-01	2.849551E-03
4.087665E+03	3.011065E-01	2.847108E-03
4.097611E+03	3.027996E-01	2.846837E-03
4.107556E+03	3.046081E-01	2.847683E-03
4.117502E+03	3.064058E-01	2.848476E-03
4.127448E+03	3.080671E-01	2.848074E-03
4.137393E+03	3.094667E-01	2.845366E-03
4.147339E+03	3.104796E-01	2.839270E-03
4.157285E+03	3.109987E-01	2.828888E-03
4.167230E+03	3.109241E-01	2.813409E-03
4.177176E+03	3.101910E-01	2.792349E-03
4.187122E+03	3.087525E-01	2.765396E-03
4.197067E+03	3.066045E-01	2.732623E-03
4.207013E+03	3.037748E-01	2.694379E-03
4.216959E+03	3.003250E-01	2.651304E-03
4.226904E+03	2.963377E-01	2.604204E-03
4.236850E+03	2.919245E-01	2.554121E-03
4.246796E+03	2.871998E-01	2.502101E-03
4.256741E+03	2.822798E-01	2.449179E-03
4.266687E+03	2.772785E-01	2.396358E-03
4.276632E+03	2.722922E-01	2.344463E-03
4.286578E+03	2.673908E-01	2.294085E-03
4.296524E+03	2.626264E-01	2.245650E-03
4.306469E+03	2.580258E-01	2.199365E-03
4.316415E+03	2.535922E-01	2.155229E-03
4.326361E+03	2.493156E-01	2.113129E-03
4.336306E+03	2.451826E-01	2.072911E-03
4.346252E+03	2.412257E-01	2.034814E-03
4.356198E+03	2.376055E-01	2.000151E-03
4.366143E+03	2.344688E-01	1.970114E-03
4.376089E+03	2.318677E-01	1.945084E-03
4.386035E+03	2.298054E-01	1.925035E-03
4.395980E+03	2.283118E-01	1.910169E-03
4.405926E+03	2.275540E-01	1.901838E-03
4.415872E+03	2.277443E-01	1.901776E-03
4.425817E+03	2.290725E-01	1.911525E-03
4.435763E+03	2.316652E-01	1.932108E-03
4.445709E+03	2.355910E-01	1.964071E-03
4.455654E+03	2.408593E-01	2.007474E-03
4.465600E+03	2.474037E-01	2.061752E-03
4.475546E+03	2.550904E-01	2.125785E-03
4.485491E+03	2.637106E-01	2.197836E-03
4.495437E+03	2.729825E-01	2.275557E-03
4.505383E+03	2.825583E-01	2.356053E-03
4.515328E+03	2.920351E-01	2.435962E-03
4.525274E+03	3.009856E-01	2.511715E-03
4.535220E+03	3.089778E-01	2.579691E-03
4.545165E+03	3.156034E-01	2.636456E-03
4.555111E+03	3.205115E-01	2.679043E-03
4.565057E+03	3.234401E-01	2.705217E-03
4.575002E+03	3.242253E-01	2.713558E-03
4.584948E+03	3.228170E-01	2.703586E-03
4.594894E+03	3.192785E-01	2.675776E-03
4.604839E+03	3.137678E-01	2.631395E-03
4.614785E+03	3.065316E-01	2.572460E-03
4.624730E+03	2.978726E-01	2.501466E-03
4.634676E+03	2.881258E-01	2.421191E-03
4.644622E+03	2.776339E-01	2.334488E-03
4.654567E+03	2.667266E-01	2.244111E-03
4.664513E+03	2.557029E-01	2.152566E-03
4.674459E+03	2.448240E-01	2.062050E-03
4.684404E+03	2.343001E-01	1.974338E-03
4.694350E+03	2.242938E-01	1.890807E-03
4.704296E+03	2.149256E-01	1.812484E-03
4.714241E+03	2.062696E-01	1.740005E-03
4.724187E+03	1.983676E-01	1.673734E-03
4.734133E+03	1.912339E-01	1.613802E-03
4.744078E+03	1.848582E-01	1.560134E-03
4.754024E+03	1.792119E-01	1.512496E-03
4.763970E+03	1.742558E-01	1.470564E-03
4.773915E+03	1.699417E-01	1.433936E-03
4.783861E+03	1.662168E-01	1.402169E-03
4.793807E+03	1.630311E-01	1.374842E-03
4.803752E+03	1.603343E-01	1.351533E-03
4.813698E+03	1.580786E-01	1.331836E-03
4.823644E+03	1.562190E-01	1.315370E-03
4.833589E+03	1.547104E-01	1.301752E-03
4.843535E+03	1.535108E-01	1.290625E-03
4.853481E+03	1.525700E-01	1.281564E-03
4.863426E+03	1.518385E-01	1.274149E-03
4.873372E+03	1.512671E-01	1.267963E-03
4.883318E+03	1.508046E-01	1.262575E-03
4.893263E+03	1.504032E-01	1.257584E-03
4.903209E+03	1.500212E-01	1.252641E-03
4.913155E+03	1.496356E-01	1.247556E-03
4.923100E+03	1.492339E-01	1.242228E-03
4.933046E+03	1.488222E-01	1.236710E-03
4.942991E+03	1.484250E-01	1.231209E-03
4.952937E+03	1.480827E-01	1.226063E-03
4.962883E+03	1.478467E-01	1.221696E-03
4.972828E+03	1.477795E-01	1.218625E-03
4.982774E+03	1.479505E-01	1.217413E-03
4.992720E+03	1.484260E-01	1.218596E-03
5.002665E+03	1.492679E-01	1.222670E-03
5.012611E+03	1.505360E-01	1.230102E-03
5.022557E+03	1.522720E-01	1.241212E-03
5.032502E+03	1.545107E-01	1.256257E-03
5.042448E+03	1.572699E-01	1.275352E-03
5.052394E+03	1.605477E-01	1.298451E-03
5.062339E+03	1.643339E-01	1.325440E-03
5.072285E+03	1.685920E-01	1.355996E-03
5.082231E+03	1.732671E-01	1.389651E-03
5.092176E+03	1.782823E-01	1.425765E-03
5.102122E+03	1.835308E-01	1.463468E-03
5.112068E+03	1.888843E-01	1.501732E-03
5.122013E+03	1.941935E-01	1.539375E-03
5.131959E+03	1.992861E-01	1.575048E-03
5.141905E+03	2.039801E-01	1.607346E-03
5.151850E+03	2.080892E-01	1.634846E-03
5.161796E+03	2.114385E-01	1.656235E-03
5.171742E+03	2.138673E-01	1.670328E-03
5.181687E+03	2.152564E-01	1.676277E-03
5.191633E+03	2.155262E-01	1.673552E-03
5.201579E+03	2.146540E-01	1.662071E-03
5.211524E+03	2.126853E-01	1.642275E-03
5.221470E+03	2.097301E-01	1.615093E-03
5.231416E+03	2.059489E-01	1.581834E-03
5.241361E+03	2.015558E-01	1.544197E-03
5.251307E+03	1.967929E-01	1.504072E-03
5.261253E+03	1.919049E-01	1.463351E-03
5.271198E+03	1.871426E-01	1.423952E-03
5.281144E+03	1.827199E-01	1.387492E-03
5.291089E+03	1.788154E-01	1.355313E-03
5.301035E+03	1.755398E-01	1.328229E-03
5.310981E+03	1.729557E-01	1.306694E-03
5.320926E+03	1.710611E-01	1.290673E-03
5.330872E+03	1.697889E-01	1.279645E-03
5.340818E+03	1.690228E-01	1.272728E-03
5.350763E+03	1.685902E-01	1.268624E-03
5.360709E+03	1.682850E-01	1.265790E-03
5.370655E+03	1.678687E-01	1.262442E-03
5.380600E+03	1.671007E-01	1.256785E-03
5.390546E+03	1.657595E-01	1.247152E-03
5.400492E+03	1.636764E-01	1.232256E-03
5.410437E+03	1.607971E-01	1.211654E-03
5.420383E+03	1.572703E-01	1.186427E-03
5.430329E+03	1.533876E-01	1.158728E-03
5.440274E+03	1.494955E-01	1.131140E-03
5.450220E+03	1.459198E-01	1.106099E-03
5.460166E+03	1.429333E-01	1.085665E-03
5.470111E+03	1.407350E-01	1.071355E-03
5.480057E+03	1.394339E-01	1.064021E-03
5.490003E+03	1.390676E-01	1.063984E-03
5.499948E+03	1.396148E-01	1.071126E-03
5.509894E+03	1.410018E-01	1.084930E-03
5.519840E+03	1.431054E-01	1.104498E-03
5.529785E+03	1.457729E-01	1.128694E-03
5.539731E+03	1.488184E-01	1.156116E-03
5.549677E+03	1.520405E-01	1.185224E-03
5.559622E+03	1.552366E-01	1.214445E-03
5.569568E+03	1.582116E-01	1.242245E-03
5.579514E+03	1.607981E-01	1.267282E-03
5.589459E+03	1.628609E-01	1.288451E-03
5.599405E+03	1.643066E-01	1.304956E-03
5.609351E+03	1.650879E-01	1.316358E-03
5.619296E+03	1.652005E-01	1.322552E-03
5.629242E+03	1.646764E-01	1.323721E-03
5.639187E+03	1.635763E-01	1.320287E-03
5.649133E+03	1.619867E-01	1.312882E-03
5.659079E+03	1.600093E-01	1.302276E-03
5.669024E+03	1.577487E-01	1.289277E-03
5.678970E+03	1.553169E-01	1.274763E-03
5.688916E+03	1.528232E-01	1.259614E-03
5.698861E+03	1.503696E-01	1.244656E-03
5.708807E+03	1.480483E-01	1.230656E-03
5.718753E+03	1.459408E-01	1.218302E-03
5.728698E+03	1.441166E-01	1.208194E-03
5.738644E+03	1.426328E-01	1.200837E-03
5.748590E+03	1.415285E-01	1.196596E-03
5.758535E+03	1.408330E-01	1.195757E-03
5.768481E+03	1.405552E-01	1.198437E-03
5.778427E+03	1.406888E-01	1.204624E-03
5.788372E+03	1.412152E-01	1.214200E-03
5.798318E+03	1.420953E-01	1.226869E-03
5.808264E+03	1.432798E-01	1.242241E-03
5.818209E+03	1.447077E-01	1.259814E-03
5.828155E+03	1.463054E-01	1.278974E-03
5.838101E+03	1.479953E-01	1.299053E-03
5.848046E+03	1.496911E-01	1.319304E-03
5.857992E+03	1.513100E-01	1.338993E-03
5.867938E+03	1.527638E-01	1.357329E-03
5.877883E+03	1.539676E-01	1.373538E-03
5.887829E+03	1.548402E-01	1.386865E-03
5.897775E+03	1.552988E-01	1.396535E-03
5.907720E+03	1.552679E-01	1.401819E-03
5.917666E+03	1.546710E-01	1.401977E-03
5.927612E+03	1.534393E-01	1.396322E-03
5.937557E+03	1.515101E-01	1.384217E-03
5.947503E+03	1.488323E-01	1.365117E-03
5.957449E+03	1.453692E-01	1.338609E-03
5.967394E+03	1.411115E-01	1.304522E-03
5.977340E+03	1.360783E-01	1.262948E-03
5.987285E+03	1.303222E-01	1.214294E-03
5.997231E+03	1.239369E-01	1.159358E-03
6.007177E+03	1.170527E-01	1.099292E-03
6.017122E+03	1.098336E-01	1.035588E-03
6.027068E+03	1.024680E-01	9.699870E-04
6.037014E+03	9.514477E-02	9.042656E-04
6.046959E+03	8.805005E-02	8.402003E-04
6.056905E+03	8.134609E-02	7.793674E-04
6.066851E+03	7.517009E-02	7.231268E-04
6.076796E+03	6.962644E-02	6.725434E-04
6.086742E+03	6.478934E-02	6.284068E-04
6.096688E+03	6.070550E-02	5.912514E-04
6.106633E+03	5.740048E-02	5.614145E-04
6.116579E+03	5.488690E-02	5.391125E-04
6.126525E+03	5.316974E-02	5.244907E-04
6.136470E+03	5.225194E-02	5.176779E-04
6.146416E+03	5.213824E-02	5.188242E-04
6.156362E+03	5.283245E-02	5.280746E-04
6.166307E+03	5.433519E-02	5.455466E-04
6.176253E+03	5.664207E-02	5.713110E-04
6.186199E+03	5.974107E-02	6.053649E-04
6.196144E+03	6.360405E-02	6.475434E-04
6.206090E+03	6.817787E-02	6.974254E-04
6.216036E+03	7.337725E-02	7.542537E-04
6.225981E+03	7.907759E-02	8.168524E-04
6.235927E+03	8.511283E-02	8.835929E-04
6.245873E+03	9.128338E-02	9.524599E-04
6.255818E+03	9.736507E-02	1.021138E-03
6.265764E+03	1.031328E-01	1.087254E-03
6.275710E+03	1.083656E-01	1.148424E-03
6.285655E+03	1.128771E-01	1.202583E-03
6.295601E+03	1.165235E-01	1.248075E-03
6.305546E+03	1.192128E-01	1.283764E-03
6.315492E+03	1.209077E-01	1.309081E-03
6.325438E+03	1.216282E-01	1.324068E-03
6.335383E+03	1.214438E-01	1.329309E-03
6.345329E+03	1.204645E-01	1.325846E-03
6.355275E+03	1.188323E-01	1.315101E-03
6.365220E+03	1.167131E-01	1.298792E-03
6.375166E+03	1.142789E-01	1.278749E-03
6.385112E+03	1.117060E-01	1.256887E-03
6.395057E+03	1.091594E-01	1.235041E-03
6.405003E+03	1.067848E-01	1.214865E-03
6.414949E+03	1.047046E-01	1.197786E-03
6.424894E+03	1.030016E-01	1.184807E-03
6.434840E+03	1.017120E-01	1.176411E-03
6.444786E+03	1.008121E-01	1.172399E-03
6.454731E+03	1.002496E-01	1.172226E-03
6.464677E+03	9.995836E-02	1.175178E-03
6.474623E+03	9.986470E-02	1.180429E-03
6.484568E+03	9.989382E-02	1.187126E-03
6.494514E+03	9.997546E-02	1.194450E-03
6.504460E+03	1.000486E-01	1.201672E-03
6.514405E+03	1.000582E-01	1.208125E-03
6.524351E+03	9.996010E-02	1.213256E-03
6.534297E+03	9.972592E-02	1.216696E-03
6.544242E+03	9.933151E-02	1.218119E-03
6.554188E+03	9.876749E-02	1.217377E-03
6.564134E+03	9.803179E-02	1.214411E-03
6.574079E+03	9.712973E-02	1.209251E-03
6.584025E+03	9.607253E-02	1.202005E-03
6.593971E+03	9.487450E-02	1.192824E-03
6.603916E+03	9.355604E-02	1.181937E-03
6.613862E+03	9.213621E-02	1.169564E-03
6.623808E+03	9.063780E-02	1.155976E-03
6.633753E+03	8.908033E-02	1.141410E-03
6.643699E+03	8.748377E-02	1.126111E-03
6.653644E+03	8.586813E-02	1.110333E-03
6.663590E+03	8.425006E-02	1.094288E-03
6.673536E+03	8.264137E-02	1.078131E-03
6.683481E+03	8.105773E-02	1.062070E-03
6.693427E+03	7.950703E-02	1.046214E-03
6.703373E+03	7.800100E-02	1.030725E-03
6.713318E+03	7.654542E-02	1.015688E-03
6.723264E+03	7.514478E-02	1.001174E-03
6.733210E+03	7.380599E-02	9.872840E-04
6.743155E+03	7.252947E-02	9.740362E-04
6.753101E+03	7.131842E-02	9.614850E-04
6.763047E+03	7.017362E-02	9.496525E-04
6.772992E+03	6.909487E-02	9.385476E-04
6.782938E+03	6.807967E-02	9.281479E-04
6.792884E+03	6.712724E-02	9.184533E-04
6.802829E+03	6.623365E-02	9.094207E-04
6.812775E+03	6.539678E-02	9.010306E-04
6.822721E+03	6.461165E-02	8.932234E-04
6.832666E+03	6.387429E-02	8.859525E-04
6.842612E+03	6.318169E-02	8.791837E-04
6.852558E+03	6.252756E-02	8.728365E-04
6.862503E+03	6.191038E-02	8.668957E-04
6.872449E+03	6.132532E-02	8.612992E-04
6.882395E+03	6.076925E-02	8.560082E-04
6.892340E+03	6.023925E-02	8.509858E-04
6.902286E+03	5.973275E-02	8.461999E-04
6.912232E+03	5.924649E-02	8.416079E-04
6.922177E+03	5.877972E-02	8.372025E-04
6.932123E+03	5.833089E-02	8.329648E-04
6.942069E+03	5.789872E-02	8.288793E-04
6.952014E+03	5.747995E-02	8.249019E-04
6.961960E+03	5.707706E-02	8.210707E-04
6.971906E+03	5.668605E-02	8.173307E-04
6.981851E+03	5.630863E-02	8.137087E-04
6.991797E+03	5.594327E-02	8.101848E-04
7.001742E+03	5.558963E-02	8.067562E-04
7.011688E+03	5.524741E-02	8.034203E-04
7.021634E+03	5.491625E-02	8.001741E-04
7.031579E+03	5.459462E-02	7.969973E-04
7.041525E+03	5.428306E-02	7.938990E-04
7.051471E+03	5.398074E-02	7.908694E-04
7.061416E+03	5.368551E-02	7.878783E-04
7.071362E+03	5.339708E-02	7.849230E-04
7.081308E+03	5.311260E-02	7.819633E-04
7.091253E+03	5.282997E-02	7.789690E-04
7.101199E+03	5.254666E-02	7.759042E-04
7.111145E+03	5.226086E-02	7.727431E-04
7.121090E+03	5.196718E-02	7.694069E-04
7.131036E+03	5.166207E-02	7.658434E-04
7.140982E+03	5.134386E-02	7.620287E-04
7.150927E+03	5.100643E-02	7.578722E-04
7.160873E+03	5.064567E-02	7.533134E-04
7.170819E+03	5.025855E-02	7.483071E-04
7.180764E+03	4.983997E-02	7.427779E-04
7.190710E+03	4.938609E-02	7.366685E-04
7.200656E+03	4.889335E-02	7.299264E-04
7.210601E+03	4.835867E-02	7.225056E-04
7.220547E+03	4.778049E-02	7.143833E-04
7.230493E+03	4.715483E-02	7.055007E-04
7.240438E+03	4.648265E-02	6.958726E-04
7.250384E+03	4.576268E-02	6.854813E-04
7.260330E+03	4.499567E-02	6.743390E-04
7.270275E+03	4.418441E-02	6.624888E-04
7.280221E+03	4.333078E-02	6.499604E-04
7.290167E+03	4.243965E-02	6.368288E-04
7.300112E+03	4.151595E-02	6.231702E-04
7.310058E+03	4.056645E-02	6.090880E-04
7.320004E+03	3.959772E-02	5.946835E-04
7.329949E+03	3.861789E-02	5.800812E-04
7.339895E+03	3.763375E-02	5.653857E-04
7.349840E+03	3.665580E-02	5.507573E-04
7.359786E+03	3.569199E-02	5.363178E-04
7.369732E+03	3.474936E-02	5.221758E-04
7.379677E+03	3.383798E-02	5.084847E-04
7.389623E+03	3.296428E-02	4.953435E-04
7.399569E+03	3.213575E-02	4.828669E-04
7.409514E+03	3.135767E-02	4.711359E-04
7.419460E+03	3.063600E-02	4.602418E-04
7.429406E+03	2.997299E-02	4.502200E-04
7.439351E+03	2.937368E-02	4.411470E-04
7.449297E+03	2.883868E-02	4.330334E-04
7.459243E+03	2.837055E-02	4.259185E-04
7.469188E+03	2.796962E-02	4.198077E-04
7.479134E+03	2.763538E-02	4.146939E-04
7.489080E+03	2.736781E-02	4.105774E-04
7.499025E+03	2.716349E-02	4.074073E-04
7.508971E+03	2.702161E-02	4.051716E-04
7.518917E+03	2.693871E-02	4.038186E-04
7.528862E+03	2.691145E-02	4.032988E-04
7.538808E+03	2.693538E-02	4.035457E-04
7.548754E+03	2.700702E-02	4.045076E-04
7.558699E+03	2.712130E-02	4.061091E-04
7.568645E+03	2.727369E-02	4.082830E-04
7.578591E+03	2.746030E-02	4.109716E-04
7.588536E+03	2.767595E-02	4.140985E-04
7.598482E+03	2.791701E-02	4.176104E-04
7.608428E+03	2.817804E-02	4.214267E-04
7.618373E+03	2.845673E-02	4.255145E-04
7.628319E+03	2.874909E-02	4.298154E-04
7.638265E+03	2.905303E-02	4.342998E-04
7.648210E+03	2.936552E-02	4.389241E-04
7.658156E+03	2.968472E-02	4.436624E-04
7.668101E+03	3.000926E-02	4.484962E-04
7.678047E+03	3.033972E-02	4.534362E-04
7.687993E+03	3.067307E-02	4.584392E-04
7.697938E+03	3.101118E-02	4.635354E-04
7.707884E+03	3.135197E-02	4.686958E-04
7.717830E+03	3.169561E-02	4.739257E-04
