#wls	flux	fluxerr
1.591305E+03	5.941449E-03	7.118170E-04
1.631088E+03	5.294756E-03	6.286435E-04
1.670870E+03	4.700134E-03	5.529330E-04
1.710653E+03	4.158705E-03	4.846698E-04
1.750436E+03	3.670599E-03	4.237139E-04
1.790218E+03	3.236064E-03	3.699339E-04
1.830001E+03	2.852752E-03	3.228990E-04
1.869784E+03	2.519627E-03	2.823321E-04
1.909566E+03	2.233413E-03	2.477090E-04
1.949349E+03	1.991667E-03	2.186086E-04
1.989131E+03	1.792623E-03	1.946923E-04
2.028914E+03	1.634272E-03	1.756011E-04
2.068697E+03	1.515010E-03	1.610267E-04
2.108479E+03	1.433370E-03	1.506816E-04
2.148262E+03	1.386552E-03	1.441452E-04
2.188045E+03	1.372158E-03	1.410514E-04
2.227827E+03	1.389282E-03	1.411965E-04
2.267610E+03	1.439348E-03	1.446153E-04
2.307392E+03	1.524164E-03	1.513742E-04
2.347175E+03	1.646526E-03	1.616272E-04
2.386958E+03	1.810141E-03	1.756030E-04
2.426740E+03	2.017868E-03	1.934320E-04
2.466523E+03	2.272510E-03	2.152255E-04
2.506306E+03	2.575248E-03	2.409294E-04
2.546088E+03	2.925157E-03	2.702882E-04
2.585871E+03	3.318697E-03	3.028103E-04
2.625653E+03	3.749625E-03	3.377756E-04
2.665436E+03	4.208335E-03	3.741915E-04
2.705219E+03	4.681498E-03	4.107823E-04
2.745001E+03	5.155736E-03	4.463285E-04
2.784784E+03	5.617839E-03	4.796879E-04
2.824567E+03	6.056072E-03	5.099042E-04
2.864349E+03	6.461069E-03	5.362749E-04
2.904132E+03	6.826414E-03	5.583845E-04
2.943914E+03	7.151425E-03	5.763131E-04
2.983697E+03	7.437363E-03	5.903003E-04
2.993643E+03	7.503620E-03	5.932666E-04
3.003588E+03	7.568174E-03	5.960551E-04
3.013534E+03	7.630615E-03	5.986350E-04
3.023480E+03	7.691578E-03	6.010579E-04
3.033425E+03	7.751180E-03	6.033341E-04
3.043371E+03	7.809029E-03	6.054344E-04
3.053317E+03	7.866294E-03	6.074508E-04
3.063262E+03	7.922073E-03	6.093144E-04
3.073208E+03	7.977528E-03	6.111156E-04
3.083154E+03	8.031787E-03	6.127880E-04
3.093099E+03	8.086005E-03	6.144204E-04
3.103045E+03	8.140322E-03	6.160231E-04
3.112991E+03	8.194378E-03	6.175689E-04
3.122936E+03	8.248325E-03	6.190691E-04
3.132882E+03	8.302802E-03	6.205714E-04
3.142828E+03	8.357952E-03	6.220858E-04
3.152773E+03	8.413922E-03	6.236224E-04
3.162719E+03	8.470857E-03	6.251908E-04
3.172665E+03	8.528892E-03	6.268000E-04
3.182610E+03	8.588174E-03	6.284595E-04
3.192556E+03	8.649329E-03	6.302134E-04
3.202502E+03	8.712014E-03	6.320350E-04
3.212447E+03	8.777344E-03	6.340032E-04
3.222393E+03	8.844482E-03	6.360550E-04
3.232339E+03	8.914541E-03	6.382682E-04
3.242284E+03	8.986706E-03	6.405819E-04
3.252230E+03	9.062568E-03	6.431067E-04
3.262175E+03	9.141320E-03	6.457818E-04
3.272121E+03	9.223596E-03	6.486489E-04
3.282067E+03	9.309561E-03	6.517159E-04
3.292012E+03	9.399850E-03	6.550234E-04
3.301958E+03	9.494153E-03	6.585455E-04
3.311904E+03	9.593093E-03	6.623210E-04
3.321849E+03	9.697279E-03	6.663873E-04
3.331795E+03	9.806363E-03	6.707151E-04
3.341741E+03	9.920907E-03	6.753378E-04
3.351686E+03	1.004100E-02	6.802556E-04
3.361632E+03	1.016716E-02	6.854986E-04
3.371578E+03	1.029945E-02	6.910640E-04
3.381523E+03	1.043790E-02	6.969484E-04
3.391469E+03	1.058305E-02	7.031803E-04
3.401415E+03	1.073492E-02	7.097550E-04
3.411360E+03	1.089404E-02	7.167006E-04
3.421306E+03	1.106046E-02	7.240125E-04
3.431252E+03	1.123469E-02	7.317168E-04
3.441197E+03	1.141724E-02	7.398385E-04
3.451143E+03	1.160815E-02	7.483711E-04
3.461089E+03	1.180789E-02	7.573376E-04
3.471034E+03	1.201653E-02	7.667322E-04
3.480980E+03	1.223508E-02	7.766099E-04
3.490926E+03	1.246356E-02	7.869627E-04
3.500871E+03	1.270245E-02	7.978103E-04
3.510817E+03	1.295172E-02	8.091396E-04
3.520763E+03	1.321172E-02	8.209621E-04
3.530708E+03	1.348176E-02	8.332243E-04
3.540654E+03	1.376202E-02	8.459266E-04
3.550600E+03	1.405110E-02	8.589731E-04
3.560545E+03	1.434847E-02	8.723212E-04
3.570491E+03	1.465294E-02	8.858903E-04
3.580436E+03	1.496414E-02	8.996513E-04
3.590382E+03	1.527963E-02	9.134499E-04
3.600328E+03	1.559921E-02	9.272692E-04
3.610273E+03	1.592007E-02	9.409390E-04
3.620219E+03	1.624120E-02	9.543983E-04
3.630165E+03	1.656004E-02	9.674956E-04
3.640110E+03	1.687496E-02	9.801386E-04
3.650056E+03	1.718397E-02	9.922159E-04
3.660002E+03	1.748634E-02	1.003691E-03
3.669947E+03	1.777987E-02	1.014445E-03
3.679893E+03	1.806506E-02	1.024515E-03
3.689839E+03	1.834238E-02	1.033935E-03
3.699784E+03	1.861342E-02	1.042802E-03
3.709730E+03	1.888151E-02	1.051309E-03
3.719676E+03	1.915127E-02	1.059713E-03
3.729621E+03	1.942803E-02	1.068305E-03
3.739567E+03	1.971819E-02	1.077428E-03
3.749513E+03	2.002946E-02	1.087487E-03
3.759458E+03	2.037049E-02	1.098925E-03
3.769404E+03	2.074817E-02	1.112082E-03
3.779350E+03	2.117096E-02	1.127368E-03
3.789295E+03	2.164618E-02	1.145125E-03
3.799241E+03	2.217955E-02	1.165598E-03
3.809187E+03	2.277571E-02	1.188968E-03
3.819132E+03	2.343696E-02	1.215288E-03
3.829078E+03	2.416381E-02	1.244516E-03
3.839024E+03	2.495373E-02	1.276455E-03
3.848969E+03	2.580244E-02	1.310820E-03
3.858915E+03	2.670127E-02	1.347113E-03
3.868861E+03	2.764022E-02	1.384780E-03
3.878806E+03	2.860559E-02	1.423097E-03
3.888752E+03	2.958182E-02	1.461270E-03
3.898698E+03	3.055100E-02	1.498409E-03
3.908643E+03	3.149463E-02	1.533622E-03
3.918589E+03	3.239334E-02	1.566001E-03
3.928534E+03	3.322964E-02	1.594756E-03
3.938480E+03	3.398593E-02	1.619116E-03
3.948426E+03	3.464976E-02	1.638578E-03
3.958371E+03	3.520916E-02	1.652681E-03
3.968317E+03	3.565883E-02	1.661290E-03
3.978263E+03	3.599675E-02	1.664429E-03
3.988208E+03	3.622605E-02	1.662361E-03
3.998154E+03	3.635400E-02	1.655537E-03
4.008100E+03	3.639152E-02	1.644555E-03
4.018045E+03	3.635108E-02	1.630075E-03
4.027991E+03	3.624901E-02	1.612906E-03
4.037937E+03	3.610150E-02	1.593829E-03
4.047882E+03	3.592569E-02	1.573646E-03
4.057828E+03	3.573781E-02	1.553093E-03
4.067774E+03	3.555432E-02	1.532895E-03
4.077719E+03	3.538869E-02	1.513626E-03
4.087665E+03	3.525444E-02	1.495844E-03
4.097611E+03	3.516220E-02	1.479968E-03
4.107556E+03	3.512068E-02	1.466320E-03
4.117502E+03	3.513760E-02	1.455173E-03
4.127448E+03	3.521806E-02	1.446681E-03
4.137393E+03	3.536405E-02	1.440864E-03
4.147339E+03	3.557646E-02	1.437697E-03
4.157285E+03	3.585468E-02	1.437096E-03
4.167230E+03	3.619508E-02	1.438855E-03
4.177176E+03	3.659265E-02	1.442724E-03
4.187122E+03	3.704055E-02	1.448384E-03
4.197067E+03	3.752970E-02	1.455444E-03
4.207013E+03	3.805041E-02	1.463498E-03
4.216959E+03	3.859093E-02	1.472078E-03
4.226904E+03	3.913756E-02	1.480655E-03
4.236850E+03	3.967581E-02	1.488689E-03
4.246796E+03	4.019072E-02	1.495642E-03
4.256741E+03	4.066669E-02	1.500971E-03
4.266687E+03	4.108684E-02	1.504102E-03
4.276632E+03	4.143537E-02	1.504522E-03
4.286578E+03	4.169954E-02	1.501847E-03
4.296524E+03	4.186623E-02	1.495691E-03
4.306469E+03	4.192857E-02	1.485903E-03
4.316415E+03	4.188251E-02	1.472437E-03
4.326361E+03	4.173058E-02	1.455480E-03
4.336306E+03	4.148034E-02	1.435385E-03
4.346252E+03	4.114849E-02	1.412809E-03
4.356198E+03	4.075905E-02	1.388638E-03
4.366143E+03	4.034216E-02	1.363938E-03
4.376089E+03	3.992916E-02	1.339782E-03
4.386035E+03	3.955078E-02	1.317188E-03
4.395980E+03	3.923761E-02	1.297143E-03
4.405926E+03	3.902444E-02	1.280739E-03
4.415872E+03	3.894231E-02	1.268912E-03
4.425817E+03	3.901856E-02	1.262455E-03
4.435763E+03	3.927543E-02	1.261974E-03
4.445709E+03	3.973008E-02	1.267900E-03
4.455654E+03	4.039361E-02	1.280462E-03
4.465600E+03	4.127289E-02	1.299754E-03
4.475546E+03	4.236869E-02	1.325680E-03
4.485491E+03	4.367553E-02	1.357946E-03
4.495437E+03	4.518179E-02	1.396079E-03
4.505383E+03	4.686505E-02	1.439286E-03
4.515328E+03	4.869705E-02	1.486615E-03
4.525274E+03	5.063726E-02	1.536766E-03
4.535220E+03	5.263807E-02	1.588255E-03
4.545165E+03	5.464177E-02	1.639329E-03
4.555111E+03	5.658505E-02	1.688104E-03
4.565057E+03	5.840164E-02	1.732649E-03
4.575002E+03	6.002702E-02	1.771127E-03
4.584948E+03	6.140174E-02	1.801882E-03
4.594894E+03	6.247588E-02	1.823575E-03
4.604839E+03	6.321563E-02	1.835355E-03
4.614785E+03	6.360217E-02	1.836825E-03
4.624730E+03	6.363540E-02	1.828131E-03
4.634676E+03	6.333359E-02	1.809940E-03
4.644622E+03	6.273004E-02	1.783333E-03
4.654567E+03	6.187195E-02	1.749764E-03
4.664513E+03	6.081272E-02	1.710832E-03
4.674459E+03	5.961195E-02	1.668278E-03
4.684404E+03	5.832848E-02	1.623789E-03
4.694350E+03	5.701770E-02	1.578920E-03
4.704296E+03	5.573018E-02	1.535066E-03
4.714241E+03	5.450698E-02	1.493331E-03
4.724187E+03	5.338378E-02	1.454648E-03
4.734133E+03	5.238496E-02	1.419627E-03
4.744078E+03	5.152948E-02	1.388715E-03
4.754024E+03	5.082720E-02	1.362105E-03
4.763970E+03	5.028429E-02	1.339887E-03
4.773915E+03	4.989983E-02	1.321956E-03
4.783861E+03	4.966987E-02	1.308129E-03
4.793807E+03	4.958596E-02	1.298107E-03
4.803752E+03	4.963772E-02	1.291542E-03
4.813698E+03	4.981100E-02	1.287998E-03
4.823644E+03	5.009012E-02	1.287005E-03
4.833589E+03	5.045573E-02	1.288008E-03
4.843535E+03	5.088622E-02	1.290408E-03
4.853481E+03	5.135778E-02	1.293563E-03
4.863426E+03	5.184227E-02	1.296740E-03
4.873372E+03	5.231146E-02	1.299223E-03
4.883318E+03	5.273364E-02	1.300228E-03
4.893263E+03	5.307940E-02	1.299054E-03
4.903209E+03	5.332024E-02	1.295044E-03
4.913155E+03	5.343042E-02	1.287632E-03
4.923100E+03	5.339161E-02	1.276448E-03
4.933046E+03	5.319264E-02	1.261312E-03
4.942991E+03	5.282977E-02	1.242231E-03
4.952937E+03	5.230643E-02	1.219384E-03
4.962883E+03	5.163677E-02	1.193200E-03
4.972828E+03	5.083924E-02	1.164197E-03
4.982774E+03	4.993913E-02	1.133037E-03
4.992720E+03	4.896684E-02	1.100478E-03
5.002665E+03	4.795302E-02	1.067259E-03
5.012611E+03	4.693035E-02	1.034140E-03
5.022557E+03	4.593044E-02	1.001827E-03
5.032502E+03	4.498119E-02	9.709199E-04
5.042448E+03	4.410890E-02	9.419572E-04
5.052394E+03	4.333647E-02	9.153816E-04
5.062339E+03	4.268250E-02	8.915227E-04
5.072285E+03	4.216283E-02	8.706341E-04
5.082231E+03	4.179077E-02	8.529013E-04
5.092176E+03	4.157615E-02	8.384250E-04
5.102122E+03	4.152690E-02	8.272562E-04
5.112068E+03	4.164912E-02	8.194017E-04
5.122013E+03	4.194595E-02	8.148023E-04
5.131959E+03	4.241907E-02	8.133676E-04
5.141905E+03	4.306685E-02	8.149420E-04
5.151850E+03	4.388569E-02	8.193344E-04
5.161796E+03	4.486781E-02	8.262815E-04
5.171742E+03	4.600263E-02	8.354776E-04
5.181687E+03	4.727451E-02	8.465393E-04
5.191633E+03	4.866440E-02	8.590414E-04
5.201579E+03	5.014792E-02	8.724885E-04
5.211524E+03	5.169714E-02	8.863525E-04
5.221470E+03	5.328072E-02	9.000808E-04
5.231416E+03	5.486570E-02	9.131296E-04
5.241361E+03	5.641735E-02	9.249634E-04
5.251307E+03	5.790274E-02	9.351154E-04
5.261253E+03	5.929249E-02	9.432107E-04
5.271198E+03	6.056311E-02	9.489994E-04
5.281144E+03	6.169929E-02	9.523818E-04
5.291089E+03	6.269575E-02	9.534269E-04
5.301035E+03	6.355806E-02	9.523717E-04
5.310981E+03	6.430450E-02	9.496354E-04
5.320926E+03	6.496353E-02	9.457692E-04
5.330872E+03	6.557468E-02	9.414589E-04
5.340818E+03	6.618371E-02	9.374473E-04
5.350763E+03	6.684168E-02	9.345184E-04
5.360709E+03	6.760377E-02	9.334804E-04
5.370655E+03	6.852309E-02	9.350833E-04
5.380600E+03	6.965015E-02	9.400197E-04
5.390546E+03	7.103221E-02	9.489248E-04
5.400492E+03	7.270776E-02	9.623133E-04
5.410437E+03	7.470492E-02	9.805697E-04
5.420383E+03	7.703202E-02	1.003838E-03
5.430329E+03	7.964753E-02	1.031644E-03
5.440274E+03	8.246179E-02	1.062938E-03
5.450220E+03	8.536415E-02	1.096432E-03
5.460166E+03	8.823691E-02	1.130727E-03
5.470111E+03	9.095903E-02	1.164349E-03
5.480057E+03	9.341831E-02	1.195917E-03
5.490003E+03	9.551265E-02	1.224145E-03
5.499948E+03	9.715879E-02	1.247942E-03
5.509894E+03	9.829526E-02	1.266448E-03
5.519840E+03	9.888496E-02	1.279064E-03
5.529785E+03	9.891240E-02	1.285426E-03
5.539731E+03	9.838595E-02	1.285443E-03
5.549677E+03	9.733178E-02	1.279231E-03
5.559622E+03	9.579505E-02	1.267145E-03
5.569568E+03	9.383375E-02	1.249714E-03
5.579514E+03	9.151781E-02	1.227640E-03
5.589459E+03	8.892198E-02	1.201715E-03
5.599405E+03	8.612937E-02	1.172880E-03
5.609351E+03	8.322247E-02	1.142111E-03
5.619296E+03	8.028195E-02	1.110401E-03
5.629242E+03	7.738277E-02	1.078712E-03
5.639187E+03	7.459452E-02	1.047975E-03
5.649133E+03	7.197755E-02	1.019029E-03
5.659079E+03	6.957983E-02	9.925756E-04
5.669024E+03	6.744199E-02	9.692364E-04
5.678970E+03	6.559268E-02	9.494836E-04
5.688916E+03	6.405045E-02	9.336571E-04
5.698861E+03	6.282626E-02	9.219937E-04
5.708807E+03	6.192205E-02	9.146003E-04
5.718753E+03	6.133382E-02	9.114937E-04
5.728698E+03	6.105109E-02	9.125877E-04
5.738644E+03	6.105564E-02	9.176713E-04
5.748590E+03	6.132539E-02	9.264624E-04
5.758535E+03	6.183201E-02	9.385714E-04
5.768481E+03	6.254149E-02	9.535071E-04
5.778427E+03	6.341430E-02	9.706791E-04
5.788372E+03	6.440646E-02	9.894137E-04
5.798318E+03	6.546737E-02	1.008922E-03
5.808264E+03	6.654619E-02	1.028398E-03
5.818209E+03	6.758818E-02	1.046969E-03
5.828155E+03	6.853987E-02	1.063772E-03
5.838101E+03	6.935147E-02	1.078001E-03
5.848046E+03	6.997605E-02	1.088895E-03
5.857992E+03	7.037732E-02	1.095865E-03
5.867938E+03	7.052560E-02	1.098431E-03
5.877883E+03	7.040502E-02	1.096340E-03
5.887829E+03	7.000847E-02	1.089488E-03
5.897775E+03	6.934267E-02	1.077998E-03
5.907720E+03	6.842435E-02	1.062160E-03
5.917666E+03	6.727955E-02	1.042419E-03
5.927612E+03	6.594058E-02	1.019322E-03
5.937557E+03	6.444497E-02	9.935031E-04
5.947503E+03	6.283236E-02	9.656284E-04
5.957449E+03	6.114223E-02	9.363594E-04
5.967394E+03	5.940963E-02	9.062852E-04
5.977340E+03	5.766714E-02	8.759508E-04
5.987285E+03	5.594148E-02	8.458050E-04
5.997231E+03	5.425311E-02	8.161943E-04
6.007177E+03	5.261816E-02	7.873930E-04
6.017122E+03	5.104609E-02	7.595692E-04
6.027068E+03	4.954393E-02	7.328499E-04
6.037014E+03	4.811558E-02	7.073109E-04
6.046959E+03	4.676132E-02	6.829720E-04
6.056905E+03	4.548203E-02	6.598590E-04
6.066851E+03	4.427793E-02	6.379862E-04
6.076796E+03	4.315032E-02	6.173810E-04
6.086742E+03	4.210057E-02	5.980703E-04
6.096688E+03	4.113224E-02	5.801096E-04
6.106633E+03	4.024967E-02	5.635631E-04
6.116579E+03	3.945909E-02	5.485189E-04
6.126525E+03	3.876690E-02	5.350645E-04
6.136470E+03	3.817874E-02	5.232756E-04
6.146416E+03	3.770068E-02	5.132323E-04
6.156362E+03	3.733812E-02	5.050056E-04
6.166307E+03	3.709331E-02	4.986251E-04
6.176253E+03	3.696790E-02	4.941162E-04
6.186199E+03	3.696081E-02	4.914718E-04
6.196144E+03	3.706905E-02	4.906661E-04
6.206090E+03	3.728836E-02	4.916642E-04
6.216036E+03	3.761348E-02	4.944263E-04
6.225981E+03	3.803685E-02	4.988912E-04
6.235927E+03	3.855144E-02	5.050142E-04
6.245873E+03	3.914895E-02	5.127426E-04
6.255818E+03	3.982173E-02	5.220402E-04
6.265764E+03	4.056108E-02	5.328643E-04
6.275710E+03	4.135906E-02	5.451884E-04
6.285655E+03	4.220653E-02	5.589746E-04
6.295601E+03	4.309450E-02	5.741885E-04
6.305546E+03	4.401411E-02	5.907741E-04
6.315492E+03	4.495481E-02	6.086242E-04
6.325438E+03	4.590815E-02	6.276520E-04
6.335383E+03	4.686441E-02	6.477442E-04
6.345329E+03	4.781653E-02	6.688146E-04
6.355275E+03	4.875982E-02	6.908006E-04
6.365220E+03	4.969435E-02	7.136999E-04
6.375166E+03	5.062466E-02	7.375704E-04
6.385112E+03	5.156388E-02	7.625968E-04
6.395057E+03	5.252971E-02	7.890414E-04
6.405003E+03	5.355041E-02	8.173423E-04
6.414949E+03	5.465750E-02	8.480163E-04
6.424894E+03	5.588493E-02	8.816516E-04
6.434840E+03	5.723866E-02	9.184271E-04
6.444786E+03	5.868045E-02	9.578098E-04
6.454731E+03	6.015976E-02	9.990220E-04
6.464677E+03	6.162389E-02	1.041192E-03
6.474623E+03	6.301870E-02	1.083362E-03
6.484568E+03	6.429313E-02	1.124558E-03
6.494514E+03	6.540052E-02	1.163820E-03
6.504460E+03	6.630075E-02	1.200245E-03
6.514405E+03	6.696078E-02	1.233007E-03
6.524351E+03	6.735788E-02	1.261427E-03
6.534297E+03	6.747697E-02	1.284940E-03
6.544242E+03	6.731258E-02	1.303149E-03
6.554188E+03	6.686851E-02	1.315826E-03
6.564134E+03	6.615876E-02	1.322958E-03
6.574079E+03	6.520210E-02	1.324643E-03
6.584025E+03	6.402452E-02	1.321156E-03
6.593971E+03	6.265728E-02	1.312920E-03
6.603916E+03	6.113390E-02	1.300448E-03
6.613862E+03	5.948923E-02	1.284327E-03
6.623808E+03	5.775886E-02	1.265210E-03
6.633753E+03	5.597465E-02	1.243714E-03
6.643699E+03	5.416908E-02	1.220516E-03
6.653644E+03	5.236981E-02	1.196222E-03
6.663590E+03	5.060072E-02	1.171393E-03
6.673536E+03	4.888102E-02	1.146507E-03
6.683481E+03	4.722719E-02	1.122004E-03
6.693427E+03	4.565117E-02	1.098237E-03
6.703373E+03	4.416129E-02	1.075483E-03
6.713318E+03	4.276278E-02	1.053955E-03
6.723264E+03	4.145872E-02	1.033816E-03
6.733210E+03	4.024829E-02	1.015135E-03
6.743155E+03	3.913111E-02	9.979908E-04
6.753101E+03	3.810325E-02	9.823672E-04
6.763047E+03	3.716189E-02	9.682726E-04
6.772992E+03	3.630236E-02	9.556620E-04
6.782938E+03	3.551852E-02	9.444448E-04
6.792884E+03	3.480593E-02	9.345679E-04
6.802829E+03	3.415847E-02	9.259274E-04
6.812775E+03	3.357100E-02	9.184376E-04
6.822721E+03	3.303748E-02	9.119821E-04
6.832666E+03	3.255250E-02	9.064545E-04
6.842612E+03	3.211089E-02	9.017492E-04
6.852558E+03	3.170818E-02	8.977744E-04
6.862503E+03	3.133933E-02	8.944166E-04
6.872449E+03	3.100009E-02	8.915797E-04
6.882395E+03	3.068660E-02	8.891746E-04
6.892340E+03	3.039582E-02	8.871326E-04
6.902286E+03	3.012385E-02	8.853555E-04
6.912232E+03	2.986899E-02	8.838076E-04
6.922177E+03	2.962869E-02	8.824252E-04
6.932123E+03	2.940133E-02	8.811710E-04
6.942069E+03	2.918623E-02	8.800337E-04
6.952014E+03	2.898186E-02	8.789765E-04
6.961960E+03	2.878851E-02	8.780156E-04
6.971906E+03	2.860644E-02	8.771672E-04
6.981851E+03	2.843633E-02	8.764596E-04
6.991797E+03	2.827917E-02	8.759313E-04
7.001742E+03	2.813579E-02	8.756160E-04
7.011688E+03	2.800848E-02	8.755927E-04
7.021634E+03	2.789789E-02	8.758909E-04
7.031579E+03	2.780601E-02	8.765810E-04
7.041525E+03	2.773389E-02	8.777043E-04
7.051471E+03	2.768329E-02	8.793252E-04
7.061416E+03	2.765496E-02	8.814756E-04
7.071362E+03	2.765022E-02	8.842053E-04
7.081308E+03	2.766971E-02	8.875421E-04
7.091253E+03	2.771286E-02	8.914742E-04
7.101199E+03	2.778091E-02	8.960473E-04
7.111145E+03	2.787213E-02	9.012106E-04
7.121090E+03	2.798657E-02	9.069699E-04
7.131036E+03	2.812218E-02	9.132617E-04
7.140982E+03	2.827830E-02	9.200668E-04
7.150927E+03	2.845268E-02	9.273128E-04
7.160873E+03	2.864323E-02	9.349324E-04
7.170819E+03	2.884817E-02	9.428662E-04
7.180764E+03	2.906421E-02	9.510061E-04
7.190710E+03	2.928943E-02	9.592873E-04
7.200656E+03	2.952100E-02	9.676142E-04
7.210601E+03	2.975759E-02	9.759409E-04
7.220547E+03	2.999606E-02	9.841618E-04
7.230493E+03	3.023534E-02	9.922387E-04
7.240438E+03	3.047201E-02	1.000057E-03
7.250384E+03	3.070570E-02	1.007601E-03
7.260330E+03	3.093361E-02	1.014777E-03
7.270275E+03	3.115445E-02	1.021541E-03
7.280221E+03	3.136595E-02	1.027818E-03
7.290167E+03	3.156682E-02	1.033563E-03
7.300112E+03	3.175469E-02	1.038700E-03
7.310058E+03	3.192828E-02	1.043187E-03
7.320004E+03	3.208576E-02	1.046966E-03
7.329949E+03	3.222435E-02	1.049949E-03
7.339895E+03	3.234410E-02	1.052141E-03
7.349840E+03	3.244206E-02	1.053451E-03
7.359786E+03	3.251887E-02	1.053904E-03
7.369732E+03	3.257286E-02	1.053454E-03
7.379677E+03	3.260455E-02	1.052125E-03
7.389623E+03	3.261392E-02	1.049925E-03
7.399569E+03	3.260330E-02	1.046937E-03
7.409514E+03	3.257346E-02	1.043196E-03
7.419460E+03	3.252696E-02	1.038794E-03
7.429406E+03	3.246757E-02	1.033861E-03
7.439351E+03	3.239852E-02	1.028508E-03
7.449297E+03	3.232461E-02	1.022897E-03
7.459243E+03	3.224926E-02	1.017143E-03
7.469188E+03	3.217828E-02	1.011437E-03
7.479134E+03	3.211520E-02	1.005894E-03
7.489080E+03	3.206501E-02	1.000675E-03
7.499025E+03	3.203170E-02	9.959068E-04
7.508971E+03	3.201870E-02	9.916964E-04
7.518917E+03	3.202869E-02	9.881276E-04
7.528862E+03	3.206295E-02	9.852390E-04
7.538808E+03	3.212298E-02	9.830757E-04
7.548754E+03	3.220878E-02	9.816357E-04
7.558699E+03	3.231938E-02	9.808890E-04
7.568645E+03	3.245293E-02	9.807793E-04
7.578591E+03	3.260618E-02	9.812095E-04
7.588536E+03	3.277632E-02	9.820975E-04
7.598482E+03	3.295932E-02	9.833278E-04
7.608428E+03	3.315014E-02	9.847565E-04
7.618373E+03	3.334515E-02	9.862859E-04
7.628319E+03	3.353819E-02	9.877453E-04
7.638265E+03	3.372484E-02	9.890195E-04
7.648210E+03	3.389956E-02	9.899637E-04
7.658156E+03	3.405890E-02	9.904968E-04
7.668101E+03	3.419727E-02	9.904780E-04
7.678047E+03	3.431139E-02	9.898362E-04
7.687993E+03	3.439787E-02	9.884988E-04
7.697938E+03	3.445327E-02	9.863937E-04
7.707884E+03	3.447604E-02	9.835037E-04
7.717830E+03	3.446467E-02	9.798127E-04
