#wls	flux	fluxerr
1.591305E+03	5.883031E-03	5.343798E-04
1.631088E+03	5.247595E-03	4.704215E-04
1.670870E+03	4.659222E-03	4.120912E-04
1.710653E+03	4.121223E-03	3.595298E-04
1.750436E+03	3.633071E-03	3.125280E-04
1.790218E+03	3.196313E-03	2.710504E-04
1.830001E+03	2.809218E-03	2.347761E-04
1.869784E+03	2.470798E-03	2.034505E-04
1.909566E+03	2.178969E-03	1.767320E-04
1.949349E+03	1.931418E-03	1.542685E-04
1.989131E+03	1.725955E-03	1.357273E-04
2.028914E+03	1.561060E-03	1.208373E-04
2.068697E+03	1.435799E-03	1.093788E-04
2.108479E+03	1.348865E-03	1.011089E-04
2.148262E+03	1.297505E-03	9.568507E-05
2.188045E+03	1.280203E-03	9.286941E-05
2.227827E+03	1.297453E-03	9.257642E-05
2.267610E+03	1.351655E-03	9.485473E-05
2.307392E+03	1.446535E-03	9.983683E-05
2.347175E+03	1.586966E-03	1.077195E-04
2.386958E+03	1.778902E-03	1.187515E-04
2.426740E+03	2.028894E-03	1.331965E-04
2.466523E+03	2.342679E-03	1.512416E-04
2.506306E+03	2.724651E-03	1.729671E-04
2.546088E+03	3.175912E-03	1.982329E-04
2.585871E+03	3.692643E-03	2.265949E-04
2.625653E+03	4.264051E-03	2.572071E-04
2.665436E+03	4.876355E-03	2.890924E-04
2.705219E+03	5.512432E-03	3.211369E-04
2.745001E+03	6.153762E-03	3.522171E-04
2.784784E+03	6.780494E-03	3.812095E-04
2.824567E+03	7.376243E-03	4.072621E-04
2.864349E+03	7.926219E-03	4.296751E-04
2.904132E+03	8.421338E-03	4.481109E-04
2.943914E+03	8.860028E-03	4.626605E-04
2.983697E+03	9.244324E-03	4.736062E-04
2.993643E+03	9.333328E-03	4.758725E-04
3.003588E+03	9.419359E-03	4.779480E-04
3.013534E+03	9.503122E-03	4.798706E-04
3.023480E+03	9.584776E-03	4.816502E-04
3.033425E+03	9.664482E-03	4.832967E-04
3.043371E+03	9.741879E-03	4.847937E-04
3.053317E+03	9.818248E-03	4.862065E-04
3.063262E+03	9.893776E-03	4.875453E-04
3.073208E+03	9.967570E-03	4.887674E-04
3.083154E+03	1.004093E-02	4.899376E-04
3.093099E+03	1.011406E-02	4.910661E-04
3.103045E+03	1.018717E-02	4.921637E-04
3.112991E+03	1.026046E-02	4.932408E-04
3.122936E+03	1.033416E-02	4.943075E-04
3.132882E+03	1.040848E-02	4.953738E-04
3.142828E+03	1.048415E-02	4.964739E-04
3.152773E+03	1.056140E-02	4.976166E-04
3.162719E+03	1.063990E-02	4.987859E-04
3.172665E+03	1.072091E-02	5.000389E-04
3.182610E+03	1.080410E-02	5.013588E-04
3.192556E+03	1.088968E-02	5.027529E-04
3.202502E+03	1.097835E-02	5.042520E-04
3.212447E+03	1.107082E-02	5.058855E-04
3.222393E+03	1.116623E-02	5.076121E-04
3.232339E+03	1.126579E-02	5.094837E-04
3.242284E+03	1.136916E-02	5.114820E-04
3.252230E+03	1.147750E-02	5.136558E-04
3.262175E+03	1.159045E-02	5.159862E-04
3.272121E+03	1.170816E-02	5.184758E-04
3.282067E+03	1.183125E-02	5.211483E-04
3.292012E+03	1.195985E-02	5.240053E-04
3.301958E+03	1.209453E-02	5.270682E-04
3.311904E+03	1.223490E-02	5.303150E-04
3.321849E+03	1.238201E-02	5.337868E-04
3.331795E+03	1.253541E-02	5.374600E-04
3.341741E+03	1.269563E-02	5.413520E-04
3.351686E+03	1.286219E-02	5.454379E-04
3.361632E+03	1.303656E-02	5.497750E-04
3.371578E+03	1.321776E-02	5.543161E-04
3.381523E+03	1.340623E-02	5.590755E-04
3.391469E+03	1.360244E-02	5.640667E-04
3.401415E+03	1.380633E-02	5.692819E-04
3.411360E+03	1.401784E-02	5.747130E-04
3.421306E+03	1.423737E-02	5.803715E-04
3.431252E+03	1.446484E-02	5.862477E-04
3.441197E+03	1.470061E-02	5.923506E-04
3.451143E+03	1.494354E-02	5.986284E-04
3.461089E+03	1.519486E-02	6.051261E-04
3.471034E+03	1.545411E-02	6.118184E-04
3.480980E+03	1.572129E-02	6.187001E-04
3.490926E+03	1.599684E-02	6.257827E-04
3.500871E+03	1.628017E-02	6.330377E-04
3.510817E+03	1.657162E-02	6.404730E-04
3.520763E+03	1.687053E-02	6.480570E-04
3.530708E+03	1.717668E-02	6.557765E-04
3.540654E+03	1.748882E-02	6.635787E-04
3.550600E+03	1.780712E-02	6.714653E-04
3.560545E+03	1.813073E-02	6.793987E-04
3.570491E+03	1.845828E-02	6.873227E-04
3.580436E+03	1.878932E-02	6.952172E-04
3.590382E+03	1.912291E-02	7.030439E-04
3.600328E+03	1.945861E-02	7.107832E-04
3.610273E+03	1.979501E-02	7.183820E-04
3.620219E+03	2.013179E-02	7.258263E-04
3.630165E+03	2.046827E-02	7.330902E-04
3.640110E+03	2.080443E-02	7.401724E-04
3.650056E+03	2.113960E-02	7.470472E-04
3.660002E+03	2.147533E-02	7.537690E-04
3.669947E+03	2.181121E-02	7.603218E-04
3.679893E+03	2.214877E-02	7.667567E-04
3.689839E+03	2.249055E-02	7.731585E-04
3.699784E+03	2.283819E-02	7.795792E-04
3.709730E+03	2.319490E-02	7.861216E-04
3.719676E+03	2.356489E-02	7.929191E-04
3.729621E+03	2.395136E-02	8.000683E-04
3.739567E+03	2.435884E-02	8.077058E-04
3.749513E+03	2.479208E-02	8.159709E-04
3.759458E+03	2.525585E-02	8.249990E-04
3.769404E+03	2.575428E-02	8.349001E-04
3.779350E+03	2.629158E-02	8.457827E-04
3.789295E+03	2.687088E-02	8.577163E-04
3.799241E+03	2.749544E-02	8.707713E-04
3.809187E+03	2.816650E-02	8.849511E-04
3.819132E+03	2.888450E-02	9.002330E-04
3.829078E+03	2.964741E-02	9.165178E-04
3.839024E+03	3.045369E-02	9.337225E-04
3.848969E+03	3.129856E-02	9.516680E-04
3.858915E+03	3.217612E-02	9.701454E-04
3.868861E+03	3.307771E-02	9.888701E-04
3.878806E+03	3.399536E-02	1.007587E-03
3.888752E+03	3.491771E-02	1.025949E-03
3.898698E+03	3.583412E-02	1.043644E-03
3.908643E+03	3.673235E-02	1.060321E-03
3.918589E+03	3.760012E-02	1.075645E-03
3.928534E+03	3.842743E-02	1.089358E-03
3.938480E+03	3.920239E-02	1.101157E-03
3.948426E+03	3.991758E-02	1.110881E-03
3.958371E+03	4.056581E-02	1.118379E-03
3.968317E+03	4.114214E-02	1.123573E-03
3.978263E+03	4.164539E-02	1.126489E-03
3.988208E+03	4.207510E-02	1.127177E-03
3.998154E+03	4.243574E-02	1.125818E-03
4.008100E+03	4.273165E-02	1.122584E-03
4.018045E+03	4.297037E-02	1.117728E-03
4.027991E+03	4.316163E-02	1.111550E-03
4.037937E+03	4.331450E-02	1.104324E-03
4.047882E+03	4.344059E-02	1.096381E-03
4.057828E+03	4.355058E-02	1.088015E-03
4.067774E+03	4.365562E-02	1.079521E-03
4.077719E+03	4.376639E-02	1.071172E-03
4.087665E+03	4.389275E-02	1.063211E-03
4.097611E+03	4.404236E-02	1.055819E-03
4.107556E+03	4.422397E-02	1.049196E-03
4.117502E+03	4.444262E-02	1.043447E-03
4.127448E+03	4.470356E-02	1.038677E-03
4.137393E+03	4.500874E-02	1.034913E-03
4.147339E+03	4.536020E-02	1.032183E-03
4.157285E+03	4.575778E-02	1.030464E-03
4.167230E+03	4.619908E-02	1.029685E-03
4.177176E+03	4.668012E-02	1.029747E-03
4.187122E+03	4.719709E-02	1.030555E-03
4.197067E+03	4.774182E-02	1.031931E-03
4.207013E+03	4.830768E-02	1.033734E-03
4.216959E+03	4.888448E-02	1.035758E-03
4.226904E+03	4.946278E-02	1.037822E-03
4.236850E+03	5.003112E-02	1.039712E-03
4.246796E+03	5.057872E-02	1.041237E-03
4.256741E+03	5.109334E-02	1.042187E-03
4.266687E+03	5.156290E-02	1.042364E-03
4.276632E+03	5.197826E-02	1.041635E-03
4.286578E+03	5.232753E-02	1.039820E-03
4.296524E+03	5.260322E-02	1.036831E-03
4.306469E+03	5.279828E-02	1.032589E-03
4.316415E+03	5.290825E-02	1.027068E-03
4.326361E+03	5.293085E-02	1.020281E-03
4.336306E+03	5.286469E-02	1.012257E-03
4.346252E+03	5.271837E-02	1.003209E-03
4.356198E+03	5.251704E-02	9.936518E-04
4.366143E+03	5.229089E-02	9.841834E-04
4.376089E+03	5.206930E-02	9.753690E-04
4.386035E+03	5.188128E-02	9.677560E-04
4.395980E+03	5.175316E-02	9.618317E-04
4.405926E+03	5.171111E-02	9.580601E-04
4.415872E+03	5.177631E-02	9.567985E-04
4.425817E+03	5.196841E-02	9.583768E-04
4.435763E+03	5.230167E-02	9.630277E-04
4.445709E+03	5.278734E-02	9.709344E-04
4.455654E+03	5.343171E-02	9.821937E-04
4.465600E+03	5.423696E-02	9.968333E-04
4.475546E+03	5.519848E-02	1.014762E-03
4.485491E+03	5.630888E-02	1.035842E-03
4.495437E+03	5.755356E-02	1.059806E-03
4.505383E+03	5.891237E-02	1.086289E-03
4.515328E+03	6.036106E-02	1.114847E-03
4.525274E+03	6.186901E-02	1.144919E-03
4.535220E+03	6.340114E-02	1.175854E-03
4.545165E+03	6.492028E-02	1.206959E-03
4.555111E+03	6.638464E-02	1.237440E-03
4.565057E+03	6.775541E-02	1.266554E-03
4.575002E+03	6.899224E-02	1.293513E-03
4.584948E+03	7.006060E-02	1.317627E-03
4.594894E+03	7.093116E-02	1.338293E-03
4.604839E+03	7.158265E-02	1.355049E-03
4.614785E+03	7.200065E-02	1.367558E-03
4.624730E+03	7.218217E-02	1.375691E-03
4.634676E+03	7.213290E-02	1.379488E-03
4.644622E+03	7.186662E-02	1.379141E-03
4.654567E+03	7.140533E-02	1.375008E-03
4.664513E+03	7.077689E-02	1.367567E-03
4.674459E+03	7.001313E-02	1.357381E-03
4.684404E+03	6.914787E-02	1.345062E-03
4.694350E+03	6.821523E-02	1.331241E-03
4.704296E+03	6.724851E-02	1.316543E-03
4.714241E+03	6.627834E-02	1.301549E-03
4.724187E+03	6.533300E-02	1.286807E-03
4.734133E+03	6.443575E-02	1.272772E-03
4.744078E+03	6.360527E-02	1.259813E-03
4.754024E+03	6.285706E-02	1.248244E-03
4.763970E+03	6.220075E-02	1.238263E-03
4.773915E+03	6.164246E-02	1.230001E-03
4.783861E+03	6.118313E-02	1.223485E-03
4.793807E+03	6.082166E-02	1.218701E-03
4.803752E+03	6.055310E-02	1.215558E-03
4.813698E+03	6.036915E-02	1.213893E-03
4.823644E+03	6.025968E-02	1.213508E-03
4.833589E+03	6.021186E-02	1.214144E-03
4.843535E+03	6.021176E-02	1.215522E-03
4.853481E+03	6.024288E-02	1.217305E-03
4.863426E+03	6.028970E-02	1.219178E-03
4.873372E+03	6.033456E-02	1.220781E-03
4.883318E+03	6.036077E-02	1.221771E-03
4.893263E+03	6.035321E-02	1.221840E-03
4.903209E+03	6.029672E-02	1.220679E-03
4.913155E+03	6.018160E-02	1.218091E-03
4.923100E+03	5.999753E-02	1.213870E-03
4.933046E+03	5.974140E-02	1.207956E-03
4.942991E+03	5.941029E-02	1.200297E-03
4.952937E+03	5.900825E-02	1.190983E-03
4.962883E+03	5.854194E-02	1.180160E-03
4.972828E+03	5.802093E-02	1.168033E-03
4.982774E+03	5.745839E-02	1.154880E-03
4.992720E+03	5.686985E-02	1.141027E-03
5.002665E+03	5.627307E-02	1.126842E-03
5.012611E+03	5.568563E-02	1.112689E-03
5.022557E+03	5.512589E-02	1.098944E-03
5.032502E+03	5.461245E-02	1.085985E-03
5.042448E+03	5.416191E-02	1.074145E-03
5.052394E+03	5.379013E-02	1.063740E-03
5.062339E+03	5.351141E-02	1.055047E-03
5.072285E+03	5.333826E-02	1.048307E-03
5.082231E+03	5.328126E-02	1.043717E-03
5.092176E+03	5.334949E-02	1.041441E-03
5.102122E+03	5.354830E-02	1.041567E-03
5.112068E+03	5.388248E-02	1.044168E-03
5.122013E+03	5.435450E-02	1.049273E-03
5.131959E+03	5.496281E-02	1.056828E-03
5.141905E+03	5.570495E-02	1.066765E-03
5.151850E+03	5.657468E-02	1.078944E-03
5.161796E+03	5.756404E-02	1.093195E-03
5.171742E+03	5.866171E-02	1.109286E-03
5.181687E+03	5.985287E-02	1.126927E-03
5.191633E+03	6.112119E-02	1.145803E-03
5.201579E+03	6.244668E-02	1.165542E-03
5.211524E+03	6.380871E-02	1.185765E-03
5.221470E+03	6.518324E-02	1.206042E-03
5.231416E+03	6.654793E-02	1.225984E-03
5.241361E+03	6.788086E-02	1.245220E-03
5.251307E+03	6.915984E-02	1.263382E-03
5.261253E+03	7.036761E-02	1.280201E-03
5.271198E+03	7.148942E-02	1.295463E-03
5.281144E+03	7.251608E-02	1.309056E-03
5.291089E+03	7.344480E-02	1.320990E-03
5.301035E+03	7.427715E-02	1.331351E-03
5.310981E+03	7.502159E-02	1.340350E-03
5.320926E+03	7.569114E-02	1.348276E-03
5.330872E+03	7.630526E-02	1.355528E-03
5.340818E+03	7.688574E-02	1.362544E-03
5.350763E+03	7.745838E-02	1.369826E-03
5.360709E+03	7.804804E-02	1.377860E-03
5.370655E+03	7.868176E-02	1.387164E-03
5.380600E+03	7.938417E-02	1.398216E-03
5.390546E+03	8.017644E-02	1.411435E-03
5.400492E+03	8.107342E-02	1.427129E-03
5.410437E+03	8.208322E-02	1.445495E-03
5.420383E+03	8.320885E-02	1.466645E-03
5.430329E+03	8.443396E-02	1.490355E-03
5.440274E+03	8.572755E-02	1.516119E-03
5.450220E+03	8.704667E-02	1.543198E-03
5.460166E+03	8.834103E-02	1.570715E-03
5.470111E+03	8.955809E-02	1.597734E-03
5.480057E+03	9.064696E-02	1.623334E-03
5.490003E+03	9.155875E-02	1.646608E-03
5.499948E+03	9.225345E-02	1.666783E-03
5.509894E+03	9.269590E-02	1.683152E-03
5.519840E+03	9.286374E-02	1.695216E-03
5.529785E+03	9.274429E-02	1.702636E-03
5.539731E+03	9.233606E-02	1.705261E-03
5.549677E+03	9.164815E-02	1.703127E-03
5.559622E+03	9.070027E-02	1.696463E-03
5.569568E+03	8.951879E-02	1.685627E-03
5.579514E+03	8.813801E-02	1.671134E-03
5.589459E+03	8.659911E-02	1.653645E-03
5.599405E+03	8.494289E-02	1.633834E-03
5.609351E+03	8.321535E-02	1.612498E-03
5.619296E+03	8.145885E-02	1.590388E-03
5.629242E+03	7.971761E-02	1.568321E-03
5.639187E+03	7.803104E-02	1.547046E-03
5.649133E+03	7.643405E-02	1.527250E-03
5.659079E+03	7.495853E-02	1.509585E-03
5.669024E+03	7.362977E-02	1.494593E-03
5.678970E+03	7.247001E-02	1.482774E-03
5.688916E+03	7.149319E-02	1.474475E-03
5.698861E+03	7.071084E-02	1.470003E-03
5.708807E+03	7.012802E-02	1.469545E-03
5.718753E+03	6.974308E-02	1.473149E-03
5.728698E+03	6.955273E-02	1.480831E-03
5.738644E+03	6.954751E-02	1.492472E-03
5.748590E+03	6.971342E-02	1.507854E-03
5.758535E+03	7.003231E-02	1.526657E-03
5.768481E+03	7.048131E-02	1.548448E-03
5.778427E+03	7.103582E-02	1.572739E-03
5.788372E+03	7.166524E-02	1.598893E-03
5.798318E+03	7.233929E-02	1.626261E-03
5.808264E+03	7.302351E-02	1.654077E-03
5.818209E+03	7.368425E-02	1.681571E-03
5.828155E+03	7.428645E-02	1.707919E-03
5.838101E+03	7.479825E-02	1.732346E-03
5.848046E+03	7.518900E-02	1.754088E-03
5.857992E+03	7.543357E-02	1.772486E-03
5.867938E+03	7.551128E-02	1.786974E-03
5.877883E+03	7.540650E-02	1.797092E-03
5.887829E+03	7.511159E-02	1.802563E-03
5.897775E+03	7.462572E-02	1.803271E-03
5.907720E+03	7.395186E-02	1.799193E-03
5.917666E+03	7.310124E-02	1.790511E-03
5.927612E+03	7.209020E-02	1.777544E-03
5.937557E+03	7.093640E-02	1.760652E-03
5.947503E+03	6.966341E-02	1.740358E-03
5.957449E+03	6.829320E-02	1.717159E-03
5.967394E+03	6.685116E-02	1.691657E-03
5.977340E+03	6.535974E-02	1.664392E-03
5.987285E+03	6.384009E-02	1.635887E-03
5.997231E+03	6.231284E-02	1.606667E-03
6.007177E+03	6.079635E-02	1.577208E-03
6.017122E+03	5.930386E-02	1.547867E-03
6.027068E+03	5.784974E-02	1.519038E-03
6.037014E+03	5.644423E-02	1.491014E-03
6.046959E+03	5.509640E-02	1.464064E-03
6.056905E+03	5.381313E-02	1.438405E-03
6.066851E+03	5.260132E-02	1.414256E-03
6.076796E+03	5.146506E-02	1.391767E-03
6.086742E+03	5.040893E-02	1.371101E-03
6.096688E+03	4.943739E-02	1.352422E-03
6.106633E+03	4.855218E-02	1.335822E-03
6.116579E+03	4.775780E-02	1.321470E-03
6.126525E+03	4.705544E-02	1.309445E-03
6.136470E+03	4.644676E-02	1.299841E-03
6.146416E+03	4.593371E-02	1.292760E-03
6.156362E+03	4.551632E-02	1.288253E-03
6.166307E+03	4.519370E-02	1.286343E-03
6.176253E+03	4.496399E-02	1.287027E-03
6.186199E+03	4.482481E-02	1.290284E-03
6.196144E+03	4.477279E-02	1.296066E-03
6.206090E+03	4.480258E-02	1.304264E-03
6.216036E+03	4.491004E-02	1.314800E-03
6.225981E+03	4.508717E-02	1.327485E-03
6.235927E+03	4.532850E-02	1.342194E-03
6.245873E+03	4.562654E-02	1.358745E-03
6.255818E+03	4.597299E-02	1.376923E-03
6.265764E+03	4.636051E-02	1.396537E-03
6.275710E+03	4.678076E-02	1.417364E-03
6.285655E+03	4.722736E-02	1.439225E-03
6.295601E+03	4.769224E-02	1.461884E-03
6.305546E+03	4.816981E-02	1.485175E-03
6.315492E+03	4.865499E-02	1.508945E-03
6.325438E+03	4.914411E-02	1.533080E-03
6.335383E+03	4.963461E-02	1.557497E-03
6.345329E+03	5.012651E-02	1.582194E-03
6.355275E+03	5.062201E-02	1.607238E-03
6.365220E+03	5.112502E-02	1.632751E-03
6.375166E+03	5.164280E-02	1.658966E-03
6.385112E+03	5.218181E-02	1.686097E-03
6.395057E+03	5.275254E-02	1.714490E-03
6.405003E+03	5.336184E-02	1.744383E-03
6.414949E+03	5.401687E-02	1.776028E-03
6.424894E+03	5.471827E-02	1.809467E-03
6.434840E+03	5.546212E-02	1.844590E-03
6.444786E+03	5.623579E-02	1.880995E-03
6.454731E+03	5.702083E-02	1.918070E-03
6.464677E+03	5.779416E-02	1.955037E-03
6.474623E+03	5.853073E-02	1.991030E-03
6.484568E+03	5.920312E-02	2.025083E-03
6.494514E+03	5.978764E-02	2.056339E-03
6.504460E+03	6.025880E-02	2.083860E-03
6.514405E+03	6.059751E-02	2.106913E-03
6.524351E+03	6.078704E-02	2.124832E-03
6.534297E+03	6.081535E-02	2.137105E-03
6.544242E+03	6.067611E-02	2.143412E-03
6.554188E+03	6.036718E-02	2.143582E-03
6.564134E+03	5.989138E-02	2.137616E-03
6.574079E+03	5.925664E-02	2.125704E-03
6.584025E+03	5.847420E-02	2.108164E-03
6.593971E+03	5.755833E-02	2.085431E-03
6.603916E+03	5.652665E-02	2.058074E-03
6.613862E+03	5.539687E-02	2.026680E-03
6.623808E+03	5.418908E-02	1.991937E-03
6.633753E+03	5.292275E-02	1.954525E-03
6.643699E+03	5.161756E-02	1.915147E-03
6.653644E+03	5.028997E-02	1.874400E-03
6.663590E+03	4.895785E-02	1.832945E-03
6.673536E+03	4.763584E-02	1.791336E-03
6.683481E+03	4.633599E-02	1.750036E-03
6.693427E+03	4.506968E-02	1.709494E-03
6.703373E+03	4.384560E-02	1.670061E-03
6.713318E+03	4.267055E-02	1.632024E-03
6.723264E+03	4.154895E-02	1.595581E-03
6.733210E+03	4.048543E-02	1.560940E-03
6.743155E+03	3.948081E-02	1.528165E-03
6.753101E+03	3.853705E-02	1.497363E-03
6.763047E+03	3.765280E-02	1.468514E-03
6.772992E+03	3.682809E-02	1.441651E-03
6.782938E+03	3.606064E-02	1.416714E-03
6.792884E+03	3.534821E-02	1.393642E-03
6.802829E+03	3.468816E-02	1.372358E-03
6.812775E+03	3.407808E-02	1.352793E-03
6.822721E+03	3.351390E-02	1.334807E-03
6.832666E+03	3.299344E-02	1.318335E-03
6.842612E+03	3.251305E-02	1.303251E-03
6.852558E+03	3.206960E-02	1.289446E-03
6.862503E+03	3.166010E-02	1.276818E-03
6.872449E+03	3.128216E-02	1.265283E-03
6.882395E+03	3.093214E-02	1.254709E-03
6.892340E+03	3.060855E-02	1.245046E-03
6.902286E+03	3.030869E-02	1.236195E-03
6.912232E+03	3.003014E-02	1.228068E-03
6.922177E+03	2.977213E-02	1.220641E-03
6.932123E+03	2.953281E-02	1.213847E-03
6.942069E+03	2.931103E-02	1.207646E-03
6.952014E+03	2.910594E-02	1.202009E-03
6.961960E+03	2.891647E-02	1.196899E-03
6.971906E+03	2.874317E-02	1.192345E-03
6.981851E+03	2.858542E-02	1.188326E-03
6.991797E+03	2.844281E-02	1.184831E-03
7.001742E+03	2.831597E-02	1.181891E-03
7.011688E+03	2.820515E-02	1.179522E-03
7.021634E+03	2.811072E-02	1.177744E-03
7.031579E+03	2.803259E-02	1.176559E-03
7.041525E+03	2.797158E-02	1.176005E-03
7.051471E+03	2.792798E-02	1.176100E-03
7.061416E+03	2.790202E-02	1.176857E-03
7.071362E+03	2.789335E-02	1.178265E-03
7.081308E+03	2.790238E-02	1.180345E-03
7.091253E+03	2.792844E-02	1.183074E-03
7.101199E+03	2.797160E-02	1.186458E-03
7.111145E+03	2.803130E-02	1.190476E-03
7.121090E+03	2.810679E-02	1.195098E-03
7.131036E+03	2.819663E-02	1.200266E-03
7.140982E+03	2.829970E-02	1.205936E-03
7.150927E+03	2.841569E-02	1.212094E-03
7.160873E+03	2.854221E-02	1.218642E-03
7.170819E+03	2.867776E-02	1.225516E-03
7.180764E+03	2.882170E-02	1.232690E-03
7.190710E+03	2.897138E-02	1.240052E-03
7.200656E+03	2.912612E-02	1.247573E-03
7.210601E+03	2.928323E-02	1.255140E-03
7.220547E+03	2.944152E-02	1.262700E-03
7.230493E+03	2.959936E-02	1.270186E-03
7.240438E+03	2.975566E-02	1.277550E-03
7.250384E+03	2.990836E-02	1.284705E-03
7.260330E+03	3.005597E-02	1.291587E-03
7.270275E+03	3.019708E-02	1.298136E-03
7.280221E+03	3.033089E-02	1.304319E-03
7.290167E+03	3.045614E-02	1.310081E-03
7.300112E+03	3.057116E-02	1.315354E-03
7.310058E+03	3.067546E-02	1.320115E-03
7.320004E+03	3.076817E-02	1.324330E-03
7.329949E+03	3.084859E-02	1.327970E-03
7.339895E+03	3.091620E-02	1.331014E-03
7.349840E+03	3.097130E-02	1.333478E-03
7.359786E+03	3.101333E-02	1.335338E-03
7.369732E+03	3.104255E-02	1.336609E-03
7.379677E+03	3.106071E-02	1.337369E-03
7.389623E+03	3.106760E-02	1.337611E-03
7.399569E+03	3.106562E-02	1.337442E-03
7.409514E+03	3.105578E-02	1.336908E-03
7.419460E+03	3.103939E-02	1.336069E-03
7.429406E+03	3.101861E-02	1.335020E-03
7.439351E+03	3.099637E-02	1.333892E-03
7.449297E+03	3.097406E-02	1.332747E-03
7.459243E+03	3.095428E-02	1.331701E-03
7.469188E+03	3.094025E-02	1.330896E-03
7.479134E+03	3.093335E-02	1.330393E-03
7.489080E+03	3.093715E-02	1.330352E-03
7.499025E+03	3.095266E-02	1.330817E-03
7.508971E+03	3.098173E-02	1.331872E-03
7.518917E+03	3.102702E-02	1.333636E-03
7.528862E+03	3.108785E-02	1.336082E-03
7.538808E+03	3.116540E-02	1.339266E-03
7.548754E+03	3.126041E-02	1.343223E-03
7.558699E+03	3.137133E-02	1.347891E-03
7.568645E+03	3.149849E-02	1.353289E-03
7.578591E+03	3.163941E-02	1.359314E-03
7.588536E+03	3.179234E-02	1.365896E-03
7.598482E+03	3.195637E-02	1.373003E-03
7.608428E+03	3.212785E-02	1.380481E-03
7.618373E+03	3.230404E-02	1.388219E-03
7.628319E+03	3.248266E-02	1.396127E-03
7.638265E+03	3.266005E-02	1.404050E-03
7.648210E+03	3.283372E-02	1.411890E-03
7.658156E+03	3.299995E-02	1.419492E-03
7.668101E+03	3.315571E-02	1.426732E-03
7.678047E+03	3.329877E-02	1.433519E-03
7.687993E+03	3.342578E-02	1.439717E-03
7.697938E+03	3.353494E-02	1.445251E-03
7.707884E+03	3.362270E-02	1.449975E-03
7.717830E+03	3.368850E-02	1.453869E-03
