#wls	flux	fluxerr
1.591305E+03	5.875685E-03	5.543273E-04
1.631088E+03	5.238695E-03	4.879944E-04
1.670870E+03	4.649295E-03	4.275095E-04
1.710653E+03	4.110723E-03	3.730165E-04
1.750436E+03	3.622370E-03	3.242945E-04
1.790218E+03	3.185702E-03	2.813047E-04
1.830001E+03	2.798918E-03	2.437125E-04
1.869784E+03	2.460955E-03	2.112524E-04
1.909566E+03	2.169668E-03	1.835693E-04
1.949349E+03	1.922695E-03	1.602986E-04
1.989131E+03	1.717801E-03	1.410957E-04
2.028914E+03	1.553420E-03	1.256804E-04
2.068697E+03	1.428576E-03	1.138265E-04
2.108479E+03	1.341908E-03	1.052825E-04
2.148262E+03	1.290600E-03	9.969203E-05
2.188045E+03	1.273061E-03	9.680680E-05
2.227827E+03	1.289691E-03	9.653716E-05
2.267610E+03	1.342773E-03	9.893285E-05
2.307392E+03	1.435896E-03	1.041310E-04
2.347175E+03	1.573757E-03	1.123353E-04
2.386958E+03	1.762103E-03	1.238026E-04
2.426740E+03	2.007234E-03	1.388057E-04
2.466523E+03	2.314632E-03	1.575375E-04
2.506306E+03	2.688463E-03	1.800828E-04
2.546088E+03	3.129698E-03	2.063009E-04
2.585871E+03	3.634547E-03	2.357405E-04
2.625653E+03	4.192462E-03	2.675370E-04
2.665436E+03	4.790036E-03	3.006916E-04
2.705219E+03	5.410599E-03	3.340593E-04
2.745001E+03	6.036143E-03	3.664825E-04
2.784784E+03	6.647359E-03	3.967990E-04
2.824567E+03	7.228355E-03	4.241252E-04
2.864349E+03	7.764805E-03	4.477316E-04
2.904132E+03	8.247962E-03	4.672626E-04
2.943914E+03	8.676400E-03	4.828052E-04
2.983697E+03	9.052169E-03	4.946426E-04
2.993643E+03	9.139285E-03	4.971187E-04
3.003588E+03	9.223530E-03	4.993983E-04
3.013534E+03	9.305589E-03	5.015205E-04
3.023480E+03	9.385621E-03	5.034957E-04
3.033425E+03	9.463784E-03	5.053340E-04
3.043371E+03	9.539717E-03	5.070177E-04
3.053317E+03	9.614680E-03	5.086152E-04
3.063262E+03	9.688853E-03	5.101371E-04
3.073208E+03	9.761366E-03	5.115385E-04
3.083154E+03	9.833479E-03	5.128865E-04
3.093099E+03	9.905401E-03	5.141924E-04
3.103045E+03	9.977322E-03	5.154664E-04
3.112991E+03	1.004946E-02	5.167199E-04
3.122936E+03	1.012201E-02	5.179632E-04
3.132882E+03	1.019520E-02	5.192066E-04
3.142828E+03	1.026974E-02	5.204862E-04
3.152773E+03	1.034584E-02	5.218107E-04
3.162719E+03	1.042319E-02	5.231636E-04
3.172665E+03	1.050301E-02	5.246049E-04
3.182610E+03	1.058499E-02	5.261164E-04
3.192556E+03	1.066933E-02	5.277067E-04
3.202502E+03	1.075672E-02	5.294074E-04
3.212447E+03	1.084784E-02	5.312496E-04
3.222393E+03	1.094186E-02	5.331903E-04
3.232339E+03	1.103997E-02	5.352842E-04
3.242284E+03	1.114182E-02	5.375115E-04
3.252230E+03	1.124857E-02	5.399248E-04
3.262175E+03	1.135987E-02	5.425037E-04
3.272121E+03	1.147586E-02	5.452514E-04
3.282067E+03	1.159716E-02	5.481935E-04
3.292012E+03	1.172389E-02	5.513313E-04
3.301958E+03	1.185664E-02	5.546884E-04
3.311904E+03	1.199500E-02	5.582417E-04
3.321849E+03	1.214003E-02	5.620352E-04
3.331795E+03	1.229129E-02	5.660437E-04
3.341741E+03	1.244932E-02	5.702871E-04
3.351686E+03	1.261364E-02	5.747390E-04
3.361632E+03	1.278572E-02	5.794605E-04
3.371578E+03	1.296458E-02	5.844023E-04
3.381523E+03	1.315069E-02	5.895798E-04
3.391469E+03	1.334451E-02	5.950079E-04
3.401415E+03	1.354599E-02	6.006790E-04
3.411360E+03	1.375508E-02	6.065852E-04
3.421306E+03	1.397220E-02	6.127387E-04
3.431252E+03	1.419726E-02	6.191299E-04
3.441197E+03	1.443063E-02	6.257688E-04
3.451143E+03	1.467118E-02	6.326008E-04
3.461089E+03	1.492018E-02	6.396741E-04
3.471034E+03	1.517713E-02	6.469623E-04
3.480980E+03	1.544208E-02	6.544604E-04
3.490926E+03	1.571544E-02	6.621805E-04
3.500871E+03	1.599666E-02	6.700929E-04
3.510817E+03	1.628607E-02	6.782063E-04
3.520763E+03	1.658303E-02	6.864872E-04
3.530708E+03	1.688730E-02	6.949212E-04
3.540654E+03	1.719767E-02	7.034525E-04
3.550600E+03	1.751428E-02	7.120817E-04
3.560545E+03	1.783629E-02	7.207691E-04
3.570491E+03	1.816230E-02	7.294540E-04
3.580436E+03	1.849186E-02	7.381143E-04
3.590382E+03	1.882401E-02	7.467078E-04
3.600328E+03	1.915825E-02	7.552121E-04
3.610273E+03	1.949318E-02	7.635696E-04
3.620219E+03	1.982840E-02	7.717636E-04
3.630165E+03	2.016320E-02	7.797645E-04
3.640110E+03	2.049752E-02	7.875692E-04
3.650056E+03	2.083059E-02	7.951482E-04
3.660002E+03	2.116394E-02	8.025587E-04
3.669947E+03	2.149710E-02	8.097821E-04
3.679893E+03	2.183155E-02	8.168727E-04
3.689839E+03	2.216979E-02	8.239211E-04
3.699784E+03	2.251347E-02	8.309844E-04
3.709730E+03	2.286579E-02	8.381744E-04
3.719676E+03	2.323094E-02	8.456367E-04
3.729621E+03	2.361220E-02	8.534786E-04
3.739567E+03	2.401416E-02	8.618513E-04
3.749513E+03	2.444163E-02	8.709094E-04
3.759458E+03	2.489948E-02	8.808043E-04
3.769404E+03	2.539191E-02	8.916597E-04
3.779350E+03	2.592327E-02	9.035989E-04
3.789295E+03	2.649679E-02	9.167024E-04
3.799241E+03	2.711584E-02	9.310523E-04
3.809187E+03	2.778174E-02	9.466570E-04
3.819132E+03	2.849503E-02	9.634969E-04
3.829078E+03	2.925376E-02	9.814690E-04
3.839024E+03	3.005642E-02	1.000486E-03
3.848969E+03	3.089826E-02	1.020356E-03
3.858915E+03	3.177335E-02	1.040853E-03
3.868861E+03	3.267300E-02	1.061669E-03
3.878806E+03	3.358919E-02	1.082524E-03
3.888752E+03	3.451041E-02	1.103039E-03
3.898698E+03	3.542590E-02	1.122869E-03
3.908643E+03	3.632327E-02	1.141630E-03
3.918589E+03	3.719008E-02	1.158950E-03
3.928534E+03	3.801614E-02	1.174541E-03
3.938480E+03	3.878940E-02	1.188068E-03
3.948426E+03	3.950232E-02	1.199347E-03
3.958371E+03	4.014758E-02	1.208210E-03
3.968317E+03	4.072019E-02	1.214566E-03
3.978263E+03	4.121893E-02	1.218440E-03
3.988208E+03	4.164337E-02	1.219885E-03
3.998154E+03	4.199804E-02	1.219094E-03
4.008100E+03	4.228739E-02	1.216258E-03
4.018045E+03	4.251907E-02	1.211652E-03
4.027991E+03	4.270295E-02	1.205606E-03
4.037937E+03	4.284827E-02	1.198422E-03
4.047882E+03	4.296680E-02	1.190464E-03
4.057828E+03	4.306936E-02	1.182057E-03
4.067774E+03	4.316725E-02	1.173526E-03
4.077719E+03	4.327124E-02	1.165173E-03
4.087665E+03	4.339134E-02	1.157267E-03
4.097611E+03	4.353528E-02	1.150010E-03
4.107556E+03	4.371190E-02	1.143623E-03
4.117502E+03	4.392629E-02	1.138222E-03
4.127448E+03	4.418374E-02	1.133926E-03
4.137393E+03	4.448627E-02	1.130764E-03
4.147339E+03	4.483591E-02	1.128767E-03
4.157285E+03	4.523252E-02	1.127910E-03
4.167230E+03	4.567371E-02	1.128114E-03
4.177176E+03	4.615548E-02	1.129266E-03
4.187122E+03	4.667399E-02	1.131261E-03
4.197067E+03	4.722103E-02	1.133894E-03
4.207013E+03	4.778991E-02	1.137006E-03
4.216959E+03	4.837038E-02	1.140361E-03
4.226904E+03	4.895286E-02	1.143750E-03
4.236850E+03	4.952580E-02	1.146926E-03
4.246796E+03	5.007823E-02	1.149667E-03
4.256741E+03	5.059777E-02	1.151726E-03
4.266687E+03	5.107213E-02	1.152870E-03
4.276632E+03	5.149197E-02	1.152939E-03
4.286578E+03	5.184520E-02	1.151717E-03
4.296524E+03	5.212411E-02	1.149093E-03
4.306469E+03	5.232150E-02	1.144968E-03
4.316415E+03	5.243276E-02	1.139301E-03
4.326361E+03	5.245550E-02	1.132098E-03
4.336306E+03	5.238839E-02	1.123386E-03
4.346252E+03	5.224033E-02	1.113404E-03
4.356198E+03	5.203621E-02	1.102722E-03
4.366143E+03	5.180633E-02	1.092008E-03
4.376089E+03	5.158023E-02	1.081896E-03
4.386035E+03	5.138714E-02	1.073002E-03
4.395980E+03	5.125367E-02	1.065875E-03
4.405926E+03	5.120629E-02	1.061041E-03
4.415872E+03	5.126655E-02	1.058909E-03
4.425817E+03	5.145448E-02	1.059855E-03
4.435763E+03	5.178465E-02	1.064144E-03
4.445709E+03	5.226865E-02	1.071981E-03
4.455654E+03	5.291303E-02	1.083476E-03
4.465600E+03	5.372018E-02	1.098655E-03
4.475546E+03	5.468568E-02	1.117413E-03
4.485491E+03	5.580223E-02	1.139589E-03
4.495437E+03	5.705524E-02	1.164879E-03
4.505383E+03	5.842452E-02	1.192868E-03
4.515328E+03	5.988561E-02	1.223055E-03
4.525274E+03	6.140759E-02	1.254808E-03
4.535220E+03	6.295483E-02	1.287397E-03
4.545165E+03	6.448974E-02	1.320047E-03
4.555111E+03	6.596975E-02	1.351879E-03
4.565057E+03	6.735537E-02	1.382069E-03
4.575002E+03	6.860551E-02	1.409750E-03
4.584948E+03	6.968488E-02	1.434170E-03
4.594894E+03	7.056365E-02	1.454678E-03
4.604839E+03	7.122020E-02	1.470788E-03
4.614785E+03	7.163978E-02	1.482148E-03
4.624730E+03	7.181954E-02	1.488651E-03
4.634676E+03	7.176547E-02	1.490368E-03
4.644622E+03	7.149172E-02	1.487544E-03
4.654567E+03	7.102095E-02	1.480603E-03
4.664513E+03	7.038172E-02	1.470097E-03
4.674459E+03	6.960661E-02	1.456666E-03
4.684404E+03	6.873022E-02	1.441003E-03
4.694350E+03	6.778721E-02	1.423809E-03
4.704296E+03	6.681160E-02	1.405777E-03
4.714241E+03	6.583424E-02	1.387542E-03
4.724187E+03	6.488387E-02	1.369700E-03
4.734133E+03	6.398388E-02	1.352740E-03
4.744078E+03	6.315306E-02	1.337056E-03
4.754024E+03	6.240677E-02	1.322975E-03
4.763970E+03	6.175468E-02	1.310701E-03
4.773915E+03	6.120271E-02	1.300363E-03
4.783861E+03	6.075167E-02	1.291980E-03
4.793807E+03	6.040022E-02	1.285523E-03
4.803752E+03	6.014319E-02	1.280884E-03
4.813698E+03	5.997203E-02	1.277878E-03
4.823644E+03	5.987635E-02	1.276282E-03
4.833589E+03	5.984301E-02	1.275812E-03
4.843535E+03	5.985774E-02	1.276160E-03
4.853481E+03	5.990367E-02	1.276962E-03
4.863426E+03	5.996488E-02	1.277872E-03
4.873372E+03	6.002328E-02	1.278502E-03
4.883318E+03	6.006169E-02	1.278481E-03
4.893263E+03	6.006460E-02	1.277478E-03
4.903209E+03	6.001639E-02	1.275162E-03
4.913155E+03	5.990699E-02	1.271320E-03
4.923100E+03	5.972583E-02	1.265735E-03
4.933046E+03	5.946958E-02	1.258343E-03
4.942991E+03	5.913528E-02	1.249094E-03
4.952937E+03	5.872701E-02	1.238086E-03
4.962883E+03	5.825163E-02	1.225480E-03
4.972828E+03	5.771895E-02	1.211498E-03
4.982774E+03	5.714252E-02	1.196440E-03
4.992720E+03	5.653827E-02	1.180655E-03
5.002665E+03	5.592440E-02	1.164539E-03
5.012611E+03	5.531891E-02	1.148476E-03
5.022557E+03	5.474063E-02	1.132866E-03
5.032502E+03	5.420850E-02	1.118106E-03
5.042448E+03	5.373948E-02	1.104546E-03
5.052394E+03	5.334971E-02	1.092513E-03
5.062339E+03	5.305375E-02	1.082298E-03
5.072285E+03	5.286428E-02	1.074146E-03
5.082231E+03	5.279204E-02	1.068258E-03
5.092176E+03	5.284622E-02	1.064800E-03
5.102122E+03	5.303231E-02	1.063858E-03
5.112068E+03	5.335516E-02	1.065502E-03
5.122013E+03	5.381732E-02	1.069756E-03
5.131959E+03	5.441734E-02	1.076561E-03
5.141905E+03	5.515280E-02	1.085840E-03
5.151850E+03	5.601748E-02	1.097443E-03
5.161796E+03	5.700346E-02	1.111189E-03
5.171742E+03	5.809937E-02	1.126836E-03
5.181687E+03	5.929035E-02	1.144078E-03
5.191633E+03	6.055994E-02	1.162588E-03
5.201579E+03	6.188800E-02	1.181978E-03
5.211524E+03	6.325352E-02	1.201851E-03
5.221470E+03	6.463240E-02	1.221765E-03
5.231416E+03	6.600180E-02	1.241314E-03
5.241361E+03	6.733948E-02	1.260114E-03
5.251307E+03	6.862300E-02	1.277788E-03
5.261253E+03	6.983462E-02	1.294057E-03
5.271198E+03	7.095957E-02	1.308706E-03
5.281144E+03	7.198839E-02	1.321621E-03
5.291089E+03	7.291830E-02	1.332819E-03
5.301035E+03	7.375119E-02	1.342398E-03
5.310981E+03	7.449560E-02	1.350578E-03
5.320926E+03	7.516524E-02	1.357670E-03
5.330872E+03	7.578014E-02	1.364092E-03
5.340818E+03	7.636279E-02	1.370304E-03
5.350763E+03	7.693984E-02	1.376833E-03
5.360709E+03	7.753710E-02	1.384185E-03
5.370655E+03	7.818251E-02	1.392904E-03
5.380600E+03	7.890156E-02	1.403486E-03
5.390546E+03	7.971650E-02	1.416372E-03
5.400492E+03	8.064310E-02	1.431890E-03
5.410437E+03	8.169023E-02	1.450249E-03
5.420383E+03	8.286064E-02	1.471559E-03
5.430329E+03	8.413696E-02	1.495574E-03
5.440274E+03	8.548630E-02	1.521757E-03
5.450220E+03	8.686377E-02	1.549330E-03
5.460166E+03	8.821658E-02	1.577365E-03
5.470111E+03	8.949019E-02	1.604892E-03
5.480057E+03	9.063160E-02	1.630946E-03
5.490003E+03	9.159004E-02	1.654585E-03
5.499948E+03	9.232405E-02	1.675010E-03
5.509894E+03	9.279733E-02	1.691490E-03
5.519840E+03	9.298684E-02	1.703514E-03
5.529785E+03	9.287958E-02	1.710734E-03
5.539731E+03	9.247425E-02	1.713001E-03
5.549677E+03	9.178026E-02	1.710356E-03
5.559622E+03	9.081820E-02	1.703043E-03
5.569568E+03	8.961542E-02	1.691435E-03
5.579514E+03	8.820733E-02	1.676067E-03
5.589459E+03	8.663632E-02	1.657621E-03
5.599405E+03	8.494456E-02	1.636794E-03
5.609351E+03	8.317946E-02	1.614409E-03
5.619296E+03	8.138442E-02	1.591236E-03
5.629242E+03	7.960482E-02	1.568113E-03
5.639187E+03	7.788110E-02	1.545808E-03
5.649133E+03	7.624911E-02	1.525026E-03
5.659079E+03	7.474126E-02	1.506428E-03
5.669024E+03	7.338347E-02	1.490568E-03
5.678970E+03	7.219829E-02	1.477951E-03
5.688916E+03	7.119986E-02	1.468927E-03
5.698861E+03	7.039996E-02	1.463810E-03
5.708807E+03	6.980338E-02	1.462779E-03
5.718753E+03	6.940876E-02	1.465886E-03
5.728698E+03	6.921243E-02	1.473140E-03
5.738644E+03	6.920477E-02	1.484419E-03
5.748590E+03	6.937158E-02	1.499497E-03
5.758535E+03	6.969433E-02	1.518048E-03
5.768481E+03	7.014970E-02	1.539627E-03
5.778427E+03	7.071272E-02	1.563739E-03
5.788372E+03	7.135232E-02	1.589736E-03
5.798318E+03	7.203758E-02	1.616954E-03
5.808264E+03	7.273349E-02	1.644616E-03
5.818209E+03	7.340584E-02	1.671942E-03
5.828155E+03	7.401886E-02	1.698091E-03
5.838101E+03	7.454027E-02	1.722283E-03
5.848046E+03	7.493881E-02	1.743739E-03
5.857992E+03	7.518904E-02	1.761798E-03
5.867938E+03	7.526992E-02	1.775887E-03
5.877883E+03	7.516575E-02	1.785548E-03
5.887829E+03	7.486897E-02	1.790510E-03
5.897775E+03	7.437882E-02	1.790660E-03
5.907720E+03	7.369865E-02	1.785987E-03
5.917666E+03	7.284013E-02	1.776687E-03
5.927612E+03	7.181989E-02	1.763085E-03
5.937557E+03	7.065621E-02	1.745561E-03
5.947503E+03	6.937319E-02	1.724651E-03
5.957449E+03	6.799316E-02	1.700863E-03
5.967394E+03	6.654192E-02	1.674805E-03
5.977340E+03	6.504215E-02	1.647025E-03
5.987285E+03	6.351530E-02	1.618053E-03
5.997231E+03	6.198197E-02	1.588412E-03
6.007177E+03	6.046050E-02	1.558576E-03
6.017122E+03	5.896416E-02	1.528902E-03
6.027068E+03	5.750714E-02	1.499777E-03
6.037014E+03	5.609952E-02	1.471489E-03
6.046959E+03	5.475018E-02	1.444301E-03
6.056905E+03	5.346586E-02	1.418422E-03
6.066851E+03	5.225328E-02	1.394066E-03
6.076796E+03	5.111644E-02	1.371379E-03
6.086742E+03	5.005985E-02	1.350521E-03
6.096688E+03	4.908796E-02	1.331652E-03
6.106633E+03	4.820251E-02	1.314863E-03
6.116579E+03	4.740809E-02	1.300323E-03
6.126525E+03	4.670598E-02	1.288111E-03
6.136470E+03	4.609793E-02	1.278324E-03
6.146416E+03	4.558603E-02	1.271065E-03
6.156362E+03	4.517043E-02	1.266388E-03
6.166307E+03	4.485037E-02	1.264317E-03
6.176253E+03	4.462407E-02	1.264853E-03
6.186199E+03	4.448924E-02	1.267978E-03
6.196144E+03	4.444258E-02	1.273645E-03
6.206090E+03	4.447877E-02	1.281747E-03
6.216036E+03	4.459368E-02	1.292211E-03
6.225981E+03	4.477934E-02	1.304846E-03
6.235927E+03	4.503024E-02	1.319534E-03
6.245873E+03	4.533887E-02	1.336091E-03
6.255818E+03	4.569687E-02	1.354306E-03
6.265764E+03	4.609683E-02	1.373990E-03
6.275710E+03	4.653031E-02	1.394919E-03
6.285655E+03	4.699082E-02	1.416916E-03
6.295601E+03	4.747016E-02	1.439743E-03
6.305546E+03	4.796255E-02	1.463231E-03
6.315492E+03	4.846273E-02	1.487222E-03
6.325438E+03	4.896687E-02	1.511599E-03
6.335383E+03	4.947223E-02	1.536275E-03
6.345329E+03	4.997869E-02	1.561243E-03
6.355275E+03	5.048842E-02	1.586569E-03
6.365220E+03	5.100535E-02	1.612373E-03
6.375166E+03	5.153698E-02	1.638892E-03
6.385112E+03	5.209009E-02	1.666349E-03
6.395057E+03	5.267572E-02	1.695105E-03
6.405003E+03	5.330136E-02	1.725417E-03
6.414949E+03	5.397489E-02	1.757557E-03
6.424894E+03	5.469750E-02	1.791588E-03
6.434840E+03	5.546538E-02	1.827407E-03
6.444786E+03	5.626546E-02	1.864600E-03
6.454731E+03	5.707848E-02	1.902539E-03
6.464677E+03	5.788040E-02	1.940418E-03
6.474623E+03	5.864517E-02	1.977345E-03
6.484568E+03	5.934440E-02	2.012331E-03
6.494514E+03	5.995355E-02	2.044494E-03
6.504460E+03	6.044645E-02	2.072876E-03
6.514405E+03	6.080336E-02	2.096724E-03
6.524351E+03	6.100724E-02	2.115362E-03
6.534297E+03	6.104577E-02	2.128267E-03
6.544242E+03	6.091254E-02	2.135113E-03
6.554188E+03	6.060558E-02	2.135729E-03
6.564134E+03	6.012782E-02	2.130116E-03
6.574079E+03	5.948770E-02	2.118476E-03
6.584025E+03	5.869668E-02	2.101124E-03
6.593971E+03	5.776971E-02	2.078513E-03
6.603916E+03	5.672488E-02	2.051222E-03
6.613862E+03	5.558047E-02	2.019850E-03
6.623808E+03	5.435709E-02	1.985098E-03
6.633753E+03	5.307473E-02	1.947657E-03
6.643699E+03	5.175349E-02	1.908241E-03
6.653644E+03	5.041023E-02	1.867456E-03
6.663590E+03	4.906314E-02	1.825972E-03
6.673536E+03	4.772708E-02	1.784346E-03
6.683481E+03	4.641431E-02	1.743049E-03
6.693427E+03	4.513630E-02	1.702531E-03
6.703373E+03	4.390182E-02	1.663145E-03
6.713318E+03	4.271767E-02	1.625178E-03
6.723264E+03	4.158825E-02	1.588827E-03
6.733210E+03	4.051811E-02	1.554299E-03
6.743155E+03	3.950803E-02	1.521656E-03
6.753101E+03	3.855986E-02	1.491002E-03
6.763047E+03	3.767215E-02	1.462315E-03
6.772992E+03	3.684482E-02	1.435625E-03
6.782938E+03	3.607550E-02	1.410867E-03
6.792884E+03	3.536182E-02	1.387981E-03
6.802829E+03	3.470106E-02	1.366886E-03
6.812775E+03	3.409070E-02	1.347509E-03
6.822721E+03	3.352659E-02	1.329709E-03
6.832666E+03	3.300648E-02	1.313418E-03
6.842612E+03	3.252662E-02	1.298509E-03
6.852558E+03	3.208384E-02	1.284871E-03
6.862503E+03	3.167506E-02	1.272400E-03
6.872449E+03	3.129784E-02	1.261010E-03
6.882395E+03	3.094852E-02	1.250569E-03
6.892340E+03	3.062554E-02	1.241025E-03
6.902286E+03	3.032619E-02	1.232279E-03
6.912232E+03	3.004801E-02	1.224242E-03
6.922177E+03	2.979024E-02	1.216890E-03
6.932123E+03	2.955098E-02	1.210155E-03
6.942069E+03	2.932911E-02	1.203997E-03
6.952014E+03	2.912377E-02	1.198389E-03
6.961960E+03	2.893392E-02	1.193294E-03
6.971906E+03	2.876011E-02	1.188740E-03
6.981851E+03	2.860175E-02	1.184709E-03
6.991797E+03	2.845847E-02	1.181191E-03
7.001742E+03	2.833090E-02	1.178218E-03
7.011688E+03	2.821937E-02	1.175808E-03
7.021634E+03	2.812426E-02	1.173981E-03
7.031579E+03	2.804552E-02	1.172742E-03
7.041525E+03	2.798401E-02	1.172129E-03
7.051471E+03	2.794005E-02	1.172161E-03
7.061416E+03	2.791391E-02	1.172854E-03
7.071362E+03	2.790524E-02	1.174197E-03
7.081308E+03	2.791450E-02	1.176213E-03
7.091253E+03	2.794102E-02	1.178878E-03
7.101199E+03	2.798489E-02	1.182198E-03
7.111145E+03	2.804556E-02	1.186153E-03
7.121090E+03	2.812225E-02	1.190713E-03
7.131036E+03	2.821355E-02	1.195821E-03
7.140982E+03	2.831831E-02	1.201429E-03
7.150927E+03	2.843621E-02	1.207527E-03
7.160873E+03	2.856486E-02	1.214012E-03
7.170819E+03	2.870270E-02	1.220822E-03
7.180764E+03	2.884909E-02	1.227929E-03
7.190710E+03	2.900136E-02	1.235221E-03
7.200656E+03	2.915881E-02	1.242667E-03
7.210601E+03	2.931872E-02	1.250153E-03
7.220547E+03	2.947988E-02	1.257628E-03
7.230493E+03	2.964064E-02	1.265021E-03
7.240438E+03	2.979989E-02	1.272287E-03
7.250384E+03	2.995555E-02	1.279335E-03
7.260330E+03	3.010612E-02	1.286103E-03
7.270275E+03	3.025015E-02	1.292529E-03
7.280221E+03	3.038681E-02	1.298580E-03
7.290167E+03	3.051485E-02	1.304201E-03
7.300112E+03	3.063254E-02	1.309322E-03
7.310058E+03	3.073937E-02	1.313921E-03
7.320004E+03	3.083444E-02	1.317962E-03
7.329949E+03	3.091700E-02	1.321414E-03
7.339895E+03	3.098652E-02	1.324256E-03
7.349840E+03	3.104325E-02	1.326503E-03
7.359786E+03	3.108660E-02	1.328132E-03
7.369732E+03	3.111683E-02	1.329156E-03
7.379677E+03	3.113565E-02	1.329651E-03
7.389623E+03	3.114285E-02	1.329613E-03
7.399569E+03	3.114083E-02	1.329146E-03
7.409514E+03	3.113063E-02	1.328299E-03
7.419460E+03	3.111357E-02	1.327131E-03
7.429406E+03	3.109183E-02	1.325740E-03
7.439351E+03	3.106842E-02	1.324256E-03
7.449297E+03	3.104475E-02	1.322745E-03
7.459243E+03	3.102350E-02	1.321323E-03
7.469188E+03	3.100793E-02	1.320134E-03
7.479134E+03	3.099950E-02	1.319242E-03
7.489080E+03	3.100183E-02	1.318806E-03
7.499025E+03	3.101599E-02	1.318874E-03
7.508971E+03	3.104387E-02	1.319530E-03
7.518917E+03	3.108817E-02	1.320894E-03
7.528862E+03	3.114824E-02	1.322939E-03
7.538808E+03	3.122528E-02	1.325721E-03
7.548754E+03	3.132002E-02	1.329275E-03
7.558699E+03	3.143088E-02	1.333539E-03
7.568645E+03	3.155821E-02	1.338530E-03
7.578591E+03	3.169945E-02	1.344146E-03
7.588536E+03	3.185280E-02	1.350314E-03
7.598482E+03	3.201734E-02	1.357002E-03
7.608428E+03	3.218933E-02	1.364057E-03
7.618373E+03	3.236597E-02	1.371365E-03
7.628319E+03	3.254492E-02	1.378834E-03
7.638265E+03	3.272244E-02	1.386313E-03
7.648210E+03	3.289601E-02	1.393701E-03
7.658156E+03	3.306183E-02	1.400844E-03
7.668101E+03	3.321684E-02	1.407620E-03
7.678047E+03	3.335877E-02	1.413939E-03
7.687993E+03	3.348423E-02	1.419664E-03
7.697938E+03	3.359141E-02	1.424726E-03
7.707884E+03	3.367677E-02	1.428980E-03
7.717830E+03	3.373974E-02	1.432408E-03
