#wls	flux	fluxerr
1.591305E+03	5.072483E-03	5.775329E-04
1.631088E+03	4.535012E-03	5.096104E-04
1.670870E+03	4.041452E-03	4.480812E-04
1.710653E+03	3.593713E-03	3.929855E-04
1.750436E+03	3.190830E-03	3.440360E-04
1.790218E+03	2.831919E-03	3.009542E-04
1.830001E+03	2.516768E-03	2.635324E-04
1.869784E+03	2.242803E-03	2.313155E-04
1.909566E+03	2.007815E-03	2.038977E-04
1.949349E+03	1.810738E-03	1.809972E-04
1.989131E+03	1.648731E-03	1.621617E-04
2.028914E+03	1.520761E-03	1.471289E-04
2.068697E+03	1.425864E-03	1.356478E-04
2.108479E+03	1.362584E-03	1.274262E-04
2.148262E+03	1.328872E-03	1.221255E-04
2.188045E+03	1.323299E-03	1.194762E-04
2.227827E+03	1.345278E-03	1.192929E-04
2.267610E+03	1.395512E-03	1.215070E-04
2.307392E+03	1.475309E-03	1.260980E-04
2.347175E+03	1.587065E-03	1.331274E-04
2.386958E+03	1.733263E-03	1.426494E-04
2.426740E+03	1.915992E-03	1.546722E-04
2.466523E+03	2.137143E-03	1.691772E-04
2.506306E+03	2.397059E-03	1.860156E-04
2.546088E+03	2.694923E-03	2.049508E-04
2.585871E+03	3.028936E-03	2.256808E-04
2.625653E+03	3.395924E-03	2.478173E-04
2.665436E+03	3.788339E-03	2.706830E-04
2.705219E+03	4.196506E-03	2.935019E-04
2.745001E+03	4.608686E-03	3.154199E-04
2.784784E+03	5.015428E-03	3.358106E-04
2.824567E+03	5.406709E-03	3.540711E-04
2.864349E+03	5.776076E-03	3.698897E-04
2.904132E+03	6.117841E-03	3.830434E-04
2.943914E+03	6.430529E-03	3.936025E-04
2.983697E+03	6.715355E-03	4.018082E-04
2.993643E+03	6.783134E-03	4.035663E-04
3.003588E+03	6.848919E-03	4.051747E-04
3.013534E+03	6.913810E-03	4.067009E-04
3.023480E+03	6.977391E-03	4.081223E-04
3.033425E+03	7.039748E-03	4.094462E-04
3.043371E+03	7.101491E-03	4.107098E-04
3.053317E+03	7.162215E-03	4.118914E-04
3.063262E+03	7.222533E-03	4.130281E-04
3.073208E+03	7.282054E-03	4.140988E-04
3.083154E+03	7.341390E-03	4.151398E-04
3.093099E+03	7.400660E-03	4.161587E-04
3.103045E+03	7.459975E-03	4.171620E-04
3.112991E+03	7.519459E-03	4.181569E-04
3.122936E+03	7.578731E-03	4.191227E-04
3.132882E+03	7.638916E-03	4.201219E-04
3.142828E+03	7.699628E-03	4.211329E-04
3.152773E+03	7.761004E-03	4.221630E-04
3.162719E+03	7.823655E-03	4.232452E-04
3.172665E+03	7.887212E-03	4.243590E-04
3.182610E+03	7.952302E-03	4.255375E-04
3.192556E+03	8.019047E-03	4.267866E-04
3.202502E+03	8.087577E-03	4.281120E-04
3.212447E+03	8.157533E-03	4.294938E-04
3.222393E+03	8.230037E-03	4.309903E-04
3.232339E+03	8.305224E-03	4.326069E-04
3.242284E+03	8.382748E-03	4.343240E-04
3.252230E+03	8.463254E-03	4.361736E-04
3.262175E+03	8.546407E-03	4.381368E-04
3.272121E+03	8.633355E-03	4.402707E-04
3.282067E+03	8.723795E-03	4.425576E-04
3.292012E+03	8.818402E-03	4.450297E-04
3.301958E+03	8.916907E-03	4.476710E-04
3.311904E+03	9.020517E-03	4.505396E-04
3.321849E+03	9.128944E-03	4.536184E-04
3.331795E+03	9.242302E-03	4.569103E-04
3.341741E+03	9.361662E-03	4.604653E-04
3.351686E+03	9.486598E-03	4.642593E-04
3.361632E+03	9.617117E-03	4.682896E-04
3.371578E+03	9.754192E-03	4.726008E-04
3.381523E+03	9.897328E-03	4.771655E-04
3.391469E+03	1.004650E-02	4.819798E-04
3.401415E+03	1.020320E-02	4.871117E-04
3.411360E+03	1.036644E-02	4.925119E-04
3.421306E+03	1.053724E-02	4.982241E-04
3.431252E+03	1.071512E-02	5.042238E-04
3.441197E+03	1.090166E-02	5.105813E-04
3.451143E+03	1.109622E-02	5.172641E-04
3.461089E+03	1.129980E-02	5.243141E-04
3.471034E+03	1.151199E-02	5.317101E-04
3.480980E+03	1.173442E-02	5.395229E-04
3.490926E+03	1.196676E-02	5.477341E-04
3.500871E+03	1.221025E-02	5.563969E-04
3.510817E+03	1.246497E-02	5.655107E-04
3.520763E+03	1.273147E-02	5.750962E-04
3.530708E+03	1.300918E-02	5.851247E-04
3.540654E+03	1.329833E-02	5.956028E-04
3.550600E+03	1.359797E-02	6.064839E-04
3.560545E+03	1.390707E-02	6.177177E-04
3.570491E+03	1.422541E-02	6.292903E-04
3.580436E+03	1.455109E-02	6.411136E-04
3.590382E+03	1.488307E-02	6.531397E-04
3.600328E+03	1.521945E-02	6.652829E-04
3.610273E+03	1.555867E-02	6.774730E-04
3.620219E+03	1.589831E-02	6.896048E-04
3.630165E+03	1.623596E-02	7.015744E-04
3.640110E+03	1.656785E-02	7.132204E-04
3.650056E+03	1.689230E-02	7.244735E-04
3.660002E+03	1.720492E-02	7.351501E-04
3.669947E+03	1.750368E-02	7.451685E-04
3.679893E+03	1.778579E-02	7.544168E-04
3.689839E+03	1.805185E-02	7.629274E-04
3.699784E+03	1.830268E-02	7.707411E-04
3.709730E+03	1.854016E-02	7.779432E-04
3.719676E+03	1.877108E-02	7.848226E-04
3.729621E+03	1.900240E-02	7.916705E-04
3.739567E+03	1.924186E-02	7.988072E-04
3.749513E+03	1.950015E-02	8.066704E-04
3.759458E+03	1.978963E-02	8.157596E-04
3.769404E+03	2.012116E-02	8.265066E-04
3.779350E+03	2.050627E-02	8.393637E-04
3.789295E+03	2.095478E-02	8.547068E-04
3.799241E+03	2.147688E-02	8.729226E-04
3.809187E+03	2.207837E-02	8.942123E-04
3.819132E+03	2.276326E-02	9.187038E-04
3.829078E+03	2.353392E-02	9.464549E-04
3.839024E+03	2.438758E-02	9.773170E-04
3.848969E+03	2.531806E-02	1.011007E-03
3.858915E+03	2.631496E-02	1.047077E-03
3.868861E+03	2.736469E-02	1.084959E-03
3.878806E+03	2.844860E-02	1.123891E-03
3.888752E+03	2.954569E-02	1.163032E-03
3.898698E+03	3.063264E-02	1.201459E-03
3.908643E+03	3.168277E-02	1.238133E-03
3.918589E+03	3.267055E-02	1.272073E-03
3.928534E+03	3.357067E-02	1.302323E-03
3.938480E+03	3.435942E-02	1.328003E-03
3.948426E+03	3.501866E-02	1.348460E-03
3.958371E+03	3.553390E-02	1.363193E-03
3.968317E+03	3.589838E-02	1.372006E-03
3.978263E+03	3.611208E-02	1.374962E-03
3.988208E+03	3.618176E-02	1.372382E-03
3.998154E+03	3.611926E-02	1.364776E-03
4.008100E+03	3.594298E-02	1.352896E-03
4.018045E+03	3.567312E-02	1.337548E-03
4.027991E+03	3.533130E-02	1.319581E-03
4.037937E+03	3.494202E-02	1.299940E-03
4.047882E+03	3.452665E-02	1.279438E-03
4.057828E+03	3.410679E-02	1.258886E-03
4.067774E+03	3.370173E-02	1.238996E-03
4.077719E+03	3.332884E-02	1.220400E-03
4.087665E+03	3.300242E-02	1.203605E-03
4.097611E+03	3.273465E-02	1.189036E-03
4.107556E+03	3.253561E-02	1.177034E-03
4.117502E+03	3.241196E-02	1.167809E-03
4.127448E+03	3.237025E-02	1.161567E-03
4.137393E+03	3.241051E-02	1.158274E-03
4.147339E+03	3.253334E-02	1.157918E-03
4.157285E+03	3.273559E-02	1.160354E-03
4.167230E+03	3.301289E-02	1.165396E-03
4.177176E+03	3.335659E-02	1.172710E-03
4.187122E+03	3.375919E-02	1.182008E-03
4.197067E+03	3.420985E-02	1.192892E-03
4.207013E+03	3.469578E-02	1.204901E-03
4.216959E+03	3.520343E-02	1.217555E-03
4.226904E+03	3.571747E-02	1.230323E-03
4.236850E+03	3.622251E-02	1.242680E-03
4.246796E+03	3.669995E-02	1.254000E-03
4.256741E+03	3.713093E-02	1.263657E-03
4.266687E+03	3.749631E-02	1.271029E-03
4.276632E+03	3.777759E-02	1.275524E-03
4.286578E+03	3.795611E-02	1.276553E-03
4.296524E+03	3.801753E-02	1.273683E-03
4.306469E+03	3.795180E-02	1.266628E-03
4.316415E+03	3.775532E-02	1.255323E-03
4.326361E+03	3.743117E-02	1.239922E-03
4.336306E+03	3.699221E-02	1.220899E-03
4.346252E+03	3.645981E-02	1.199001E-03
4.356198E+03	3.586410E-02	1.175248E-03
4.366143E+03	3.524076E-02	1.150829E-03
4.376089E+03	3.462626E-02	1.126937E-03
4.386035E+03	3.405912E-02	1.104820E-03
4.395980E+03	3.357781E-02	1.085701E-03
4.405926E+03	3.321775E-02	1.070689E-03
4.415872E+03	3.301354E-02	1.060853E-03
4.425817E+03	3.299775E-02	1.057183E-03
4.435763E+03	3.319058E-02	1.060269E-03
4.445709E+03	3.361061E-02	1.070642E-03
4.455654E+03	3.427199E-02	1.088688E-03
4.465600E+03	3.518242E-02	1.114590E-03
4.475546E+03	3.634716E-02	1.148450E-03
4.485491E+03	3.776565E-02	1.190184E-03
4.495437E+03	3.942807E-02	1.239424E-03
4.505383E+03	4.131531E-02	1.295509E-03
4.515328E+03	4.339771E-02	1.357458E-03
4.525274E+03	4.563101E-02	1.423843E-03
4.535220E+03	4.795503E-02	1.492754E-03
4.545165E+03	5.029807E-02	1.561937E-03
4.555111E+03	5.257676E-02	1.628799E-03
4.565057E+03	5.470051E-02	1.690546E-03
4.575002E+03	5.657744E-02	1.744368E-03
4.584948E+03	5.812698E-02	1.787832E-03
4.594894E+03	5.928211E-02	1.818939E-03
4.604839E+03	5.999348E-02	1.836255E-03
4.614785E+03	6.024319E-02	1.839319E-03
4.624730E+03	6.003803E-02	1.828432E-03
4.634676E+03	5.940903E-02	1.804632E-03
4.644622E+03	5.841285E-02	1.769725E-03
4.654567E+03	5.712067E-02	1.725945E-03
4.664513E+03	5.561256E-02	1.675771E-03
4.674459E+03	5.397229E-02	1.621775E-03
4.684404E+03	5.228068E-02	1.566411E-03
4.694350E+03	5.060954E-02	1.511842E-03
4.704296E+03	4.901685E-02	1.459790E-03
4.714241E+03	4.755111E-02	1.411681E-03
4.724187E+03	4.624710E-02	1.368511E-03
4.734133E+03	4.512643E-02	1.330875E-03
4.744078E+03	4.420075E-02	1.299065E-03
4.754024E+03	4.347698E-02	1.273227E-03
4.763970E+03	4.295254E-02	1.253223E-03
4.773915E+03	4.262013E-02	1.238778E-03
4.783861E+03	4.247113E-02	1.229575E-03
4.793807E+03	4.249357E-02	1.225205E-03
4.803752E+03	4.267265E-02	1.225177E-03
4.813698E+03	4.299189E-02	1.228959E-03
4.823644E+03	4.343429E-02	1.236007E-03
4.833589E+03	4.398007E-02	1.245705E-03
4.843535E+03	4.460720E-02	1.257382E-03
4.853481E+03	4.528975E-02	1.270268E-03
4.863426E+03	4.599676E-02	1.283467E-03
4.873372E+03	4.669421E-02	1.296012E-03
4.883318E+03	4.734026E-02	1.306744E-03
4.893263E+03	4.789140E-02	1.314483E-03
4.903209E+03	4.830450E-02	1.318089E-03
4.913155E+03	4.854514E-02	1.316690E-03
4.923100E+03	4.858693E-02	1.309656E-03
4.933046E+03	4.841130E-02	1.296590E-03
4.942991E+03	4.801448E-02	1.277507E-03
4.952937E+03	4.740349E-02	1.252715E-03
4.962883E+03	4.659568E-02	1.222794E-03
4.972828E+03	4.561895E-02	1.188590E-03
4.982774E+03	4.450830E-02	1.151119E-03
4.992720E+03	4.330341E-02	1.111491E-03
5.002665E+03	4.204844E-02	1.070903E-03
5.012611E+03	4.078587E-02	1.030475E-03
5.022557E+03	3.955530E-02	9.912212E-04
5.032502E+03	3.839006E-02	9.539673E-04
5.042448E+03	3.731847E-02	9.193864E-04
5.052394E+03	3.636427E-02	8.880133E-04
5.062339E+03	3.554507E-02	8.602119E-04
5.072285E+03	3.487470E-02	8.362380E-04
5.082231E+03	3.436461E-02	8.162759E-04
5.092176E+03	3.402314E-02	8.004234E-04
5.102122E+03	3.385691E-02	7.887295E-04
5.112068E+03	3.387145E-02	7.812084E-04
5.122013E+03	3.406908E-02	7.777949E-04
5.131959E+03	3.445242E-02	7.784269E-04
5.141905E+03	3.502157E-02	7.829824E-04
5.151850E+03	3.577369E-02	7.912734E-04
5.161796E+03	3.670343E-02	8.030602E-04
5.171742E+03	3.780298E-02	8.180559E-04
5.181687E+03	3.905704E-02	8.358217E-04
5.191633E+03	4.044653E-02	8.558560E-04
5.201579E+03	4.194770E-02	8.775806E-04
5.211524E+03	4.353168E-02	9.003371E-04
5.221470E+03	4.516319E-02	9.233682E-04
5.231416E+03	4.680491E-02	9.459125E-04
5.241361E+03	4.841804E-02	9.672185E-04
5.251307E+03	4.996288E-02	9.865570E-04
5.261253E+03	5.140163E-02	1.003276E-03
5.271198E+03	5.270662E-02	1.016955E-03
5.281144E+03	5.385530E-02	1.027299E-03
5.291089E+03	5.483718E-02	1.034259E-03
5.301035E+03	5.566191E-02	1.038169E-03
5.310981E+03	5.635211E-02	1.039594E-03
5.320926E+03	5.694299E-02	1.039308E-03
5.330872E+03	5.748973E-02	1.038414E-03
5.340818E+03	5.805804E-02	1.038163E-03
5.350763E+03	5.871872E-02	1.039852E-03
5.360709E+03	5.954502E-02	1.044775E-03
5.370655E+03	6.061314E-02	1.054242E-03
5.380600E+03	6.199271E-02	1.069417E-03
5.390546E+03	6.373786E-02	1.091183E-03
5.400492E+03	6.588872E-02	1.120182E-03
5.410437E+03	6.846793E-02	1.156775E-03
5.420383E+03	7.146045E-02	1.200716E-03
5.430329E+03	7.480059E-02	1.250956E-03
5.440274E+03	7.837783E-02	1.305756E-03
5.450220E+03	8.206073E-02	1.363081E-03
5.460166E+03	8.569170E-02	1.420472E-03
5.470111E+03	8.910345E-02	1.475282E-03
5.480057E+03	9.215643E-02	1.525306E-03
5.490003E+03	9.472465E-02	1.568527E-03
5.499948E+03	9.670405E-02	1.603244E-03
5.509894E+03	9.802970E-02	1.628345E-03
5.519840E+03	9.866738E-02	1.643171E-03
5.529785E+03	9.860846E-02	1.647435E-03
5.539731E+03	9.787341E-02	1.641292E-03
5.549677E+03	9.650080E-02	1.625168E-03
5.559622E+03	9.455081E-02	1.599837E-03
5.569568E+03	9.209453E-02	1.566253E-03
5.579514E+03	8.921442E-02	1.525575E-03
5.589459E+03	8.600411E-02	1.479176E-03
5.599405E+03	8.256650E-02	1.428624E-03
5.609351E+03	7.900490E-02	1.375543E-03
5.619296E+03	7.541901E-02	1.321541E-03
5.629242E+03	7.190641E-02	1.268246E-03
5.639187E+03	6.855375E-02	1.217149E-03
5.649133E+03	6.543259E-02	1.169522E-03
5.659079E+03	6.260036E-02	1.126429E-03
5.669024E+03	6.010067E-02	1.088723E-03
5.678970E+03	5.796275E-02	1.057024E-03
5.688916E+03	5.620203E-02	1.031717E-03
5.698861E+03	5.482562E-02	1.013048E-03
5.708807E+03	5.383313E-02	1.001130E-03
5.718753E+03	5.321120E-02	9.958333E-04
5.728698E+03	5.294187E-02	9.969339E-04
5.738644E+03	5.300591E-02	1.004174E-03
5.748590E+03	5.337334E-02	1.017080E-03
5.758535E+03	5.401052E-02	1.035092E-03
5.768481E+03	5.487985E-02	1.057552E-03
5.778427E+03	5.593496E-02	1.083616E-03
5.788372E+03	5.712121E-02	1.112255E-03
5.798318E+03	5.838190E-02	1.142376E-03
5.808264E+03	5.965412E-02	1.172741E-03
5.818209E+03	6.087389E-02	1.202066E-03
5.828155E+03	6.197617E-02	1.229026E-03
5.838101E+03	6.290244E-02	1.252407E-03
5.848046E+03	6.360168E-02	1.271131E-03
5.857992E+03	6.402912E-02	1.284237E-03
5.867938E+03	6.415781E-02	1.291116E-03
5.877883E+03	6.397253E-02	1.291398E-03
5.887829E+03	6.347052E-02	1.284971E-03
5.897775E+03	6.266755E-02	1.272108E-03
5.907720E+03	6.158959E-02	1.253300E-03
5.917666E+03	6.027194E-02	1.229243E-03
5.927612E+03	5.876255E-02	1.200906E-03
5.937557E+03	5.711134E-02	1.169311E-03
5.947503E+03	5.536672E-02	1.135461E-03
5.957449E+03	5.357801E-02	1.100386E-03
5.967394E+03	5.178651E-02	1.064959E-03
5.977340E+03	5.002851E-02	1.029957E-03
5.987285E+03	4.832817E-02	9.959048E-04
5.997231E+03	4.670425E-02	9.632201E-04
6.007177E+03	4.516766E-02	9.321569E-04
6.017122E+03	4.372176E-02	9.028115E-04
6.027068E+03	4.236458E-02	8.751687E-04
6.037014E+03	4.109270E-02	8.491812E-04
6.046959E+03	3.989873E-02	8.247172E-04
6.056905E+03	3.877674E-02	8.016746E-04
6.066851E+03	3.772023E-02	7.799369E-04
6.076796E+03	3.672663E-02	7.594678E-04
6.086742E+03	3.579634E-02	7.402916E-04
6.096688E+03	3.493017E-02	7.224401E-04
6.106633E+03	3.413454E-02	7.060600E-04
6.116579E+03	3.341692E-02	6.913196E-04
6.126525E+03	3.278641E-02	6.784203E-04
6.136470E+03	3.225417E-02	6.676066E-04
6.146416E+03	3.183200E-02	6.591368E-04
6.156362E+03	3.152913E-02	6.532175E-04
6.166307E+03	3.135170E-02	6.499928E-04
6.176253E+03	3.130279E-02	6.495465E-04
6.186199E+03	3.138379E-02	6.519298E-04
6.196144E+03	3.159185E-02	6.571104E-04
6.206090E+03	3.192147E-02	6.650036E-04
6.216036E+03	3.236658E-02	6.755171E-04
6.225981E+03	3.291972E-02	6.885341E-04
6.235927E+03	3.357389E-02	7.039507E-04
6.245873E+03	3.432076E-02	7.216394E-04
6.255818E+03	3.515545E-02	7.415490E-04
6.265764E+03	3.607247E-02	7.636200E-04
6.275710E+03	3.706677E-02	7.878059E-04
6.285655E+03	3.813367E-02	8.140724E-04
6.295601E+03	3.926769E-02	8.423717E-04
6.305546E+03	4.046298E-02	8.726514E-04
6.315492E+03	4.171096E-02	9.048022E-04
6.325438E+03	4.300215E-02	9.386844E-04
6.335383E+03	4.432456E-02	9.740828E-04
6.345329E+03	4.566771E-02	1.010806E-03
6.355275E+03	4.701905E-02	1.048610E-03
6.365220E+03	4.837057E-02	1.087341E-03
6.375166E+03	4.972284E-02	1.127033E-03
6.385112E+03	5.108107E-02	1.167821E-03
6.395057E+03	5.245782E-02	1.210015E-03
6.405003E+03	5.388226E-02	1.254318E-03
6.414949E+03	5.538499E-02	1.301491E-03
6.424894E+03	5.698719E-02	1.352100E-03
6.434840E+03	5.869304E-02	1.406322E-03
6.444786E+03	6.047446E-02	1.463561E-03
6.454731E+03	6.227351E-02	1.522465E-03
6.464677E+03	6.403131E-02	1.581597E-03
6.474623E+03	6.568790E-02	1.639435E-03
6.484568E+03	6.717746E-02	1.694239E-03
6.494514E+03	6.844918E-02	1.744578E-03
6.504460E+03	6.945737E-02	1.789092E-03
6.514405E+03	7.016258E-02	1.826526E-03
6.524351E+03	7.053993E-02	1.855958E-03
6.534297E+03	7.057597E-02	1.876737E-03
6.544242E+03	7.026763E-02	1.888470E-03
6.554188E+03	6.962386E-02	1.891080E-03
6.564134E+03	6.866595E-02	1.884838E-03
6.574079E+03	6.742052E-02	1.870185E-03
6.584025E+03	6.592398E-02	1.847865E-03
6.593971E+03	6.421902E-02	1.818843E-03
6.603916E+03	6.234738E-02	1.784109E-03
6.613862E+03	6.035601E-02	1.744852E-03
6.623808E+03	5.828845E-02	1.702219E-03
6.633753E+03	5.618667E-02	1.657366E-03
6.643699E+03	5.408801E-02	1.611361E-03
6.653644E+03	5.202462E-02	1.565164E-03
6.663590E+03	5.002508E-02	1.519664E-03
6.673536E+03	4.810898E-02	1.475513E-03
6.683481E+03	4.629358E-02	1.433314E-03
6.693427E+03	4.458945E-02	1.393481E-03
6.703373E+03	4.300278E-02	1.356305E-03
6.713318E+03	4.153479E-02	1.321925E-03
6.723264E+03	4.018690E-02	1.290489E-03
6.733210E+03	3.895468E-02	1.261958E-03
6.743155E+03	3.783339E-02	1.236275E-03
6.753101E+03	3.681843E-02	1.213385E-03
6.763047E+03	3.590140E-02	1.193099E-03
6.772992E+03	3.507659E-02	1.175308E-03
6.782938E+03	3.433582E-02	1.159814E-03
6.792884E+03	3.367240E-02	1.146459E-03
6.802829E+03	3.307752E-02	1.135004E-03
6.812775E+03	3.254544E-02	1.125308E-03
6.822721E+03	3.206864E-02	1.117159E-03
6.832666E+03	3.163999E-02	1.110351E-03
6.842612E+03	3.125375E-02	1.104720E-03
6.852558E+03	3.090406E-02	1.100090E-03
6.862503E+03	3.058510E-02	1.096281E-03
6.872449E+03	3.029285E-02	1.093172E-03
6.882395E+03	3.002202E-02	1.090590E-03
6.892340E+03	2.976906E-02	1.088423E-03
6.902286E+03	2.953014E-02	1.086541E-03
6.912232E+03	2.930282E-02	1.084867E-03
6.922177E+03	2.908475E-02	1.083320E-03
6.932123E+03	2.887421E-02	1.081844E-03
6.942069E+03	2.866974E-02	1.080390E-03
6.952014E+03	2.847092E-02	1.078946E-03
6.961960E+03	2.827829E-02	1.077539E-03
6.971906E+03	2.809272E-02	1.076207E-03
6.981851E+03	2.791517E-02	1.074991E-03
6.991797E+03	2.774740E-02	1.073967E-03
7.001742E+03	2.759196E-02	1.073241E-03
7.011688E+03	2.745085E-02	1.072900E-03
7.021634E+03	2.732655E-02	1.073049E-03
7.031579E+03	2.722141E-02	1.073792E-03
7.041525E+03	2.713777E-02	1.075234E-03
7.051471E+03	2.707822E-02	1.077488E-03
7.061416E+03	2.704364E-02	1.080604E-03
7.071362E+03	2.703596E-02	1.084671E-03
7.081308E+03	2.705636E-02	1.089750E-03
7.091253E+03	2.710538E-02	1.095876E-03
7.101199E+03	2.718322E-02	1.103070E-03
7.111145E+03	2.728924E-02	1.111318E-03
7.121090E+03	2.742284E-02	1.120607E-03
7.131036E+03	2.758216E-02	1.130870E-03
7.140982E+03	2.776583E-02	1.142061E-03
7.150927E+03	2.797096E-02	1.154069E-03
7.160873E+03	2.819473E-02	1.166782E-03
7.170819E+03	2.843421E-02	1.180084E-03
7.180764E+03	2.868679E-02	1.193871E-03
7.190710E+03	2.894846E-02	1.207978E-03
7.200656E+03	2.921720E-02	1.222320E-03
7.210601E+03	2.948943E-02	1.236749E-03
7.220547E+03	2.976322E-02	1.251182E-03
7.230493E+03	3.003588E-02	1.265505E-03
7.240438E+03	3.030591E-02	1.279654E-03
7.250384E+03	3.057160E-02	1.293552E-03
7.260330E+03	3.083029E-02	1.307086E-03
7.270275E+03	3.108112E-02	1.320217E-03
7.280221E+03	3.132233E-02	1.332866E-03
7.290167E+03	3.155107E-02	1.344911E-03
7.300112E+03	3.176570E-02	1.356279E-03
7.310058E+03	3.196401E-02	1.366872E-03
7.320004E+03	3.214381E-02	1.376595E-03
7.329949E+03	3.230227E-02	1.385324E-03
7.339895E+03	3.243767E-02	1.392982E-03
7.349840E+03	3.254810E-02	1.399486E-03
7.359786E+03	3.263149E-02	1.404745E-03
7.369732E+03	3.268670E-02	1.408708E-03
7.379677E+03	3.271323E-02	1.411353E-03
7.389623E+03	3.271103E-02	1.412678E-03
7.399569E+03	3.268179E-02	1.412755E-03
7.409514E+03	3.262689E-02	1.411646E-03
7.419460E+03	3.255071E-02	1.409542E-03
7.429406E+03	3.245615E-02	1.406570E-03
7.439351E+03	3.234878E-02	1.402977E-03
7.449297E+03	3.223317E-02	1.398964E-03
7.459243E+03	3.211638E-02	1.394842E-03
7.469188E+03	3.200441E-02	1.390876E-03
7.479134E+03	3.190281E-02	1.387317E-03
7.489080E+03	3.181756E-02	1.384428E-03
7.499025E+03	3.175448E-02	1.382471E-03
7.508971E+03	3.171730E-02	1.381614E-03
7.518917E+03	3.171007E-02	1.382044E-03
7.528862E+03	3.173476E-02	1.383852E-03
7.538808E+03	3.179252E-02	1.387098E-03
7.548754E+03	3.188240E-02	1.391748E-03
7.558699E+03	3.200410E-02	1.397798E-03
7.568645E+03	3.215350E-02	1.405076E-03
7.578591E+03	3.232715E-02	1.413441E-03
7.588536E+03	3.251988E-02	1.422674E-03
7.598482E+03	3.272721E-02	1.432589E-03
7.608428E+03	3.294187E-02	1.442877E-03
7.618373E+03	3.315866E-02	1.453317E-03
7.628319E+03	3.337002E-02	1.463587E-03
7.638265E+03	3.357010E-02	1.473439E-03
7.648210E+03	3.375268E-02	1.482607E-03
7.658156E+03	3.391278E-02	1.490880E-03
7.668101E+03	3.404406E-02	1.497986E-03
7.678047E+03	3.414251E-02	1.503755E-03
7.687993E+03	3.420459E-02	1.508033E-03
7.697938E+03	3.422744E-02	1.510702E-03
7.707884E+03	3.420959E-02	1.511697E-03
7.717830E+03	3.414892E-02	1.510929E-03
