#wls	flux	fluxerr
1.591305E+03	5.284209E-03	3.794844E-04
1.631088E+03	4.764288E-03	3.392563E-04
1.670870E+03	4.288695E-03	3.027526E-04
1.710653E+03	3.858973E-03	2.700124E-04
1.750436E+03	3.473643E-03	2.408585E-04
1.790218E+03	3.132622E-03	2.152112E-04
1.830001E+03	2.833037E-03	1.927986E-04
1.869784E+03	2.574375E-03	1.735134E-04
1.909566E+03	2.354235E-03	1.571213E-04
1.949349E+03	2.170183E-03	1.433905E-04
1.989131E+03	2.020430E-03	1.321361E-04
2.028914E+03	1.902238E-03	1.231152E-04
2.068697E+03	1.813235E-03	1.161145E-04
2.108479E+03	1.750811E-03	1.109109E-04
2.148262E+03	1.714949E-03	1.074501E-04
2.188045E+03	1.705722E-03	1.056828E-04
2.227827E+03	1.721768E-03	1.054705E-04
2.267610E+03	1.762884E-03	1.067477E-04
2.307392E+03	1.828573E-03	1.094312E-04
2.347175E+03	1.919750E-03	1.135220E-04
2.386958E+03	2.036381E-03	1.189628E-04
2.426740E+03	2.178530E-03	1.257014E-04
2.466523E+03	2.345594E-03	1.336470E-04
2.506306E+03	2.536129E-03	1.426629E-04
2.546088E+03	2.747812E-03	1.525674E-04
2.585871E+03	2.977242E-03	1.631266E-04
2.625653E+03	3.220801E-03	1.741045E-04
2.665436E+03	3.473400E-03	1.851978E-04
2.705219E+03	3.729800E-03	1.961106E-04
2.745001E+03	3.983934E-03	2.065203E-04
2.784784E+03	4.231996E-03	2.162384E-04
2.824567E+03	4.470059E-03	2.250825E-04
2.864349E+03	4.695550E-03	2.329502E-04
2.904132E+03	4.906887E-03	2.397957E-04
2.943914E+03	5.104435E-03	2.456729E-04
2.983697E+03	5.290435E-03	2.507241E-04
2.993643E+03	5.335843E-03	2.518952E-04
3.003588E+03	5.380576E-03	2.530189E-04
3.013534E+03	5.425217E-03	2.541230E-04
3.023480E+03	5.469324E-03	2.551870E-04
3.033425E+03	5.513477E-03	2.562381E-04
3.043371E+03	5.557765E-03	2.572803E-04
3.053317E+03	5.601742E-03	2.582932E-04
3.063262E+03	5.646013E-03	2.593047E-04
3.073208E+03	5.690666E-03	2.603186E-04
3.083154E+03	5.735270E-03	2.613152E-04
3.093099E+03	5.780950E-03	2.623455E-04
3.103045E+03	5.826764E-03	2.633665E-04
3.112991E+03	5.873851E-03	2.644294E-04
3.122936E+03	5.921267E-03	2.654911E-04
3.132882E+03	5.970147E-03	2.666023E-04
3.142828E+03	6.020089E-03	2.677443E-04
3.152773E+03	6.071187E-03	2.689208E-04
3.162719E+03	6.124069E-03	2.701588E-04
3.172665E+03	6.178332E-03	2.714397E-04
3.182610E+03	6.234609E-03	2.727906E-04
3.192556E+03	6.292491E-03	2.741926E-04
3.202502E+03	6.353136E-03	2.756951E-04
3.212447E+03	6.415626E-03	2.772571E-04
3.222393E+03	6.480599E-03	2.789051E-04
3.232339E+03	6.548700E-03	2.806655E-04
3.242284E+03	6.619529E-03	2.825196E-04
3.252230E+03	6.693200E-03	2.844710E-04
3.262175E+03	6.770884E-03	2.865676E-04
3.272121E+03	6.851643E-03	2.887680E-04
3.282067E+03	6.936102E-03	2.910970E-04
3.292012E+03	7.024353E-03	2.935564E-04
3.301958E+03	7.117015E-03	2.961701E-04
3.311904E+03	7.214136E-03	2.989380E-04
3.321849E+03	7.315224E-03	3.018375E-04
3.331795E+03	7.421355E-03	3.049109E-04
3.341741E+03	7.532508E-03	3.081548E-04
3.351686E+03	7.648064E-03	3.115416E-04
3.361632E+03	7.768445E-03	3.150863E-04
3.371578E+03	7.894027E-03	3.188016E-04
3.381523E+03	8.024582E-03	3.226761E-04
3.391469E+03	8.159243E-03	3.266725E-04
3.401415E+03	8.299304E-03	3.308406E-04
3.411360E+03	8.443202E-03	3.351158E-04
3.421306E+03	8.591542E-03	3.395203E-04
3.431252E+03	8.743761E-03	3.440300E-04
3.441197E+03	8.899848E-03	3.486427E-04
3.451143E+03	9.058692E-03	3.533134E-04
3.461089E+03	9.221056E-03	3.580708E-04
3.471034E+03	9.386911E-03	3.629122E-04
3.480980E+03	9.556435E-03	3.678431E-04
3.490926E+03	9.730471E-03	3.728944E-04
3.500871E+03	9.909885E-03	3.780972E-04
3.510817E+03	1.009489E-02	3.834574E-04
3.520763E+03	1.028563E-02	3.889779E-04
3.530708E+03	1.048272E-02	3.946799E-04
3.540654E+03	1.068548E-02	4.005350E-04
3.550600E+03	1.089489E-02	4.065772E-04
3.560545E+03	1.110944E-02	4.127475E-04
3.570491E+03	1.132869E-02	4.190273E-04
3.580436E+03	1.155268E-02	4.254159E-04
3.590382E+03	1.178072E-02	4.318862E-04
3.600328E+03	1.201082E-02	4.383638E-04
3.610273E+03	1.224327E-02	4.448579E-04
3.620219E+03	1.247584E-02	4.512876E-04
3.630165E+03	1.270804E-02	4.576351E-04
3.640110E+03	1.293821E-02	4.638412E-04
3.650056E+03	1.316598E-02	4.698943E-04
3.660002E+03	1.338948E-02	4.757292E-04
3.669947E+03	1.360901E-02	4.813585E-04
3.679893E+03	1.382490E-02	4.867961E-04
3.689839E+03	1.403824E-02	4.920826E-04
3.699784E+03	1.424991E-02	4.972498E-04
3.709730E+03	1.446409E-02	5.024437E-04
3.719676E+03	1.468370E-02	5.077647E-04
3.729621E+03	1.491379E-02	5.133842E-04
3.739567E+03	1.516080E-02	5.195180E-04
3.749513E+03	1.543009E-02	5.263419E-04
3.759458E+03	1.572912E-02	5.340987E-04
3.769404E+03	1.606428E-02	5.429909E-04
3.779350E+03	1.644226E-02	5.532274E-04
3.789295E+03	1.686858E-02	5.649741E-04
3.799241E+03	1.734893E-02	5.783985E-04
3.809187E+03	1.788591E-02	5.935631E-04
3.819132E+03	1.848207E-02	6.105270E-04
3.829078E+03	1.913730E-02	6.292598E-04
3.839024E+03	1.984774E-02	6.496100E-04
3.848969E+03	2.060852E-02	6.713949E-04
3.858915E+03	2.141058E-02	6.942987E-04
3.868861E+03	2.224172E-02	7.179109E-04
3.878806E+03	2.308805E-02	7.417736E-04
3.888752E+03	2.393183E-02	7.653138E-04
3.898698E+03	2.475389E-02	7.879249E-04
3.908643E+03	2.553323E-02	8.089520E-04
3.918589E+03	2.624928E-02	8.277682E-04
3.928534E+03	2.688185E-02	8.437686E-04
3.938480E+03	2.741441E-02	8.564755E-04
3.948426E+03	2.783183E-02	8.654636E-04
3.958371E+03	2.812498E-02	8.705021E-04
3.968317E+03	2.829069E-02	8.715486E-04
3.978263E+03	2.832864E-02	8.686493E-04
3.988208E+03	2.824743E-02	8.621226E-04
3.998154E+03	2.805842E-02	8.523649E-04
4.008100E+03	2.777682E-02	8.398826E-04
4.018045E+03	2.742054E-02	8.252539E-04
4.027991E+03	2.701074E-02	8.091444E-04
4.037937E+03	2.656576E-02	7.921230E-04
4.047882E+03	2.610567E-02	7.747997E-04
4.057828E+03	2.564843E-02	7.577108E-04
4.067774E+03	2.520899E-02	7.412942E-04
4.077719E+03	2.480223E-02	7.259783E-04
4.087665E+03	2.443812E-02	7.120396E-04
4.097611E+03	2.412695E-02	6.997592E-04
4.107556E+03	2.387529E-02	6.893054E-04
4.117502E+03	2.368770E-02	6.807860E-04
4.127448E+03	2.356773E-02	6.742776E-04
4.137393E+03	2.351614E-02	6.697756E-04
4.147339E+03	2.353191E-02	6.672261E-04
4.157285E+03	2.361373E-02	6.665670E-04
4.167230E+03	2.375682E-02	6.676405E-04
4.177176E+03	2.395575E-02	6.702733E-04
4.187122E+03	2.420398E-02	6.742641E-04
4.197067E+03	2.449299E-02	6.793610E-04
4.207013E+03	2.481234E-02	6.852633E-04
4.216959E+03	2.515107E-02	6.916613E-04
4.226904E+03	2.549597E-02	6.981894E-04
4.236850E+03	2.583353E-02	7.044796E-04
4.246796E+03	2.614921E-02	7.101424E-04
4.256741E+03	2.642641E-02	7.147397E-04
4.266687E+03	2.665063E-02	7.178958E-04
4.276632E+03	2.680558E-02	7.191936E-04
4.286578E+03	2.687812E-02	7.183070E-04
4.296524E+03	2.685612E-02	7.149403E-04
4.306469E+03	2.673223E-02	7.089294E-04
4.316415E+03	2.650234E-02	7.001970E-04
4.326361E+03	2.616925E-02	6.888490E-04
4.336306E+03	2.574174E-02	6.751441E-04
4.346252E+03	2.523829E-02	6.595916E-04
4.356198E+03	2.469116E-02	6.430503E-04
4.366143E+03	2.413555E-02	6.264432E-04
4.376089E+03	2.360687E-02	6.106860E-04
4.386035E+03	2.313766E-02	5.966061E-04
4.395980E+03	2.275612E-02	5.849087E-04
4.405926E+03	2.248648E-02	5.761887E-04
4.415872E+03	2.234930E-02	5.709415E-04
4.425817E+03	2.236092E-02	5.695497E-04
4.435763E+03	2.253520E-02	5.723302E-04
4.445709E+03	2.288279E-02	5.795159E-04
4.455654E+03	2.341228E-02	5.912866E-04
4.465600E+03	2.412973E-02	6.077575E-04
4.475546E+03	2.503732E-02	6.289466E-04
4.485491E+03	2.613406E-02	6.547935E-04
4.495437E+03	2.741251E-02	6.850781E-04
4.505383E+03	2.885775E-02	7.193970E-04
4.515328E+03	3.044600E-02	7.571311E-04
4.525274E+03	3.214225E-02	7.973897E-04
4.535220E+03	3.389993E-02	8.390042E-04
4.545165E+03	3.566221E-02	8.805642E-04
4.555111E+03	3.736174E-02	9.204124E-04
4.565057E+03	3.892651E-02	9.567921E-04
4.575002E+03	4.028446E-02	9.879598E-04
4.584948E+03	4.136877E-02	1.012315E-03
4.594894E+03	4.212761E-02	1.028637E-03
4.604839E+03	4.252561E-02	1.036114E-03
4.614785E+03	4.255101E-02	1.034515E-03
4.624730E+03	4.221554E-02	1.024181E-03
4.634676E+03	4.155280E-02	1.005978E-03
4.644622E+03	4.061365E-02	9.811819E-04
4.654567E+03	3.946236E-02	9.513803E-04
4.664513E+03	3.816618E-02	9.182200E-04
4.674459E+03	3.679485E-02	8.833942E-04
4.684404E+03	3.541046E-02	8.483985E-04
4.694350E+03	3.406743E-02	8.145340E-04
4.704296E+03	3.281027E-02	7.828544E-04
4.714241E+03	3.167203E-02	7.541319E-04
4.724187E+03	3.067647E-02	7.289123E-04
4.734133E+03	2.983778E-02	7.075097E-04
4.744078E+03	2.916306E-02	6.900674E-04
4.754024E+03	2.865450E-02	6.766124E-04
4.763970E+03	2.830904E-02	6.670468E-04
4.773915E+03	2.812146E-02	6.612231E-04
4.783861E+03	2.808341E-02	6.589208E-04
4.793807E+03	2.818551E-02	6.598972E-04
4.803752E+03	2.841592E-02	6.638536E-04
4.813698E+03	2.876072E-02	6.704456E-04
4.823644E+03	2.920471E-02	6.793014E-04
4.833589E+03	2.973048E-02	6.900004E-04
4.843535E+03	3.031722E-02	7.020478E-04
4.853481E+03	3.094180E-02	7.148988E-04
4.863426E+03	3.157750E-02	7.279304E-04
4.873372E+03	3.219412E-02	7.404456E-04
4.883318E+03	3.275980E-02	7.517161E-04
4.893263E+03	3.324153E-02	7.609934E-04
4.903209E+03	3.360776E-02	7.675704E-04
4.913155E+03	3.383061E-02	7.708300E-04
4.923100E+03	3.388977E-02	7.703345E-04
4.933046E+03	3.377245E-02	7.658207E-04
4.942991E+03	3.347616E-02	7.572621E-04
4.952937E+03	3.300865E-02	7.448640E-04
4.962883E+03	3.238713E-02	7.290434E-04
4.972828E+03	3.163708E-02	7.103990E-04
4.982774E+03	3.078884E-02	6.896337E-04
4.992720E+03	2.987647E-02	6.675261E-04
5.002665E+03	2.893390E-02	6.448447E-04
5.012611E+03	2.799405E-02	6.223278E-04
5.022557E+03	2.708619E-02	6.006253E-04
5.032502E+03	2.623505E-02	5.802803E-04
5.042448E+03	2.546171E-02	5.617493E-04
5.052394E+03	2.478209E-02	5.453708E-04
5.062339E+03	2.420832E-02	5.313965E-04
5.072285E+03	2.375044E-02	5.200299E-04
5.082231E+03	2.341449E-02	5.113843E-04
5.092176E+03	2.320587E-02	5.055590E-04
5.102122E+03	2.312803E-02	5.026093E-04
5.112068E+03	2.318323E-02	5.025645E-04
5.122013E+03	2.337236E-02	5.054244E-04
5.131959E+03	2.369565E-02	5.111748E-04
5.141905E+03	2.415165E-02	5.197665E-04
5.151850E+03	2.473719E-02	5.311138E-04
5.161796E+03	2.544684E-02	5.450849E-04
5.171742E+03	2.627251E-02	5.614930E-04
5.181687E+03	2.720318E-02	5.800911E-04
5.191633E+03	2.822347E-02	6.005435E-04
5.201579E+03	2.931552E-02	6.224655E-04
5.211524E+03	3.045752E-02	6.453928E-04
5.221470E+03	3.162445E-02	6.687985E-04
5.231416E+03	3.278982E-02	6.921297E-04
5.241361E+03	3.392681E-02	7.148312E-04
5.251307E+03	3.501044E-02	7.363916E-04
5.261253E+03	3.601902E-02	7.563717E-04
5.271198E+03	3.693619E-02	7.744468E-04
5.281144E+03	3.775358E-02	7.904617E-04
5.291089E+03	3.847247E-02	8.044620E-04
5.301035E+03	3.910395E-02	8.166984E-04
5.310981E+03	3.966900E-02	8.276243E-04
5.320926E+03	4.019854E-02	8.378993E-04
5.330872E+03	4.073216E-02	8.483593E-04
5.340818E+03	4.131482E-02	8.599504E-04
5.350763E+03	4.199604E-02	8.737116E-04
5.360709E+03	4.282582E-02	8.906925E-04
5.370655E+03	4.385340E-02	9.119282E-04
5.380600E+03	4.512463E-02	9.383868E-04
5.390546E+03	4.667778E-02	9.708850E-04
5.400492E+03	4.854205E-02	1.010057E-03
5.410437E+03	5.073309E-02	1.056266E-03
5.420383E+03	5.324456E-02	1.109423E-03
5.430329E+03	5.604631E-02	1.168955E-03
5.440274E+03	5.908146E-02	1.233733E-03
5.450220E+03	6.226976E-02	1.302145E-03
5.460166E+03	6.551048E-02	1.372144E-03
5.470111E+03	6.868534E-02	1.441302E-03
5.480057E+03	7.166732E-02	1.506978E-03
5.490003E+03	7.432918E-02	1.566498E-03
5.499948E+03	7.655327E-02	1.617361E-03
5.509894E+03	7.823925E-02	1.657394E-03
5.519840E+03	7.931274E-02	1.684939E-03
5.529785E+03	7.973073E-02	1.698972E-03
5.539731E+03	7.948199E-02	1.699124E-03
5.549677E+03	7.858970E-02	1.685744E-03
5.559622E+03	7.710611E-02	1.659796E-03
5.569568E+03	7.510813E-02	1.622784E-03
5.579514E+03	7.269049E-02	1.576607E-03
5.589459E+03	6.996091E-02	1.523475E-03
5.599405E+03	6.703059E-02	1.465702E-03
5.609351E+03	6.400836E-02	1.405587E-03
5.619296E+03	6.099544E-02	1.345301E-03
5.629242E+03	5.807881E-02	1.286740E-03
5.639187E+03	5.533242E-02	1.231547E-03
5.649133E+03	5.281384E-02	1.181032E-03
5.659079E+03	5.056394E-02	1.136158E-03
5.669024E+03	4.860986E-02	1.097603E-03
5.678970E+03	4.696639E-02	1.065779E-03
5.688916E+03	4.563847E-02	1.040889E-03
5.698861E+03	4.462173E-02	1.022926E-03
5.708807E+03	4.390587E-02	1.011751E-03
5.718753E+03	4.347385E-02	1.007068E-03
5.728698E+03	4.330448E-02	1.008482E-03
5.738644E+03	4.337106E-02	1.015458E-03
5.748590E+03	4.364321E-02	1.027366E-03
5.758535E+03	4.408518E-02	1.043437E-03
5.768481E+03	4.465780E-02	1.062801E-03
5.778427E+03	4.531710E-02	1.084457E-03
5.788372E+03	4.601696E-02	1.107329E-03
5.798318E+03	4.670877E-02	1.130255E-03
5.808264E+03	4.734462E-02	1.152066E-03
5.818209E+03	4.787955E-02	1.171639E-03
5.828155E+03	4.827258E-02	1.187921E-03
5.838101E+03	4.849035E-02	1.200026E-03
5.848046E+03	4.850857E-02	1.207275E-03
5.857992E+03	4.831315E-02	1.209227E-03
5.867938E+03	4.790080E-02	1.205707E-03
5.877883E+03	4.727856E-02	1.196796E-03
5.887829E+03	4.646225E-02	1.182803E-03
5.897775E+03	4.547571E-02	1.164250E-03
5.907720E+03	4.434869E-02	1.141826E-03
5.917666E+03	4.311326E-02	1.116295E-03
5.927612E+03	4.180267E-02	1.088471E-03
5.937557E+03	4.045046E-02	1.059196E-03
5.947503E+03	3.908565E-02	1.029213E-03
5.957449E+03	3.773551E-02	9.992327E-04
5.967394E+03	3.642160E-02	9.698344E-04
5.977340E+03	3.516063E-02	9.414780E-04
5.987285E+03	3.396511E-02	9.145218E-04
5.997231E+03	3.284231E-02	8.891891E-04
6.007177E+03	3.179579E-02	8.656078E-04
6.017122E+03	3.082551E-02	8.438090E-04
6.027068E+03	2.992957E-02	8.237733E-04
6.037014E+03	2.910355E-02	8.054105E-04
6.046959E+03	2.834314E-02	7.886309E-04
6.056905E+03	2.764310E-02	7.733166E-04
6.066851E+03	2.699992E-02	7.593954E-04
6.076796E+03	2.641007E-02	7.467925E-04
6.086742E+03	2.587195E-02	7.354861E-04
6.096688E+03	2.538554E-02	7.254982E-04
6.106633E+03	2.495206E-02	7.168867E-04
6.116579E+03	2.457437E-02	7.097584E-04
6.126525E+03	2.425640E-02	7.042522E-04
6.136470E+03	2.400276E-02	7.005298E-04
6.146416E+03	2.381782E-02	6.987482E-04
6.156362E+03	2.370662E-02	6.990871E-04
6.166307E+03	2.367275E-02	7.016867E-04
6.176253E+03	2.371928E-02	7.066739E-04
6.186199E+03	2.384763E-02	7.141273E-04
6.196144E+03	2.405862E-02	7.241096E-04
6.206090E+03	2.435122E-02	7.366275E-04
6.216036E+03	2.472376E-02	7.516676E-04
6.225981E+03	2.517443E-02	7.692110E-04
6.235927E+03	2.569998E-02	7.891947E-04
6.245873E+03	2.629807E-02	8.115807E-04
6.255818E+03	2.696554E-02	8.363050E-04
6.265764E+03	2.769983E-02	8.633198E-04
6.275710E+03	2.849840E-02	8.925771E-04
6.285655E+03	2.935779E-02	9.239981E-04
6.295601E+03	3.027555E-02	9.575342E-04
6.305546E+03	3.124844E-02	9.931102E-04
6.315492E+03	3.227297E-02	1.030641E-03
6.325438E+03	3.334598E-02	1.070049E-03
6.335383E+03	3.446386E-02	1.111243E-03
6.345329E+03	3.562446E-02	1.154174E-03
6.355275E+03	3.682695E-02	1.198834E-03
6.365220E+03	3.807199E-02	1.245264E-03
6.375166E+03	3.936246E-02	1.293577E-03
6.385112E+03	4.070393E-02	1.343978E-03
6.395057E+03	4.210332E-02	1.396717E-03
6.405003E+03	4.356899E-02	1.452101E-03
6.414949E+03	4.510613E-02	1.510332E-03
6.424894E+03	4.671576E-02	1.571476E-03
6.434840E+03	4.838651E-02	1.635181E-03
6.444786E+03	5.009130E-02	1.700553E-03
6.454731E+03	5.179128E-02	1.766283E-03
6.464677E+03	5.343935E-02	1.830751E-03
6.474623E+03	5.498347E-02	1.892140E-03
6.484568E+03	5.637025E-02	1.948554E-03
6.494514E+03	5.754868E-02	1.998146E-03
6.504460E+03	5.847339E-02	2.039236E-03
6.514405E+03	5.910788E-02	2.070426E-03
6.524351E+03	5.942714E-02	2.090699E-03
6.534297E+03	5.941716E-02	2.099416E-03
6.544242E+03	5.907892E-02	2.096458E-03
6.554188E+03	5.842284E-02	2.082046E-03
6.564134E+03	5.747331E-02	2.056907E-03
6.574079E+03	5.626189E-02	2.022042E-03
6.584025E+03	5.482839E-02	1.978770E-03
6.593971E+03	5.321634E-02	1.928570E-03
6.603916E+03	5.147115E-02	1.873014E-03
6.613862E+03	4.963788E-02	1.813692E-03
6.623808E+03	4.775979E-02	1.752153E-03
6.633753E+03	4.587567E-02	1.689808E-03
6.643699E+03	4.401938E-02	1.627909E-03
6.653644E+03	4.221873E-02	1.567504E-03
6.663590E+03	4.049737E-02	1.509501E-03
6.673536E+03	3.887219E-02	1.454570E-03
6.683481E+03	3.735447E-02	1.403178E-03
6.693427E+03	3.595169E-02	1.355658E-03
6.703373E+03	3.466644E-02	1.312159E-03
6.713318E+03	3.349924E-02	1.272753E-03
6.723264E+03	3.244662E-02	1.237361E-03
6.733210E+03	3.150393E-02	1.205855E-03
6.743155E+03	3.066384E-02	1.178002E-03
6.753101E+03	2.991996E-02	1.153600E-03
6.763047E+03	2.926339E-02	1.132347E-03
6.772992E+03	2.868608E-02	1.113967E-03
6.782938E+03	2.817921E-02	1.098152E-03
6.792884E+03	2.773524E-02	1.084635E-03
6.802829E+03	2.734550E-02	1.073103E-03
6.812775E+03	2.700314E-02	1.063309E-03
6.822721E+03	2.670073E-02	1.054980E-03
6.832666E+03	2.643144E-02	1.047861E-03
6.842612E+03	2.618999E-02	1.041757E-03
6.852558E+03	2.597101E-02	1.036463E-03
6.862503E+03	2.576908E-02	1.031774E-03
6.872449E+03	2.558070E-02	1.027554E-03
6.882395E+03	2.540198E-02	1.023653E-03
6.892340E+03	2.522997E-02	1.019956E-03
6.902286E+03	2.506262E-02	1.016383E-03
6.912232E+03	2.489782E-02	1.012850E-03
6.922177E+03	2.473441E-02	1.009311E-03
6.932123E+03	2.457209E-02	1.005755E-03
6.942069E+03	2.441048E-02	1.002166E-03
6.952014E+03	2.425010E-02	9.985680E-04
6.961960E+03	2.409228E-02	9.950153E-04
6.971906E+03	2.393786E-02	9.915448E-04
6.981851E+03	2.378937E-02	9.882633E-04
6.991797E+03	2.364871E-02	9.852524E-04
7.001742E+03	2.351836E-02	9.826184E-04
7.011688E+03	2.340089E-02	9.804739E-04
7.021634E+03	2.329894E-02	9.789345E-04
7.031579E+03	2.321475E-02	9.781005E-04
7.041525E+03	2.315134E-02	9.781055E-04
7.051471E+03	2.311018E-02	9.790203E-04
7.061416E+03	2.309305E-02	9.809275E-04
7.071362E+03	2.310163E-02	9.839072E-04
7.081308E+03	2.313681E-02	9.880067E-04
7.091253E+03	2.319839E-02	9.932262E-04
7.101199E+03	2.328691E-02	9.995979E-04
7.111145E+03	2.340149E-02	1.007093E-03
7.121090E+03	2.354074E-02	1.015660E-03
7.131036E+03	2.370350E-02	1.025256E-03
7.140982E+03	2.388756E-02	1.035795E-03
7.150927E+03	2.409070E-02	1.047184E-03
7.160873E+03	2.431046E-02	1.059325E-03
7.170819E+03	2.454418E-02	1.072104E-03
7.180764E+03	2.478913E-02	1.085408E-03
7.190710E+03	2.504184E-02	1.099087E-03
7.200656E+03	2.530024E-02	1.113052E-03
7.210601E+03	2.556098E-02	1.127158E-03
7.220547E+03	2.582150E-02	1.141291E-03
7.230493E+03	2.607937E-02	1.155345E-03
7.240438E+03	2.633232E-02	1.169217E-03
7.250384E+03	2.657778E-02	1.182790E-03
7.260330E+03	2.681366E-02	1.195971E-03
7.270275E+03	2.703753E-02	1.208647E-03
7.280221E+03	2.724702E-02	1.220709E-03
7.290167E+03	2.744089E-02	1.232097E-03
7.300112E+03	2.761604E-02	1.242667E-03
7.310058E+03	2.777063E-02	1.252330E-03
7.320004E+03	2.790329E-02	1.261020E-03
7.329949E+03	2.801174E-02	1.268627E-03
7.339895E+03	2.809485E-02	1.275093E-03
7.349840E+03	2.815153E-02	1.280362E-03
7.359786E+03	2.818211E-02	1.284441E-03
7.369732E+03	2.818645E-02	1.287317E-03
7.379677E+03	2.816599E-02	1.289049E-03
7.389623E+03	2.812339E-02	1.289754E-03
7.399569E+03	2.806134E-02	1.289549E-03
7.409514E+03	2.798320E-02	1.288583E-03
7.419460E+03	2.789410E-02	1.287090E-03
7.429406E+03	2.779843E-02	1.285271E-03
7.439351E+03	2.770209E-02	1.283396E-03
7.449297E+03	2.760950E-02	1.281673E-03
7.459243E+03	2.752708E-02	1.280403E-03
7.469188E+03	2.745947E-02	1.279803E-03
7.479134E+03	2.741176E-02	1.280118E-03
7.489080E+03	2.738811E-02	1.281547E-03
7.499025E+03	2.739243E-02	1.284283E-03
7.508971E+03	2.742745E-02	1.288461E-03
7.518917E+03	2.749500E-02	1.294176E-03
7.528862E+03	2.759629E-02	1.301496E-03
7.538808E+03	2.773153E-02	1.310441E-03
7.548754E+03	2.789899E-02	1.320939E-03
7.558699E+03	2.809706E-02	1.332924E-03
7.568645E+03	2.832139E-02	1.346197E-03
7.578591E+03	2.856821E-02	1.360589E-03
7.588536E+03	2.883150E-02	1.375818E-03
7.598482E+03	2.910565E-02	1.391622E-03
7.608428E+03	2.938256E-02	1.407618E-03
7.618373E+03	2.965533E-02	1.423475E-03
7.628319E+03	2.991493E-02	1.438760E-03
7.638265E+03	3.015447E-02	1.453139E-03
7.648210E+03	3.036453E-02	1.466150E-03
7.658156E+03	3.053841E-02	1.477464E-03
7.668101E+03	3.066922E-02	1.486737E-03
7.678047E+03	3.075063E-02	1.493651E-03
7.687993E+03	3.077801E-02	1.497966E-03
7.697938E+03	3.074865E-02	1.499536E-03
7.707884E+03	3.066091E-02	1.498265E-03
7.717830E+03	3.051392E-02	1.494094E-03
