#wls	flux	fluxerr
1.591305E+03	2.624536E-03	2.019412E-04
1.631088E+03	2.496941E-03	1.916138E-04
1.670870E+03	2.379961E-03	1.821403E-04
1.710653E+03	2.272561E-03	1.734365E-04
1.750436E+03	2.174657E-03	1.654912E-04
1.790218E+03	2.086915E-03	1.583500E-04
1.830001E+03	2.009036E-03	1.519846E-04
1.869784E+03	1.940305E-03	1.463354E-04
1.909566E+03	1.880390E-03	1.413718E-04
1.949349E+03	1.829618E-03	1.371131E-04
1.989131E+03	1.787151E-03	1.334905E-04
2.028914E+03	1.752827E-03	1.304865E-04
2.068697E+03	1.725789E-03	1.280317E-04
2.108479E+03	1.706286E-03	1.261393E-04
2.148262E+03	1.693455E-03	1.247402E-04
2.188045E+03	1.687821E-03	1.238675E-04
2.227827E+03	1.689230E-03	1.235043E-04
2.267610E+03	1.697479E-03	1.236299E-04
2.307392E+03	1.712006E-03	1.241973E-04
2.347175E+03	1.732839E-03	1.252029E-04
2.386958E+03	1.759986E-03	1.266415E-04
2.426740E+03	1.793141E-03	1.284849E-04
2.466523E+03	1.831374E-03	1.306608E-04
2.506306E+03	1.875389E-03	1.332138E-04
2.546088E+03	1.924668E-03	1.361011E-04
2.585871E+03	1.979367E-03	1.393278E-04
2.625653E+03	2.038967E-03	1.428515E-04
2.665436E+03	2.104013E-03	1.467042E-04
2.705219E+03	2.174092E-03	1.508508E-04
2.745001E+03	2.249845E-03	1.553293E-04
2.784784E+03	2.331326E-03	1.601364E-04
2.824567E+03	2.419084E-03	1.653024E-04
2.864349E+03	2.513824E-03	1.708669E-04
2.904132E+03	2.616761E-03	1.769034E-04
2.943914E+03	2.728867E-03	1.834666E-04
2.983697E+03	2.851575E-03	1.906403E-04
2.993643E+03	2.884383E-03	1.925591E-04
3.003588E+03	2.917912E-03	1.945188E-04
3.013534E+03	2.951782E-03	1.964938E-04
3.023480E+03	2.986787E-03	1.985368E-04
3.033425E+03	3.022942E-03	2.006485E-04
3.043371E+03	3.059866E-03	2.028031E-04
3.053317E+03	3.097567E-03	2.050010E-04
3.063262E+03	3.136458E-03	2.072691E-04
3.073208E+03	3.176147E-03	2.095814E-04
3.083154E+03	3.217051E-03	2.119648E-04
3.093099E+03	3.258773E-03	2.143930E-04
3.103045E+03	3.301731E-03	2.168930E-04
3.112991E+03	3.345935E-03	2.194653E-04
3.122936E+03	3.390982E-03	2.220829E-04
3.132882E+03	3.437710E-03	2.248003E-04
3.142828E+03	3.485294E-03	2.275632E-04
3.152773E+03	3.534157E-03	2.303988E-04
3.162719E+03	3.584727E-03	2.333346E-04
3.172665E+03	3.636165E-03	2.363154E-04
3.182610E+03	3.689321E-03	2.393961E-04
3.192556E+03	3.743773E-03	2.425488E-04
3.202502E+03	3.799520E-03	2.457730E-04
3.212447E+03	3.856989E-03	2.490959E-04
3.222393E+03	3.915748E-03	2.524889E-04
3.232339E+03	3.976225E-03	2.559792E-04
3.242284E+03	4.037974E-03	2.595375E-04
3.252230E+03	4.101423E-03	2.631909E-04
3.262175E+03	4.166559E-03	2.669380E-04
3.272121E+03	4.233369E-03	2.707773E-04
3.282067E+03	4.301832E-03	2.747069E-04
3.292012E+03	4.371926E-03	2.787249E-04
3.301958E+03	4.443625E-03	2.828289E-04
3.311904E+03	4.517348E-03	2.870452E-04
3.321849E+03	4.592612E-03	2.913422E-04
3.331795E+03	4.669373E-03	2.957168E-04
3.341741E+03	4.748047E-03	3.001946E-04
3.351686E+03	4.828585E-03	3.047720E-04
3.361632E+03	4.910940E-03	3.094453E-04
3.371578E+03	4.994589E-03	3.141809E-04
3.381523E+03	5.080401E-03	3.190329E-04
3.391469E+03	5.167847E-03	3.239675E-04
3.401415E+03	5.257330E-03	3.290091E-04
3.411360E+03	5.347841E-03	3.340942E-04
3.421306E+03	5.440719E-03	3.393058E-04
3.431252E+03	5.534950E-03	3.445799E-04
3.441197E+03	5.630931E-03	3.499407E-04
3.451143E+03	5.728599E-03	3.553837E-04
3.461089E+03	5.827877E-03	3.609035E-04
3.471034E+03	5.928700E-03	3.664954E-04
3.480980E+03	6.031479E-03	3.721843E-04
3.490926E+03	6.136150E-03	3.779655E-04
3.500871E+03	6.242173E-03	3.838051E-04
3.510817E+03	6.349973E-03	3.897288E-04
3.520763E+03	6.459498E-03	3.957325E-04
3.530708E+03	6.570694E-03	4.018125E-04
3.540654E+03	6.683999E-03	4.079948E-04
3.550600E+03	6.798890E-03	4.142469E-04
3.560545E+03	6.915326E-03	4.205656E-04
3.570491E+03	7.034235E-03	4.270066E-04
3.580436E+03	7.154623E-03	4.335089E-04
3.590382E+03	7.277427E-03	4.401285E-04
3.600328E+03	7.402132E-03	4.468335E-04
3.610273E+03	7.528729E-03	4.536226E-04
3.620219E+03	7.657672E-03	4.605224E-04
3.630165E+03	7.788952E-03	4.675315E-04
3.640110E+03	7.922551E-03	4.746480E-04
3.650056E+03	8.058461E-03	4.818705E-04
3.660002E+03	8.196671E-03	4.891975E-04
3.669947E+03	8.337632E-03	4.966551E-04
3.679893E+03	8.481331E-03	5.042414E-04
3.689839E+03	8.627258E-03	5.119252E-04
3.699784E+03	8.776319E-03	5.197593E-04
3.709730E+03	8.927505E-03	5.276830E-04
3.719676E+03	9.081676E-03	5.357462E-04
3.729621E+03	9.238724E-03	5.439414E-04
3.739567E+03	9.398028E-03	5.522312E-04
3.749513E+03	9.559877E-03	5.606316E-04
3.759458E+03	9.724034E-03	5.691278E-04
3.769404E+03	9.890695E-03	5.777304E-04
3.779350E+03	1.005859E-02	5.863646E-04
3.789295E+03	1.022826E-02	5.950613E-04
3.799241E+03	1.039925E-02	6.037931E-04
3.809187E+03	1.057104E-02	6.125300E-04
3.819132E+03	1.074260E-02	6.212118E-04
3.829078E+03	1.091421E-02	6.298547E-04
3.839024E+03	1.108473E-02	6.383929E-04
3.848969E+03	1.125343E-02	6.467855E-04
3.858915E+03	1.141956E-02	6.549890E-04
3.868861E+03	1.158277E-02	6.629854E-04
3.878806E+03	1.174229E-02	6.707312E-04
3.888752E+03	1.189689E-02	6.781578E-04
3.898698E+03	1.204672E-02	6.852750E-04
3.908643E+03	1.219021E-02	6.919955E-04
3.918589E+03	1.232715E-02	6.983104E-04
3.928534E+03	1.245702E-02	7.041925E-04
3.938480E+03	1.257981E-02	7.096431E-04
3.948426E+03	1.269436E-02	7.146001E-04
3.958371E+03	1.280091E-02	7.190801E-04
3.968317E+03	1.289983E-02	7.231066E-04
3.978263E+03	1.299043E-02	7.266428E-04
3.988208E+03	1.307375E-02	7.297512E-04
3.998154E+03	1.314978E-02	7.324335E-04
4.008100E+03	1.321868E-02	7.347013E-04
4.018045E+03	1.328149E-02	7.366151E-04
4.027991E+03	1.333899E-02	7.382196E-04
4.037937E+03	1.339204E-02	7.395648E-04
4.047882E+03	1.344120E-02	7.406835E-04
4.057828E+03	1.348750E-02	7.416331E-04
4.067774E+03	1.353196E-02	7.424716E-04
4.077719E+03	1.357530E-02	7.432390E-04
4.087665E+03	1.361894E-02	7.440127E-04
4.097611E+03	1.366389E-02	7.448486E-04
4.107556E+03	1.371018E-02	7.457480E-04
4.117502E+03	1.375975E-02	7.468153E-04
4.127448E+03	1.381256E-02	7.480472E-04
4.137393E+03	1.386974E-02	7.495049E-04
4.147339E+03	1.393177E-02	7.512119E-04
4.157285E+03	1.399904E-02	7.531881E-04
4.167230E+03	1.407218E-02	7.554647E-04
4.177176E+03	1.415142E-02	7.580538E-04
4.187122E+03	1.423724E-02	7.609778E-04
4.197067E+03	1.432976E-02	7.642414E-04
4.207013E+03	1.442901E-02	7.678442E-04
4.216959E+03	1.453529E-02	7.717997E-04
4.226904E+03	1.464827E-02	7.760881E-04
4.236850E+03	1.476786E-02	7.807029E-04
4.246796E+03	1.489450E-02	7.856652E-04
4.256741E+03	1.502750E-02	7.909365E-04
4.266687E+03	1.516699E-02	7.965219E-04
4.276632E+03	1.531283E-02	8.024115E-04
4.286578E+03	1.546459E-02	8.085814E-04
4.296524E+03	1.562267E-02	8.150505E-04
4.306469E+03	1.578639E-02	8.217819E-04
4.316415E+03	1.595564E-02	8.287680E-04
4.326361E+03	1.613082E-02	8.360280E-04
4.336306E+03	1.631102E-02	8.435138E-04
4.346252E+03	1.649666E-02	8.512449E-04
4.356198E+03	1.668754E-02	8.592107E-04
4.366143E+03	1.688323E-02	8.673869E-04
4.376089E+03	1.708374E-02	8.757727E-04
4.386035E+03	1.728848E-02	8.843380E-04
4.395980E+03	1.749708E-02	8.930618E-04
4.405926E+03	1.770904E-02	9.019181E-04
4.415872E+03	1.792374E-02	9.108748E-04
4.425817E+03	1.814067E-02	9.199050E-04
4.435763E+03	1.835888E-02	9.289608E-04
4.445709E+03	1.857724E-02	9.379851E-04
4.455654E+03	1.879495E-02	9.469369E-04
4.465600E+03	1.901044E-02	9.557392E-04
4.475546E+03	1.922250E-02	9.643316E-04
4.485491E+03	1.942891E-02	9.726047E-04
4.495437E+03	1.962834E-02	9.804944E-04
4.505383E+03	1.981826E-02	9.878770E-04
4.515328E+03	1.999684E-02	9.946644E-04
4.525274E+03	2.016190E-02	1.000753E-03
4.535220E+03	2.031129E-02	1.006041E-03
4.545165E+03	2.044320E-02	1.010444E-03
4.555111E+03	2.055567E-02	1.013871E-03
4.565057E+03	2.064722E-02	1.016256E-03
4.575002E+03	2.071609E-02	1.017518E-03
4.584948E+03	2.076163E-02	1.017634E-03
4.594894E+03	2.078304E-02	1.016571E-03
4.604839E+03	2.078015E-02	1.014329E-03
4.614785E+03	2.075295E-02	1.010915E-03
4.624730E+03	2.070237E-02	1.006382E-03
4.634676E+03	2.062895E-02	1.000762E-03
4.644622E+03	2.053462E-02	9.941559E-04
4.654567E+03	2.042088E-02	9.866424E-04
4.664513E+03	2.028972E-02	9.783239E-04
4.674459E+03	2.014335E-02	9.693112E-04
4.684404E+03	1.998413E-02	9.597218E-04
4.694350E+03	1.981446E-02	9.496744E-04
4.704296E+03	1.963676E-02	9.392879E-04
4.714241E+03	1.945360E-02	9.286873E-04
4.724187E+03	1.926721E-02	9.179800E-04
4.734133E+03	1.907965E-02	9.072646E-04
4.744078E+03	1.889278E-02	8.966297E-04
4.754024E+03	1.870822E-02	8.861520E-04
4.763970E+03	1.852670E-02	8.758648E-04
4.773915E+03	1.834960E-02	8.658322E-04
4.783861E+03	1.817716E-02	8.560642E-04
4.793807E+03	1.800984E-02	8.465815E-04
4.803752E+03	1.784810E-02	8.374036E-04
4.813698E+03	1.769155E-02	8.285112E-04
4.823644E+03	1.754049E-02	8.199166E-04
4.833589E+03	1.739405E-02	8.115770E-04
4.843535E+03	1.725244E-02	8.035023E-04
4.853481E+03	1.711483E-02	7.956512E-04
4.863426E+03	1.698092E-02	7.880095E-04
4.873372E+03	1.685002E-02	7.805443E-04
4.883318E+03	1.672188E-02	7.732432E-04
4.893263E+03	1.659592E-02	7.660782E-04
4.903209E+03	1.647221E-02	7.590519E-04
4.913155E+03	1.635017E-02	7.521381E-04
4.923100E+03	1.622996E-02	7.453426E-04
4.933046E+03	1.611147E-02	7.386603E-04
4.942991E+03	1.599531E-02	7.321184E-04
4.952937E+03	1.588168E-02	7.257261E-04
4.962883E+03	1.577095E-02	7.194995E-04
4.972828E+03	1.566416E-02	7.134846E-04
4.982774E+03	1.556191E-02	7.077083E-04
4.992720E+03	1.546527E-02	7.022184E-04
5.002665E+03	1.537486E-02	6.970417E-04
5.012611E+03	1.529205E-02	6.922388E-04
5.022557E+03	1.521772E-02	6.878478E-04
5.032502E+03	1.515308E-02	6.839219E-04
5.042448E+03	1.509899E-02	6.804981E-04
5.052394E+03	1.505661E-02	6.776264E-04
5.062339E+03	1.502684E-02	6.753457E-04
5.072285E+03	1.501037E-02	6.736845E-04
5.082231E+03	1.500794E-02	6.726737E-04
5.092176E+03	1.502036E-02	6.723473E-04
5.102122E+03	1.504814E-02	6.727263E-04
5.112068E+03	1.509169E-02	6.738266E-04
5.122013E+03	1.515112E-02	6.756509E-04
5.131959E+03	1.522675E-02	6.782117E-04
5.141905E+03	1.531862E-02	6.815086E-04
5.151850E+03	1.542646E-02	6.855285E-04
5.161796E+03	1.555045E-02	6.902767E-04
5.171742E+03	1.568995E-02	6.957241E-04
5.181687E+03	1.584459E-02	7.018532E-04
5.191633E+03	1.601426E-02	7.086581E-04
5.201579E+03	1.619815E-02	7.161019E-04
5.211524E+03	1.639590E-02	7.241685E-04
5.221470E+03	1.660680E-02	7.328261E-04
5.231416E+03	1.683049E-02	7.420591E-04
5.241361E+03	1.706648E-02	7.518452E-04
5.251307E+03	1.731430E-02	7.621645E-04
5.261253E+03	1.757336E-02	7.729918E-04
5.271198E+03	1.784332E-02	7.843126E-04
5.281144E+03	1.812409E-02	7.961237E-04
5.291089E+03	1.841526E-02	8.084084E-04
5.301035E+03	1.871686E-02	8.211692E-04
5.310981E+03	1.902855E-02	8.343924E-04
5.320926E+03	1.935019E-02	8.480733E-04
5.330872E+03	1.968176E-02	8.622133E-04
5.340818E+03	2.002257E-02	8.767833E-04
5.350763E+03	2.037256E-02	8.917833E-04
5.360709E+03	2.073084E-02	9.071762E-04
5.370655E+03	2.109625E-02	9.229136E-04
5.380600E+03	2.146793E-02	9.389608E-04
5.390546E+03	2.184384E-02	9.552306E-04
5.400492E+03	2.222224E-02	9.716504E-04
5.410437E+03	2.260096E-02	9.881278E-04
5.420383E+03	2.297770E-02	1.004565E-03
5.430329E+03	2.334973E-02	1.020846E-03
5.440274E+03	2.371479E-02	1.036876E-03
5.450220E+03	2.406938E-02	1.052503E-03
5.460166E+03	2.441047E-02	1.067597E-03
5.470111E+03	2.473437E-02	1.081998E-03
5.480057E+03	2.503783E-02	1.095565E-03
5.490003E+03	2.531721E-02	1.108138E-03
5.499948E+03	2.556956E-02	1.119589E-03
5.509894E+03	2.579184E-02	1.129784E-03
5.519840E+03	2.598203E-02	1.138633E-03
5.529785E+03	2.613871E-02	1.146073E-03
5.539731E+03	2.626043E-02	1.152038E-03
5.549677E+03	2.634727E-02	1.156529E-03
5.559622E+03	2.639980E-02	1.159567E-03
5.569568E+03	2.641961E-02	1.161221E-03
5.579514E+03	2.640818E-02	1.161550E-03
5.589459E+03	2.636865E-02	1.160690E-03
5.599405E+03	2.630356E-02	1.158748E-03
5.609351E+03	2.621684E-02	1.155895E-03
5.619296E+03	2.611160E-02	1.152262E-03
5.629242E+03	2.599201E-02	1.148032E-03
5.639187E+03	2.586139E-02	1.143348E-03
5.649133E+03	2.572288E-02	1.138346E-03
5.659079E+03	2.557979E-02	1.133169E-03
5.669024E+03	2.543502E-02	1.127946E-03
5.678970E+03	2.529024E-02	1.122748E-03
5.688916E+03	2.514735E-02	1.117658E-03
5.698861E+03	2.500721E-02	1.112714E-03
5.708807E+03	2.487082E-02	1.107959E-03
5.718753E+03	2.473772E-02	1.103371E-03
5.728698E+03	2.460736E-02	1.098926E-03
5.738644E+03	2.447900E-02	1.094589E-03
5.748590E+03	2.435125E-02	1.090298E-03
5.758535E+03	2.422192E-02	1.085954E-03
5.768481E+03	2.408952E-02	1.081486E-03
5.778427E+03	2.395169E-02	1.076789E-03
5.788372E+03	2.380627E-02	1.071763E-03
5.798318E+03	2.365113E-02	1.066308E-03
5.808264E+03	2.348405E-02	1.060323E-03
5.818209E+03	2.330350E-02	1.053732E-03
5.828155E+03	2.310781E-02	1.046459E-03
5.838101E+03	2.289609E-02	1.038457E-03
5.848046E+03	2.266750E-02	1.029683E-03
5.857992E+03	2.242157E-02	1.020112E-03
5.867938E+03	2.215881E-02	1.009762E-03
5.877883E+03	2.187992E-02	9.986598E-04
5.887829E+03	2.158583E-02	9.868428E-04
5.897775E+03	2.127811E-02	9.743777E-04
5.907720E+03	2.095882E-02	9.613554E-04
5.917666E+03	2.062950E-02	9.478426E-04
5.927612E+03	2.029313E-02	9.339722E-04
5.937557E+03	1.995160E-02	9.198282E-04
5.947503E+03	1.960784E-02	9.055441E-04
5.957449E+03	1.926401E-02	8.912175E-04
5.967394E+03	1.892276E-02	8.769702E-04
5.977340E+03	1.858627E-02	8.629026E-04
5.987285E+03	1.825672E-02	8.491165E-04
5.997231E+03	1.793611E-02	8.357053E-04
6.007177E+03	1.762605E-02	8.227453E-04
6.017122E+03	1.732827E-02	8.103195E-04
6.027068E+03	1.704393E-02	7.984839E-04
6.037014E+03	1.677397E-02	7.872852E-04
6.046959E+03	1.651943E-02	7.767758E-04
6.056905E+03	1.628100E-02	7.669910E-04
6.066851E+03	1.605903E-02	7.579508E-04
6.076796E+03	1.585386E-02	7.496750E-04
6.086742E+03	1.566568E-02	7.421767E-04
6.096688E+03	1.549456E-02	7.354631E-04
6.106633E+03	1.534049E-02	7.295373E-04
6.116579E+03	1.520321E-02	7.243913E-04
6.126525E+03	1.508268E-02	7.200276E-04
6.136470E+03	1.497854E-02	7.164332E-04
6.146416E+03	1.489040E-02	7.135931E-04
6.156362E+03	1.481798E-02	7.114980E-04
6.166307E+03	1.476112E-02	7.101447E-04
6.176253E+03	1.471952E-02	7.095225E-04
6.186199E+03	1.469300E-02	7.096273E-04
6.196144E+03	1.468126E-02	7.104476E-04
6.206090E+03	1.468396E-02	7.119714E-04
6.216036E+03	1.470093E-02	7.141940E-04
6.225981E+03	1.473178E-02	7.171014E-04
6.235927E+03	1.477601E-02	7.206719E-04
6.245873E+03	1.483363E-02	7.249102E-04
6.255818E+03	1.490372E-02	7.297750E-04
6.265764E+03	1.498619E-02	7.352652E-04
6.275710E+03	1.508024E-02	7.413453E-04
6.285655E+03	1.518530E-02	7.479901E-04
6.295601E+03	1.530034E-02	7.551517E-04
6.305546E+03	1.542480E-02	7.628059E-04
6.315492E+03	1.555719E-02	7.708815E-04
6.325438E+03	1.569645E-02	7.793273E-04
6.335383E+03	1.584101E-02	7.880672E-04
6.345329E+03	1.598906E-02	7.970128E-04
6.355275E+03	1.613892E-02	8.060810E-04
6.365220E+03	1.628818E-02	8.151516E-04
6.375166E+03	1.643473E-02	8.241182E-04
6.385112E+03	1.657610E-02	8.328556E-04
6.395057E+03	1.670950E-02	8.412220E-04
6.405003E+03	1.683204E-02	8.490684E-04
6.414949E+03	1.694129E-02	8.562696E-04
6.424894E+03	1.703420E-02	8.626663E-04
6.434840E+03	1.710838E-02	8.681322E-04
6.444786E+03	1.716118E-02	8.725271E-04
6.454731E+03	1.719073E-02	8.757486E-04
6.464677E+03	1.719491E-02	8.776815E-04
6.474623E+03	1.717228E-02	8.782447E-04
6.484568E+03	1.712127E-02	8.773490E-04
6.494514E+03	1.704141E-02	8.749616E-04
6.504460E+03	1.693215E-02	8.710453E-04
6.514405E+03	1.679338E-02	8.655862E-04
6.524351E+03	1.662551E-02	8.585957E-04
6.534297E+03	1.642976E-02	8.501282E-04
6.544242E+03	1.620746E-02	8.402439E-04
6.554188E+03	1.596052E-02	8.290348E-04
6.564134E+03	1.569107E-02	8.166033E-04
6.574079E+03	1.540171E-02	8.030791E-04
6.584025E+03	1.509532E-02	7.886059E-04
6.593971E+03	1.477492E-02	7.733367E-04
6.603916E+03	1.444364E-02	7.574316E-04
6.613862E+03	1.410461E-02	7.410520E-04
6.623808E+03	1.376094E-02	7.243593E-04
6.633753E+03	1.341561E-02	7.075093E-04
6.643699E+03	1.307131E-02	6.906430E-04
6.653644E+03	1.273079E-02	6.739072E-04
6.663590E+03	1.239658E-02	6.574368E-04
6.673536E+03	1.207064E-02	6.413382E-04
6.683481E+03	1.175469E-02	6.257048E-04
6.693427E+03	1.145055E-02	6.106375E-04
6.703373E+03	1.115950E-02	5.962080E-04
6.713318E+03	1.088247E-02	5.824695E-04
6.723264E+03	1.062022E-02	5.694679E-04
6.733210E+03	1.037346E-02	5.572448E-04
6.743155E+03	1.014242E-02	5.458180E-04
6.753101E+03	9.927522E-03	5.352144E-04
6.763047E+03	9.728561E-03	5.254278E-04
6.772992E+03	9.545544E-03	5.164634E-04
6.782938E+03	9.378364E-03	5.083200E-04
6.792884E+03	9.226488E-03	5.009733E-04
6.802829E+03	9.089641E-03	4.944129E-04
6.812775E+03	8.967498E-03	4.886253E-04
6.822721E+03	8.859456E-03	4.835820E-04
6.832666E+03	8.765008E-03	4.792593E-04
6.842612E+03	8.683615E-03	4.756316E-04
6.852558E+03	8.614837E-03	4.726785E-04
6.862503E+03	8.558019E-03	4.703676E-04
6.872449E+03	8.512622E-03	4.686726E-04
6.882395E+03	8.478210E-03	4.675727E-04
6.892340E+03	8.454149E-03	4.670361E-04
6.902286E+03	8.440036E-03	4.670432E-04
6.912232E+03	8.435273E-03	4.675637E-04
6.922177E+03	8.439393E-03	4.685744E-04
6.932123E+03	8.452041E-03	4.700578E-04
6.942069E+03	8.472784E-03	4.719922E-04
6.952014E+03	8.501000E-03	4.743452E-04
6.961960E+03	8.536604E-03	4.771139E-04
6.971906E+03	8.578908E-03	4.802619E-04
6.981851E+03	8.627758E-03	4.837824E-04
6.991797E+03	8.682808E-03	4.876576E-04
7.001742E+03	8.743508E-03	4.918582E-04
7.011688E+03	8.809744E-03	4.963794E-04
7.021634E+03	8.881096E-03	5.011988E-04
7.031579E+03	8.957354E-03	5.063059E-04
7.041525E+03	9.038114E-03	5.116791E-04
7.051471E+03	9.123057E-03	5.173014E-04
7.061416E+03	9.211886E-03	5.231570E-04
7.071362E+03	9.304294E-03	5.292294E-04
7.081308E+03	9.399960E-03	5.355013E-04
7.091253E+03	9.498707E-03	5.419633E-04
7.101199E+03	9.599984E-03	5.485847E-04
7.111145E+03	9.703707E-03	5.553611E-04
7.121090E+03	9.809325E-03	5.622618E-04
7.131036E+03	9.916645E-03	5.692760E-04
7.140982E+03	1.002547E-02	5.763929E-04
7.150927E+03	1.013525E-02	5.835807E-04
7.160873E+03	1.024581E-02	5.908298E-04
7.170819E+03	1.035684E-02	5.981224E-04
7.180764E+03	1.046807E-02	6.054433E-04
7.190710E+03	1.057909E-02	6.127682E-04
7.200656E+03	1.068992E-02	6.200981E-04
7.210601E+03	1.080006E-02	6.274042E-04
7.220547E+03	1.090942E-02	6.346811E-04
7.230493E+03	1.101768E-02	6.419097E-04
7.240438E+03	1.112495E-02	6.490962E-04
7.250384E+03	1.123083E-02	6.562163E-04
7.260330E+03	1.133532E-02	6.632709E-04
7.270275E+03	1.143837E-02	6.702553E-04
7.280221E+03	1.153975E-02	6.771567E-04
7.290167E+03	1.163973E-02	6.839903E-04
7.300112E+03	1.173788E-02	6.907298E-04
7.310058E+03	1.183466E-02	6.974021E-04
7.320004E+03	1.192996E-02	7.040008E-04
7.329949E+03	1.202370E-02	7.105201E-04
7.339895E+03	1.211612E-02	7.169746E-04
7.349840E+03	1.220717E-02	7.233601E-04
7.359786E+03	1.229711E-02	7.296926E-04
7.369732E+03	1.238608E-02	7.359797E-04
7.379677E+03	1.247389E-02	7.422097E-04
7.389623E+03	1.256101E-02	7.484101E-04
7.399569E+03	1.264723E-02	7.545691E-04
7.409514E+03	1.273286E-02	7.607042E-04
7.419460E+03	1.281802E-02	7.668232E-04
7.429406E+03	1.290299E-02	7.729425E-04
7.439351E+03	1.298771E-02	7.790576E-04
7.449297E+03	1.307225E-02	7.851737E-04
7.459243E+03	1.315682E-02	7.913035E-04
7.469188E+03	1.324129E-02	7.974383E-04
7.479134E+03	1.332563E-02	8.035769E-04
7.489080E+03	1.340995E-02	8.097261E-04
7.499025E+03	1.349399E-02	8.158699E-04
7.508971E+03	1.357777E-02	8.220094E-04
7.518917E+03	1.366073E-02	8.281112E-04
7.528862E+03	1.374298E-02	8.341811E-04
7.538808E+03	1.382403E-02	8.401896E-04
7.548754E+03	1.390351E-02	8.461138E-04
7.558699E+03	1.398101E-02	8.519285E-04
7.568645E+03	1.405605E-02	8.576041E-04
7.578591E+03	1.412811E-02	8.631080E-04
7.588536E+03	1.419642E-02	8.683932E-04
7.598482E+03	1.426077E-02	8.734450E-04
7.608428E+03	1.432032E-02	8.782115E-04
7.618373E+03	1.437420E-02	8.826386E-04
7.628319E+03	1.442193E-02	8.866950E-04
7.638265E+03	1.446281E-02	8.903369E-04
7.648210E+03	1.449617E-02	8.935205E-04
7.658156E+03	1.452133E-02	8.962028E-04
7.668101E+03	1.453744E-02	8.983300E-04
7.678047E+03	1.454410E-02	8.998740E-04
7.687993E+03	1.454073E-02	9.007977E-04
7.697938E+03	1.452682E-02	9.010674E-04
7.707884E+03	1.450193E-02	9.006524E-04
7.717830E+03	1.446547E-02	8.995141E-04
