#wls	flux	fluxerr
1.591305E+03	2.142150E-03	1.706849E-04
1.631088E+03	2.053402E-03	1.628960E-04
1.670870E+03	1.970706E-03	1.556343E-04
1.710653E+03	1.895196E-03	1.489836E-04
1.750436E+03	1.826008E-03	1.428704E-04
1.790218E+03	1.763720E-03	1.373337E-04
1.830001E+03	1.707445E-03	1.322984E-04
1.869784E+03	1.657954E-03	1.278181E-04
1.909566E+03	1.614304E-03	1.238134E-04
1.949349E+03	1.576499E-03	1.202786E-04
1.989131E+03	1.544178E-03	1.171802E-04
2.028914E+03	1.516951E-03	1.144825E-04
2.068697E+03	1.494697E-03	1.121706E-04
2.108479E+03	1.477078E-03	1.102135E-04
2.148262E+03	1.463997E-03	1.085985E-04
2.188045E+03	1.455425E-03	1.073178E-04
2.227827E+03	1.451580E-03	1.063813E-04
2.267610E+03	1.452103E-03	1.057565E-04
2.307392E+03	1.457152E-03	1.054488E-04
2.347175E+03	1.466867E-03	1.054615E-04
2.386958E+03	1.480867E-03	1.057606E-04
2.426740E+03	1.499052E-03	1.063324E-04
2.466523E+03	1.521896E-03	1.072037E-04
2.506306E+03	1.549136E-03	1.083488E-04
2.546088E+03	1.581116E-03	1.097840E-04
2.585871E+03	1.618271E-03	1.115316E-04
2.625653E+03	1.660540E-03	1.135785E-04
2.665436E+03	1.708482E-03	1.159537E-04
2.705219E+03	1.761972E-03	1.186386E-04
2.745001E+03	1.821209E-03	1.216367E-04
2.784784E+03	1.886491E-03	1.249570E-04
2.824567E+03	1.958224E-03	1.286148E-04
2.864349E+03	2.037223E-03	1.326511E-04
2.904132E+03	2.123837E-03	1.370744E-04
2.943914E+03	2.219715E-03	1.419758E-04
2.983697E+03	2.325735E-03	1.473928E-04
2.993643E+03	2.353756E-03	1.488208E-04
3.003588E+03	2.382714E-03	1.502987E-04
3.013534E+03	2.412624E-03	1.518269E-04
3.023480E+03	2.443187E-03	1.533862E-04
3.033425E+03	2.474415E-03	1.549768E-04
3.043371E+03	2.506635E-03	1.566191E-04
3.053317E+03	2.539545E-03	1.582936E-04
3.063262E+03	2.573478E-03	1.600207E-04
3.073208E+03	2.608449E-03	1.618008E-04
3.083154E+03	2.644476E-03	1.636345E-04
3.093099E+03	2.681250E-03	1.655024E-04
3.103045E+03	2.719112E-03	1.674247E-04
3.112991E+03	2.758079E-03	1.694023E-04
3.122936E+03	2.798169E-03	1.714355E-04
3.132882E+03	2.839400E-03	1.735249E-04
3.142828E+03	2.881791E-03	1.756711E-04
3.152773E+03	2.925695E-03	1.778951E-04
3.162719E+03	2.970464E-03	1.801566E-04
3.172665E+03	3.016788E-03	1.824970E-04
3.182610E+03	3.064352E-03	1.848965E-04
3.192556E+03	3.113174E-03	1.873556E-04
3.202502E+03	3.163618E-03	1.898954E-04
3.212447E+03	3.215709E-03	1.925167E-04
3.222393E+03	3.269123E-03	1.951993E-04
3.232339E+03	3.324229E-03	1.979644E-04
3.242284E+03	3.381051E-03	2.008126E-04
3.252230E+03	3.439258E-03	2.037234E-04
3.262175E+03	3.499578E-03	2.067391E-04
3.272121E+03	3.561322E-03	2.098181E-04
3.282067E+03	3.625223E-03	2.130026E-04
3.292012E+03	3.690944E-03	2.162718E-04
3.301958E+03	3.758499E-03	2.196256E-04
3.311904E+03	3.828265E-03	2.230850E-04
3.321849E+03	3.899890E-03	2.266284E-04
3.331795E+03	3.973747E-03	2.302765E-04
3.341741E+03	4.049468E-03	2.340068E-04
3.351686E+03	4.127796E-03	2.378611E-04
3.361632E+03	4.207973E-03	2.417946E-04
3.371578E+03	4.290736E-03	2.458484E-04
3.381523E+03	4.375300E-03	2.499765E-04
3.391469E+03	4.462392E-03	2.542192E-04
3.401415E+03	4.551582E-03	2.585509E-04
3.411360E+03	4.643199E-03	2.629890E-04
3.421306E+03	4.737178E-03	2.675285E-04
3.431252E+03	4.833049E-03	2.721418E-04
3.441197E+03	4.931111E-03	2.768447E-04
3.451143E+03	5.031276E-03	2.816309E-04
3.461089E+03	5.133856E-03	2.865169E-04
3.471034E+03	5.237983E-03	2.914531E-04
3.480980E+03	5.344397E-03	2.964796E-04
3.490926E+03	5.453044E-03	3.015922E-04
3.500871E+03	5.563853E-03	3.067859E-04
3.510817E+03	5.676352E-03	3.120335E-04
3.520763E+03	5.790852E-03	3.173511E-04
3.530708E+03	5.907660E-03	3.227545E-04
3.540654E+03	6.026254E-03	3.282139E-04
3.550600E+03	6.146494E-03	3.337208E-04
3.560545E+03	6.268652E-03	3.392890E-04
3.570491E+03	6.392570E-03	3.449090E-04
3.580436E+03	6.518086E-03	3.505710E-04
3.590382E+03	6.645027E-03	3.562647E-04
3.600328E+03	6.773224E-03	3.619805E-04
3.610273E+03	6.902936E-03	3.677312E-04
3.620219E+03	7.033580E-03	3.734852E-04
3.630165E+03	7.165445E-03	3.792571E-04
3.640110E+03	7.298413E-03	3.850400E-04
3.650056E+03	7.432400E-03	3.908289E-04
3.660002E+03	7.567773E-03	3.966423E-04
3.669947E+03	7.704093E-03	4.024565E-04
3.679893E+03	7.841801E-03	4.082940E-04
3.689839E+03	7.980546E-03	4.141357E-04
3.699784E+03	8.121260E-03	4.200291E-04
3.709730E+03	8.263653E-03	4.259583E-04
3.719676E+03	8.407879E-03	4.319303E-04
3.729621E+03	8.554509E-03	4.379732E-04
3.739567E+03	8.703294E-03	4.440731E-04
3.749513E+03	8.855201E-03	4.502778E-04
3.759458E+03	9.009496E-03	4.565486E-04
3.769404E+03	9.167057E-03	4.629285E-04
3.779350E+03	9.327431E-03	4.693929E-04
3.789295E+03	9.490494E-03	4.759340E-04
3.799241E+03	9.656404E-03	4.825584E-04
3.809187E+03	9.824790E-03	4.892459E-04
3.819132E+03	9.995545E-03	4.959901E-04
3.829078E+03	1.016721E-02	5.027172E-04
3.839024E+03	1.033937E-02	5.094070E-04
3.848969E+03	1.051152E-02	5.160335E-04
3.858915E+03	1.068257E-02	5.225440E-04
3.868861E+03	1.085097E-02	5.288636E-04
3.878806E+03	1.101588E-02	5.349527E-04
3.888752E+03	1.117642E-02	5.407705E-04
3.898698E+03	1.133051E-02	5.462191E-04
3.908643E+03	1.147731E-02	5.512619E-04
3.918589E+03	1.161566E-02	5.558473E-04
3.928534E+03	1.174494E-02	5.599496E-04
3.938480E+03	1.186350E-02	5.634965E-04
3.948426E+03	1.197184E-02	5.665169E-04
3.958371E+03	1.206841E-02	5.689434E-04
3.968317E+03	1.215380E-02	5.708099E-04
3.978263E+03	1.222810E-02	5.721267E-04
3.988208E+03	1.229132E-02	5.729000E-04
3.998154E+03	1.234406E-02	5.731649E-04
4.008100E+03	1.238721E-02	5.729668E-04
4.018045E+03	1.242215E-02	5.723757E-04
4.027991E+03	1.244978E-02	5.714368E-04
4.037937E+03	1.247147E-02	5.702172E-04
4.047882E+03	1.248837E-02	5.687722E-04
4.057828E+03	1.250264E-02	5.672027E-04
4.067774E+03	1.251517E-02	5.655510E-04
4.077719E+03	1.252751E-02	5.638873E-04
4.087665E+03	1.254143E-02	5.622911E-04
4.097611E+03	1.255770E-02	5.607968E-04
4.107556E+03	1.257792E-02	5.594742E-04
4.117502E+03	1.260296E-02	5.583604E-04
4.127448E+03	1.263360E-02	5.574867E-04
4.137393E+03	1.267128E-02	5.569139E-04
4.147339E+03	1.271593E-02	5.566356E-04
4.157285E+03	1.276817E-02	5.566756E-04
4.167230E+03	1.282874E-02	5.570618E-04
4.177176E+03	1.289718E-02	5.577707E-04
4.187122E+03	1.297425E-02	5.588305E-04
4.197067E+03	1.305927E-02	5.602084E-04
4.207013E+03	1.315250E-02	5.619116E-04
4.216959E+03	1.325336E-02	5.639114E-04
4.226904E+03	1.336172E-02	5.661981E-04
4.236850E+03	1.347687E-02	5.687394E-04
4.246796E+03	1.359861E-02	5.715224E-04
4.256741E+03	1.372643E-02	5.745239E-04
4.266687E+03	1.385962E-02	5.777109E-04
4.276632E+03	1.399771E-02	5.810617E-04
4.286578E+03	1.414027E-02	5.845566E-04
4.296524E+03	1.428690E-02	5.881774E-04
4.306469E+03	1.443680E-02	5.918898E-04
4.316415E+03	1.459018E-02	5.957010E-04
4.326361E+03	1.474617E-02	5.995744E-04
4.336306E+03	1.490517E-02	6.035259E-04
4.346252E+03	1.506639E-02	6.075226E-04
4.356198E+03	1.523072E-02	6.115995E-04
4.366143E+03	1.539849E-02	6.157687E-04
4.376089E+03	1.557009E-02	6.200456E-04
4.386035E+03	1.574595E-02	6.244452E-04
4.395980E+03	1.592666E-02	6.289895E-04
4.405926E+03	1.611278E-02	6.336981E-04
4.415872E+03	1.630468E-02	6.385831E-04
4.425817E+03	1.650251E-02	6.436485E-04
4.435763E+03	1.670588E-02	6.488755E-04
4.445709E+03	1.691469E-02	6.542583E-04
4.455654E+03	1.712773E-02	6.597480E-04
4.465600E+03	1.734376E-02	6.652951E-04
4.475546E+03	1.756129E-02	6.708413E-04
4.485491E+03	1.777787E-02	6.762927E-04
4.495437E+03	1.799127E-02	6.815658E-04
4.505383E+03	1.819840E-02	6.865452E-04
4.515328E+03	1.839581E-02	6.911048E-04
4.525274E+03	1.858006E-02	6.951202E-04
4.535220E+03	1.874785E-02	6.984750E-04
4.545165E+03	1.889544E-02	7.010376E-04
4.555111E+03	1.901973E-02	7.027038E-04
4.565057E+03	1.911752E-02	7.033660E-04
4.575002E+03	1.918631E-02	7.029449E-04
4.584948E+03	1.922471E-02	7.014033E-04
4.594894E+03	1.923108E-02	6.986951E-04
4.604839E+03	1.920529E-02	6.948306E-04
4.614785E+03	1.914801E-02	6.898483E-04
4.624730E+03	1.906027E-02	6.837989E-04
4.634676E+03	1.894402E-02	6.767664E-04
4.644622E+03	1.880241E-02	6.688746E-04
4.654567E+03	1.863814E-02	6.602311E-04
4.664513E+03	1.845503E-02	6.509804E-04
4.674459E+03	1.825694E-02	6.412660E-04
4.684404E+03	1.804784E-02	6.312330E-04
4.694350E+03	1.783143E-02	6.210155E-04
4.704296E+03	1.761194E-02	6.107624E-04
4.714241E+03	1.739245E-02	6.005818E-04
4.724187E+03	1.717595E-02	5.905758E-04
4.734133E+03	1.696542E-02	5.808451E-04
4.744078E+03	1.676277E-02	5.714522E-04
4.754024E+03	1.656988E-02	5.624567E-04
4.763970E+03	1.638813E-02	5.539009E-04
4.773915E+03	1.621824E-02	5.458043E-04
4.783861E+03	1.606050E-02	5.381709E-04
4.793807E+03	1.591514E-02	5.310036E-04
4.803752E+03	1.578130E-02	5.242681E-04
4.813698E+03	1.565853E-02	5.179443E-04
4.823644E+03	1.554554E-02	5.119852E-04
4.833589E+03	1.544103E-02	5.063440E-04
4.843535E+03	1.534373E-02	5.009755E-04
4.853481E+03	1.525173E-02	4.958145E-04
4.863426E+03	1.516364E-02	4.908144E-04
4.873372E+03	1.507797E-02	4.859249E-04
4.883318E+03	1.499296E-02	4.810893E-04
4.893263E+03	1.490776E-02	4.762798E-04
4.903209E+03	1.482121E-02	4.714600E-04
4.913155E+03	1.473263E-02	4.666091E-04
4.923100E+03	1.464150E-02	4.617113E-04
4.933046E+03	1.454776E-02	4.567667E-04
4.942991E+03	1.445193E-02	4.517920E-04
4.952937E+03	1.435433E-02	4.467987E-04
4.962883E+03	1.425625E-02	4.418275E-04
4.972828E+03	1.415863E-02	4.369080E-04
4.982774E+03	1.406296E-02	4.320856E-04
4.992720E+03	1.397107E-02	4.274158E-04
5.002665E+03	1.388458E-02	4.229471E-04
5.012611E+03	1.380550E-02	4.187382E-04
5.022557E+03	1.373555E-02	4.148386E-04
5.032502E+03	1.367655E-02	4.112997E-04
5.042448E+03	1.363023E-02	4.081696E-04
5.052394E+03	1.359822E-02	4.054922E-04
5.062339E+03	1.358211E-02	4.033102E-04
5.072285E+03	1.358290E-02	4.016471E-04
5.082231E+03	1.360193E-02	4.005371E-04
5.092176E+03	1.363977E-02	3.999909E-04
5.102122E+03	1.369733E-02	4.000289E-04
5.112068E+03	1.377484E-02	4.006515E-04
5.122013E+03	1.387244E-02	4.018567E-04
5.131959E+03	1.399000E-02	4.036346E-04
5.141905E+03	1.412715E-02	4.059691E-04
5.151850E+03	1.428342E-02	4.088413E-04
5.161796E+03	1.445765E-02	4.122131E-04
5.171742E+03	1.464905E-02	4.160578E-04
5.181687E+03	1.485617E-02	4.203303E-04
5.191633E+03	1.507752E-02	4.249858E-04
5.201579E+03	1.531163E-02	4.299801E-04
5.211524E+03	1.555643E-02	4.352538E-04
5.221470E+03	1.581042E-02	4.407642E-04
5.231416E+03	1.607164E-02	4.464564E-04
5.241361E+03	1.633851E-02	4.522871E-04
5.251307E+03	1.660903E-02	4.582027E-04
5.261253E+03	1.688211E-02	4.641743E-04
5.271198E+03	1.715635E-02	4.701662E-04
5.281144E+03	1.743100E-02	4.761608E-04
5.291089E+03	1.770508E-02	4.821341E-04
5.301035E+03	1.797869E-02	4.880924E-04
5.310981E+03	1.825169E-02	4.940354E-04
5.320926E+03	1.852447E-02	4.999766E-04
5.330872E+03	1.879784E-02	5.059418E-04
5.340818E+03	1.907222E-02	5.119454E-04
5.350763E+03	1.934889E-02	5.180254E-04
5.360709E+03	1.962831E-02	5.241970E-04
5.370655E+03	1.991155E-02	5.304920E-04
5.380600E+03	2.019876E-02	5.369174E-04
5.390546E+03	2.048952E-02	5.434659E-04
5.400492E+03	2.078342E-02	5.501295E-04
5.410437E+03	2.107838E-02	5.568571E-04
5.420383E+03	2.137225E-02	5.635964E-04
5.430329E+03	2.166232E-02	5.702800E-04
5.440274E+03	2.194523E-02	5.768248E-04
5.450220E+03	2.221748E-02	5.831436E-04
5.460166E+03	2.247472E-02	5.891259E-04
5.470111E+03	2.271259E-02	5.946605E-04
5.480057E+03	2.292651E-02	5.996307E-04
5.490003E+03	2.311242E-02	6.039326E-04
5.499948E+03	2.326703E-02	6.074832E-04
5.509894E+03	2.338762E-02	6.102132E-04
5.519840E+03	2.347271E-02	6.120851E-04
5.529785E+03	2.352144E-02	6.130776E-04
5.539731E+03	2.353489E-02	6.132187E-04
5.549677E+03	2.351436E-02	6.125422E-04
5.559622E+03	2.346329E-02	6.111357E-04
5.569568E+03	2.338558E-02	6.090997E-04
5.579514E+03	2.328553E-02	6.065439E-04
5.589459E+03	2.316899E-02	6.036178E-04
5.599405E+03	2.304167E-02	6.004679E-04
5.609351E+03	2.290923E-02	5.972386E-04
5.619296E+03	2.277742E-02	5.940775E-04
5.629242E+03	2.265189E-02	5.911293E-04
5.639187E+03	2.253734E-02	5.885147E-04
5.649133E+03	2.243822E-02	5.863484E-04
5.659079E+03	2.235750E-02	5.847067E-04
5.669024E+03	2.229813E-02	5.836659E-04
5.678970E+03	2.226162E-02	5.832654E-04
5.688916E+03	2.224823E-02	5.835118E-04
5.698861E+03	2.225738E-02	5.843908E-04
5.708807E+03	2.228744E-02	5.858599E-04
5.718753E+03	2.233579E-02	5.878505E-04
5.728698E+03	2.239883E-02	5.902689E-04
5.738644E+03	2.247235E-02	5.930042E-04
5.748590E+03	2.255071E-02	5.959078E-04
5.758535E+03	2.262841E-02	5.988338E-04
5.768481E+03	2.269934E-02	6.016191E-04
5.778427E+03	2.275724E-02	6.040958E-04
5.788372E+03	2.279572E-02	6.060918E-04
5.798318E+03	2.280920E-02	6.074547E-04
5.808264E+03	2.279248E-02	6.080417E-04
5.818209E+03	2.274076E-02	6.077189E-04
5.828155E+03	2.265116E-02	6.064034E-04
5.838101E+03	2.252133E-02	6.040255E-04
5.848046E+03	2.235043E-02	6.005553E-04
5.857992E+03	2.213895E-02	5.959981E-04
5.867938E+03	2.188860E-02	5.903930E-04
5.877883E+03	2.160210E-02	5.838052E-04
5.887829E+03	2.128333E-02	5.763331E-04
5.897775E+03	2.093722E-02	5.681033E-04
5.907720E+03	2.056885E-02	5.592480E-04
5.917666E+03	2.018365E-02	5.499097E-04
5.927612E+03	1.978756E-02	5.402466E-04
5.937557E+03	1.938605E-02	5.304044E-04
5.947503E+03	1.898449E-02	5.205285E-04
5.957449E+03	1.858784E-02	5.107537E-04
5.967394E+03	1.820053E-02	5.012015E-04
5.977340E+03	1.782622E-02	4.919737E-04
5.987285E+03	1.746796E-02	4.831555E-04
5.997231E+03	1.712847E-02	4.748246E-04
6.007177E+03	1.680972E-02	4.670379E-04
6.017122E+03	1.651271E-02	4.598268E-04
6.027068E+03	1.623845E-02	4.532226E-04
6.037014E+03	1.598697E-02	4.472294E-04
6.046959E+03	1.575834E-02	4.418536E-04
6.056905E+03	1.555199E-02	4.370824E-04
6.066851E+03	1.536718E-02	4.328996E-04
6.076796E+03	1.520283E-02	4.292780E-04
6.086742E+03	1.505766E-02	4.261852E-04
6.096688E+03	1.493044E-02	4.235897E-04
6.106633E+03	1.481985E-02	4.214577E-04
6.116579E+03	1.472455E-02	4.197539E-04
6.126525E+03	1.464308E-02	4.184395E-04
6.136470E+03	1.457434E-02	4.174856E-04
6.146416E+03	1.451712E-02	4.168606E-04
6.156362E+03	1.447053E-02	4.165406E-04
6.166307E+03	1.443365E-02	4.165013E-04
6.176253E+03	1.440558E-02	4.167189E-04
6.186199E+03	1.438599E-02	4.171859E-04
6.196144E+03	1.437433E-02	4.178876E-04
6.206090E+03	1.437033E-02	4.188185E-04
6.216036E+03	1.437430E-02	4.199889E-04
6.225981E+03	1.438597E-02	4.213933E-04
6.235927E+03	1.440562E-02	4.230412E-04
6.245873E+03	1.443358E-02	4.249444E-04
6.255818E+03	1.447036E-02	4.271204E-04
6.265764E+03	1.451593E-02	4.295699E-04
6.275710E+03	1.457062E-02	4.323046E-04
6.285655E+03	1.463484E-02	4.353383E-04
6.295601E+03	1.470842E-02	4.386679E-04
6.305546E+03	1.479152E-02	4.422990E-04
6.315492E+03	1.488345E-02	4.462132E-04
6.325438E+03	1.498390E-02	4.504023E-04
6.335383E+03	1.509198E-02	4.548410E-04
6.345329E+03	1.520662E-02	4.594984E-04
6.355275E+03	1.532612E-02	4.643237E-04
6.365220E+03	1.544867E-02	4.692626E-04
6.375166E+03	1.557204E-02	4.742473E-04
6.385112E+03	1.569324E-02	4.791859E-04
6.395057E+03	1.580893E-02	4.839755E-04
6.405003E+03	1.591568E-02	4.885082E-04
6.414949E+03	1.600914E-02	4.926476E-04
6.424894E+03	1.608505E-02	4.962588E-04
6.434840E+03	1.613941E-02	4.992132E-04
6.444786E+03	1.616898E-02	5.014043E-04
6.454731E+03	1.617094E-02	5.027378E-04
6.464677E+03	1.614213E-02	5.031086E-04
6.474623E+03	1.608059E-02	5.024477E-04
6.484568E+03	1.598397E-02	5.006730E-04
6.494514E+03	1.585104E-02	4.977373E-04
6.504460E+03	1.568114E-02	4.936111E-04
6.514405E+03	1.547428E-02	4.882859E-04
6.524351E+03	1.523168E-02	4.817918E-04
6.534297E+03	1.495513E-02	4.741769E-04
6.544242E+03	1.464753E-02	4.655259E-04
6.554188E+03	1.431237E-02	4.559428E-04
6.564134E+03	1.395370E-02	4.455513E-04
6.574079E+03	1.357587E-02	4.344852E-04
6.584025E+03	1.318392E-02	4.229026E-04
6.593971E+03	1.278254E-02	4.109516E-04
6.603916E+03	1.237650E-02	3.987841E-04
6.613862E+03	1.197035E-02	3.865470E-04
6.623808E+03	1.156845E-02	3.743813E-04
6.633753E+03	1.117449E-02	3.624086E-04
6.643699E+03	1.079192E-02	3.507433E-04
6.653644E+03	1.042358E-02	3.394811E-04
6.663590E+03	1.007169E-02	3.286976E-04
6.673536E+03	9.738193E-03	3.184605E-04
6.683481E+03	9.424459E-03	3.088190E-04
6.693427E+03	9.131304E-03	2.998045E-04
6.703373E+03	8.859512E-03	2.914473E-04
6.713318E+03	8.609088E-03	2.837523E-04
6.723264E+03	8.380090E-03	2.767259E-04
6.733210E+03	8.172320E-03	2.703661E-04
6.743155E+03	7.985107E-03	2.646550E-04
6.753101E+03	7.817932E-03	2.595796E-04
6.763047E+03	7.670045E-03	2.551188E-04
6.772992E+03	7.540638E-03	2.512495E-04
6.782938E+03	7.428825E-03	2.479456E-04
6.792884E+03	7.333701E-03	2.451802E-04
6.802829E+03	7.254328E-03	2.429247E-04
6.812775E+03	7.189867E-03	2.411538E-04
6.822721E+03	7.139202E-03	2.398327E-04
6.832666E+03	7.101526E-03	2.389365E-04
6.842612E+03	7.076013E-03	2.384395E-04
6.852558E+03	7.061642E-03	2.383090E-04
6.862503E+03	7.057761E-03	2.385250E-04
6.872449E+03	7.063410E-03	2.390563E-04
6.882395E+03	7.078023E-03	2.398851E-04
6.892340E+03	7.100818E-03	2.409863E-04
6.902286E+03	7.131163E-03	2.423393E-04
6.912232E+03	7.168376E-03	2.439220E-04
6.922177E+03	7.212101E-03	2.457230E-04
6.932123E+03	7.261850E-03	2.477265E-04
6.942069E+03	7.317031E-03	2.499129E-04
6.952014E+03	7.377355E-03	2.522730E-04
6.961960E+03	7.442487E-03	2.547957E-04
6.971906E+03	7.512233E-03	2.574749E-04
6.981851E+03	7.586153E-03	2.602959E-04
6.991797E+03	7.664211E-03	2.632578E-04
7.001742E+03	7.746098E-03	2.663503E-04
7.011688E+03	7.831520E-03	2.695637E-04
7.021634E+03	7.920489E-03	2.728985E-04
7.031579E+03	8.012694E-03	2.763443E-04
7.041525E+03	8.107929E-03	2.798942E-04
7.051471E+03	8.205969E-03	2.835407E-04
7.061416E+03	8.306553E-03	2.872748E-04
7.071362E+03	8.409412E-03	2.910874E-04
7.081308E+03	8.514335E-03	2.949714E-04
7.091253E+03	8.620786E-03	2.989082E-04
7.101199E+03	8.728498E-03	3.028886E-04
7.111145E+03	8.837204E-03	3.069035E-04
7.121090E+03	8.946391E-03	3.109351E-04
7.131036E+03	9.055643E-03	3.149689E-04
7.140982E+03	9.164536E-03	3.189902E-04
7.150927E+03	9.272641E-03	3.229840E-04
7.160873E+03	9.379682E-03	3.269408E-04
7.170819E+03	9.485015E-03	3.308380E-04
7.180764E+03	9.588520E-03	3.346714E-04
7.190710E+03	9.689743E-03	3.384251E-04
7.200656E+03	9.788512E-03	3.420932E-04
7.210601E+03	9.884450E-03	3.456624E-04
7.220547E+03	9.977362E-03	3.491259E-04
7.230493E+03	1.006722E-02	3.524827E-04
7.240438E+03	1.015378E-02	3.557246E-04
7.250384E+03	1.023701E-02	3.588500E-04
7.260330E+03	1.031700E-02	3.618627E-04
7.270275E+03	1.039382E-02	3.647647E-04
7.280221E+03	1.046736E-02	3.675530E-04
7.290167E+03	1.053788E-02	3.702362E-04
7.300112E+03	1.060535E-02	3.728136E-04
7.310058E+03	1.067004E-02	3.752951E-04
7.320004E+03	1.073209E-02	3.776858E-04
7.329949E+03	1.079151E-02	3.799864E-04
7.339895E+03	1.084860E-02	3.822078E-04
7.349840E+03	1.090352E-02	3.843558E-04
7.359786E+03	1.095629E-02	3.864316E-04
7.369732E+03	1.100721E-02	3.884460E-04
7.379677E+03	1.105659E-02	3.904108E-04
7.389623E+03	1.110447E-02	3.923275E-04
7.399569E+03	1.115102E-02	3.942029E-04
7.409514E+03	1.119660E-02	3.960498E-04
7.419460E+03	1.124126E-02	3.978708E-04
7.429406E+03	1.128506E-02	3.996683E-04
7.439351E+03	1.132853E-02	4.014620E-04
7.449297E+03	1.137143E-02	4.032440E-04
7.459243E+03	1.141431E-02	4.050343E-04
7.469188E+03	1.145722E-02	4.068354E-04
7.479134E+03	1.150053E-02	4.086611E-04
7.489080E+03	1.154409E-02	4.105070E-04
7.499025E+03	1.158837E-02	4.123903E-04
7.508971E+03	1.163330E-02	4.143095E-04
7.518917E+03	1.167875E-02	4.162607E-04
7.528862E+03	1.172500E-02	4.182549E-04
7.538808E+03	1.177162E-02	4.202775E-04
7.548754E+03	1.181856E-02	4.223279E-04
7.558699E+03	1.186554E-02	4.243963E-04
7.568645E+03	1.191214E-02	4.264692E-04
7.578591E+03	1.195773E-02	4.285244E-04
7.588536E+03	1.200172E-02	4.305417E-04
7.598482E+03	1.204374E-02	4.325089E-04
7.608428E+03	1.208258E-02	4.343822E-04
7.618373E+03	1.211772E-02	4.361445E-04
7.628319E+03	1.214830E-02	4.377646E-04
7.638265E+03	1.217327E-02	4.392053E-04
7.648210E+03	1.219173E-02	4.404341E-04
7.658156E+03	1.220297E-02	4.414250E-04
7.668101E+03	1.220599E-02	4.421418E-04
7.678047E+03	1.220002E-02	4.425561E-04
7.687993E+03	1.218457E-02	4.426492E-04
7.697938E+03	1.215889E-02	4.423935E-04
7.707884E+03	1.212272E-02	4.417777E-04
7.717830E+03	1.207559E-02	4.407841E-04
