#wls	flux	fluxerr
1.591305E+03	1.637230E-03	1.348384E-04
1.631088E+03	1.586141E-03	1.298556E-04
1.670870E+03	1.538577E-03	1.251956E-04
1.710653E+03	1.494220E-03	1.208285E-04
1.750436E+03	1.453591E-03	1.167926E-04
1.790218E+03	1.416317E-03	1.130534E-04
1.830001E+03	1.382297E-03	1.095985E-04
1.869784E+03	1.351414E-03	1.064145E-04
1.909566E+03	1.324036E-03	1.035258E-04
1.949349E+03	1.299497E-03	1.008756E-04
1.989131E+03	1.278135E-03	9.848595E-05
2.028914E+03	1.259319E-03	9.630369E-05
2.068697E+03	1.243639E-03	9.436970E-05
2.108479E+03	1.230529E-03	9.263627E-05
2.148262E+03	1.220125E-03	9.110921E-05
2.188045E+03	1.212579E-03	8.979534E-05
2.227827E+03	1.207633E-03	8.867052E-05
2.267610E+03	1.205709E-03	8.776054E-05
2.307392E+03	1.206375E-03	8.702830E-05
2.347175E+03	1.210077E-03	8.650055E-05
2.386958E+03	1.217059E-03	8.618828E-05
2.426740E+03	1.226956E-03	8.605909E-05
2.466523E+03	1.240489E-03	8.615668E-05
2.506306E+03	1.257578E-03	8.646759E-05
2.546088E+03	1.278612E-03	8.701037E-05
2.585871E+03	1.304043E-03	8.780629E-05
2.625653E+03	1.334164E-03	8.886475E-05
2.665436E+03	1.369297E-03	9.019583E-05
2.705219E+03	1.409858E-03	9.181453E-05
2.745001E+03	1.455896E-03	9.371073E-05
2.784784E+03	1.507738E-03	9.589157E-05
2.824567E+03	1.566008E-03	9.838148E-05
2.864349E+03	1.631420E-03	1.012085E-04
2.904132E+03	1.704345E-03	1.043768E-04
2.943914E+03	1.786164E-03	1.079502E-04
2.983697E+03	1.877473E-03	1.119412E-04
2.993643E+03	1.901916E-03	1.130091E-04
3.003588E+03	1.927170E-03	1.141140E-04
3.013534E+03	1.953252E-03	1.152562E-04
3.023480E+03	1.979937E-03	1.164222E-04
3.033425E+03	2.007480E-03	1.176262E-04
3.043371E+03	2.035897E-03	1.188688E-04
3.053317E+03	2.064963E-03	1.201363E-04
3.063262E+03	2.095181E-03	1.214573E-04
3.073208E+03	2.126083E-03	1.228042E-04
3.083154E+03	2.157934E-03	1.241915E-04
3.093099E+03	2.190752E-03	1.256198E-04
3.103045E+03	2.224561E-03	1.270897E-04
3.112991E+03	2.259633E-03	1.286161E-04
3.122936E+03	2.295492E-03	1.301711E-04
3.132882E+03	2.332667E-03	1.317841E-04
3.142828E+03	2.370932E-03	1.334414E-04
3.152773E+03	2.410315E-03	1.351439E-04
3.162719E+03	2.451101E-03	1.369068E-04
3.172665E+03	2.493327E-03	1.387310E-04
3.182610E+03	2.536504E-03	1.405886E-04
3.192556E+03	2.581450E-03	1.425241E-04
3.202502E+03	2.627678E-03	1.445095E-04
3.212447E+03	2.675493E-03	1.465606E-04
3.222393E+03	2.724937E-03	1.486785E-04
3.232339E+03	2.775784E-03	1.508500E-04
3.242284E+03	2.828622E-03	1.531058E-04
3.252230E+03	2.883230E-03	1.554327E-04
3.262175E+03	2.939385E-03	1.578175E-04
3.272121E+03	2.997971E-03	1.603064E-04
3.282067E+03	3.058218E-03	1.628567E-04
3.292012E+03	3.120745E-03	1.655002E-04
3.301958E+03	3.185339E-03	1.682239E-04
3.311904E+03	3.252357E-03	1.710453E-04
3.321849E+03	3.321878E-03	1.739668E-04
3.331795E+03	3.393696E-03	1.769759E-04
3.341741E+03	3.468189E-03	1.800908E-04
3.351686E+03	3.545752E-03	1.833299E-04
3.361632E+03	3.625897E-03	1.866660E-04
3.371578E+03	3.709033E-03	1.901183E-04
3.381523E+03	3.795575E-03	1.937060E-04
3.391469E+03	3.885627E-03	1.974319E-04
3.401415E+03	3.978669E-03	2.012673E-04
3.411360E+03	4.075724E-03	2.052618E-04
3.421306E+03	4.176254E-03	2.093855E-04
3.431252E+03	4.280654E-03	2.136558E-04
3.441197E+03	4.389012E-03	2.180743E-04
3.451143E+03	4.501398E-03	2.226418E-04
3.461089E+03	4.618221E-03	2.273757E-04
3.471034E+03	4.739252E-03	2.322616E-04
3.480980E+03	4.864560E-03	2.373001E-04
3.490926E+03	4.994548E-03	2.425077E-04
3.500871E+03	5.128920E-03	2.478669E-04
3.510817E+03	5.268296E-03	2.534045E-04
3.520763E+03	5.412225E-03	2.590955E-04
3.530708E+03	5.560548E-03	2.649291E-04
3.540654E+03	5.712961E-03	2.708879E-04
3.550600E+03	5.869450E-03	2.769685E-04
3.560545E+03	6.029233E-03	2.831314E-04
3.570491E+03	6.192117E-03	2.893652E-04
3.580436E+03	6.357482E-03	2.956390E-04
3.590382E+03	6.524638E-03	3.019190E-04
3.600328E+03	6.692728E-03	3.081646E-04
3.610273E+03	6.861180E-03	3.143490E-04
3.620219E+03	7.028591E-03	3.204078E-04
3.630165E+03	7.194126E-03	3.263040E-04
3.640110E+03	7.356127E-03	3.319640E-04
3.650056E+03	7.514044E-03	3.373655E-04
3.660002E+03	7.666131E-03	3.424335E-04
3.669947E+03	7.811050E-03	3.471124E-04
3.679893E+03	7.947725E-03	3.513597E-04
3.689839E+03	8.076238E-03	3.551848E-04
3.699784E+03	8.196659E-03	3.585964E-04
3.709730E+03	8.309658E-03	3.616292E-04
3.719676E+03	8.417405E-03	3.643826E-04
3.729621E+03	8.522746E-03	3.669826E-04
3.739567E+03	8.628865E-03	3.695674E-04
3.749513E+03	8.739805E-03	3.723089E-04
3.759458E+03	8.859150E-03	3.753557E-04
3.769404E+03	8.991197E-03	3.788832E-04
3.779350E+03	9.139234E-03	3.830205E-04
3.789295E+03	9.306425E-03	3.878887E-04
3.799241E+03	9.495612E-03	3.935925E-04
3.809187E+03	9.708253E-03	4.001771E-04
3.819132E+03	9.945656E-03	4.076802E-04
3.829078E+03	1.020779E-02	4.160834E-04
3.839024E+03	1.049371E-02	4.253325E-04
3.848969E+03	1.080081E-02	4.353054E-04
3.858915E+03	1.112624E-02	4.458744E-04
3.868861E+03	1.146454E-02	4.568091E-04
3.878806E+03	1.180970E-02	4.678638E-04
3.888752E+03	1.215479E-02	4.787607E-04
3.898698E+03	1.249099E-02	4.891551E-04
3.908643E+03	1.280990E-02	4.987267E-04
3.918589E+03	1.310248E-02	5.071378E-04
3.928534E+03	1.336025E-02	5.140810E-04
3.938480E+03	1.357644E-02	5.193209E-04
3.948426E+03	1.374366E-02	5.226062E-04
3.958371E+03	1.385862E-02	5.238454E-04
3.968317E+03	1.391931E-02	5.229994E-04
3.978263E+03	1.392516E-02	5.200842E-04
3.988208E+03	1.387969E-02	5.152677E-04
3.998154E+03	1.378742E-02	5.087516E-04
4.008100E+03	1.365489E-02	5.008073E-04
4.018045E+03	1.348914E-02	4.917188E-04
4.027991E+03	1.329900E-02	4.818285E-04
4.037937E+03	1.309289E-02	4.714553E-04
4.047882E+03	1.287824E-02	4.608765E-04
4.057828E+03	1.266243E-02	4.503597E-04
4.067774E+03	1.245212E-02	4.401415E-04
4.077719E+03	1.225235E-02	4.303947E-04
4.087665E+03	1.206770E-02	4.212728E-04
4.097611E+03	1.190209E-02	4.129012E-04
4.107556E+03	1.175781E-02	4.053471E-04
4.117502E+03	1.163689E-02	3.986657E-04
4.127448E+03	1.154048E-02	3.928814E-04
4.137393E+03	1.146885E-02	3.879876E-04
4.147339E+03	1.142178E-02	3.839612E-04
4.157285E+03	1.139818E-02	3.807500E-04
4.167230E+03	1.139647E-02	3.782879E-04
4.177176E+03	1.141474E-02	3.764974E-04
4.187122E+03	1.145050E-02	3.752856E-04
4.197067E+03	1.150091E-02	3.745491E-04
4.207013E+03	1.156216E-02	3.741565E-04
4.216959E+03	1.163142E-02	3.740104E-04
4.226904E+03	1.170482E-02	3.739834E-04
4.236850E+03	1.177866E-02	3.739560E-04
4.246796E+03	1.184929E-02	3.738134E-04
4.256741E+03	1.191332E-02	3.734524E-04
4.266687E+03	1.196758E-02	3.727791E-04
4.276632E+03	1.200871E-02	3.716957E-04
4.286578E+03	1.203480E-02	3.701519E-04
4.296524E+03	1.204454E-02	3.681173E-04
4.306469E+03	1.203724E-02	3.655813E-04
4.316415E+03	1.201369E-02	3.625775E-04
4.326361E+03	1.197553E-02	3.591650E-04
4.336306E+03	1.192519E-02	3.554250E-04
4.346252E+03	1.186673E-02	3.514845E-04
4.356198E+03	1.180614E-02	3.475249E-04
4.366143E+03	1.174909E-02	3.437132E-04
4.376089E+03	1.170051E-02	3.401911E-04
4.386035E+03	1.166501E-02	3.370870E-04
4.395980E+03	1.164828E-02	3.345571E-04
4.405926E+03	1.166001E-02	3.328686E-04
4.415872E+03	1.171126E-02	3.323206E-04
4.425817E+03	1.181301E-02	3.332025E-04
4.435763E+03	1.197184E-02	3.356743E-04
4.445709E+03	1.219392E-02	3.398793E-04
4.455654E+03	1.248498E-02	3.459460E-04
4.465600E+03	1.284704E-02	3.538963E-04
4.475546E+03	1.328127E-02	3.637294E-04
4.485491E+03	1.378729E-02	3.754010E-04
4.495437E+03	1.436047E-02	3.887537E-04
4.505383E+03	1.499284E-02	4.035430E-04
4.515328E+03	1.567394E-02	4.194632E-04
4.525274E+03	1.638789E-02	4.360716E-04
4.535220E+03	1.711461E-02	4.528231E-04
4.545165E+03	1.783008E-02	4.690823E-04
4.555111E+03	1.850859E-02	4.841834E-04
4.565057E+03	1.912127E-02	4.973927E-04
4.575002E+03	1.963904E-02	5.079883E-04
4.584948E+03	2.003901E-02	5.154234E-04
4.594894E+03	2.030142E-02	5.192438E-04
4.604839E+03	2.041225E-02	5.191522E-04
4.614785E+03	2.036982E-02	5.151701E-04
4.624730E+03	2.017990E-02	5.075072E-04
4.634676E+03	1.985506E-02	4.965385E-04
4.644622E+03	1.941602E-02	4.828347E-04
4.654567E+03	1.888810E-02	4.670681E-04
4.664513E+03	1.829715E-02	4.499091E-04
4.674459E+03	1.767008E-02	4.320409E-04
4.684404E+03	1.703278E-02	4.141052E-04
4.694350E+03	1.640713E-02	3.966340E-04
4.704296E+03	1.581003E-02	3.800269E-04
4.714241E+03	1.525500E-02	3.645944E-04
4.724187E+03	1.475242E-02	3.505639E-04
4.734133E+03	1.430798E-02	3.380479E-04
4.744078E+03	1.392509E-02	3.271015E-04
4.754024E+03	1.360615E-02	3.177547E-04
4.763970E+03	1.335045E-02	3.099644E-04
4.773915E+03	1.315698E-02	3.036810E-04
4.783861E+03	1.302372E-02	2.988320E-04
4.793807E+03	1.294768E-02	2.953242E-04
4.803752E+03	1.292521E-02	2.930511E-04
4.813698E+03	1.295251E-02	2.919050E-04
4.823644E+03	1.302487E-02	2.917597E-04
4.833589E+03	1.313710E-02	2.924805E-04
4.843535E+03	1.328293E-02	2.939124E-04
4.853481E+03	1.345438E-02	2.958656E-04
4.863426E+03	1.364194E-02	2.981214E-04
4.873372E+03	1.383501E-02	3.004431E-04
4.883318E+03	1.402021E-02	3.025392E-04
4.893263E+03	1.418312E-02	3.041035E-04
4.903209E+03	1.430973E-02	3.048465E-04
4.913155E+03	1.438952E-02	3.045605E-04
4.923100E+03	1.441377E-02	3.030816E-04
4.933046E+03	1.437611E-02	3.002997E-04
4.942991E+03	1.427790E-02	2.962687E-04
4.952937E+03	1.412336E-02	2.911011E-04
4.962883E+03	1.391886E-02	2.849512E-04
4.972828E+03	1.367443E-02	2.780439E-04
4.982774E+03	1.340192E-02	2.706356E-04
4.992720E+03	1.311277E-02	2.629678E-04
5.002665E+03	1.281830E-02	2.552735E-04
5.012611E+03	1.252950E-02	2.477726E-04
5.022557E+03	1.225602E-02	2.406529E-04
5.032502E+03	1.200575E-02	2.340619E-04
5.042448E+03	1.178549E-02	2.281222E-04
5.052394E+03	1.160103E-02	2.229329E-04
5.062339E+03	1.145580E-02	2.185451E-04
5.072285E+03	1.135259E-02	2.149955E-04
5.082231E+03	1.129397E-02	2.123158E-04
5.092176E+03	1.128178E-02	2.105221E-04
5.102122E+03	1.131791E-02	2.096310E-04
5.112068E+03	1.140405E-02	2.096541E-04
5.122013E+03	1.154134E-02	2.105927E-04
5.131959E+03	1.173081E-02	2.124454E-04
5.141905E+03	1.197311E-02	2.152037E-04
5.151850E+03	1.226755E-02	2.188356E-04
5.161796E+03	1.261273E-02	2.232964E-04
5.171742E+03	1.300640E-02	2.285286E-04
5.181687E+03	1.344488E-02	2.344509E-04
5.191633E+03	1.392279E-02	2.409551E-04
5.201579E+03	1.443362E-02	2.479172E-04
5.211524E+03	1.496930E-02	2.551903E-04
5.221470E+03	1.552010E-02	2.626040E-04
5.231416E+03	1.607499E-02	2.699718E-04
5.241361E+03	1.662271E-02	2.771092E-04
5.251307E+03	1.715087E-02	2.838188E-04
5.261253E+03	1.764639E-02	2.898982E-04
5.271198E+03	1.809904E-02	2.951975E-04
5.281144E+03	1.849836E-02	2.995684E-04
5.291089E+03	1.883638E-02	3.029062E-04
5.301035E+03	1.911186E-02	3.052174E-04
5.310981E+03	1.932643E-02	3.065534E-04
5.320926E+03	1.948441E-02	3.070071E-04
5.330872E+03	1.959598E-02	3.067597E-04
5.340818E+03	1.967409E-02	3.060311E-04
5.350763E+03	1.973296E-02	3.050547E-04
5.360709E+03	1.979007E-02	3.041083E-04
5.370655E+03	1.986343E-02	3.034715E-04
5.380600E+03	1.997210E-02	3.034332E-04
5.390546E+03	2.013669E-02	3.043001E-04
5.400492E+03	2.037865E-02	3.063862E-04
5.410437E+03	2.071803E-02	3.099795E-04
5.420383E+03	2.116949E-02	3.152847E-04
5.430329E+03	2.172058E-02	3.221029E-04
5.440274E+03	2.233633E-02	3.299086E-04
5.450220E+03	2.298180E-02	3.381865E-04
5.460166E+03	2.361835E-02	3.463720E-04
5.470111E+03	2.420396E-02	3.538570E-04
5.480057E+03	2.470043E-02	3.600956E-04
5.490003E+03	2.507020E-02	3.645547E-04
5.499948E+03	2.527932E-02	3.667561E-04
5.509894E+03	2.530849E-02	3.664343E-04
5.519840E+03	2.514602E-02	3.634320E-04
5.529785E+03	2.478943E-02	3.577225E-04
5.539731E+03	2.425225E-02	3.495053E-04
5.549677E+03	2.355575E-02	3.390879E-04
5.559622E+03	2.272795E-02	3.268704E-04
5.569568E+03	2.180636E-02	3.133860E-04
5.579514E+03	2.083045E-02	2.991937E-04
5.589459E+03	1.983637E-02	2.848027E-04
5.599405E+03	1.885940E-02	2.707096E-04
5.609351E+03	1.792989E-02	2.573405E-04
5.619296E+03	1.707226E-02	2.450373E-04
5.629242E+03	1.630498E-02	2.340578E-04
5.639187E+03	1.564207E-02	2.245974E-04
5.649133E+03	1.509500E-02	2.168169E-04
5.659079E+03	1.467109E-02	2.108188E-04
5.669024E+03	1.437714E-02	2.066995E-04
5.678970E+03	1.421905E-02	2.045437E-04
5.688916E+03	1.419828E-02	2.043738E-04
5.698861E+03	1.431746E-02	2.062294E-04
5.708807E+03	1.457828E-02	2.101377E-04
5.718753E+03	1.497486E-02	2.160170E-04
5.728698E+03	1.549916E-02	2.237547E-04
5.738644E+03	1.614127E-02	2.332111E-04
5.748590E+03	1.688612E-02	2.441714E-04
5.758535E+03	1.771288E-02	2.563368E-04
5.768481E+03	1.859580E-02	2.693362E-04
5.778427E+03	1.950361E-02	2.827171E-04
5.788372E+03	2.039824E-02	2.959269E-04
5.798318E+03	2.123717E-02	3.083463E-04
5.808264E+03	2.198215E-02	3.194163E-04
5.818209E+03	2.259499E-02	3.285770E-04
5.828155E+03	2.304121E-02	3.353211E-04
5.838101E+03	2.330074E-02	3.393497E-04
5.848046E+03	2.336160E-02	3.404816E-04
5.857992E+03	2.322132E-02	3.386742E-04
5.867938E+03	2.289178E-02	3.340947E-04
5.877883E+03	2.239290E-02	3.270288E-04
5.887829E+03	2.175112E-02	3.178588E-04
5.897775E+03	2.099890E-02	3.070561E-04
5.907720E+03	2.017146E-02	2.951341E-04
5.917666E+03	1.930194E-02	2.825774E-04
5.927612E+03	1.842110E-02	2.698366E-04
5.937557E+03	1.755635E-02	2.573143E-04
5.947503E+03	1.672972E-02	2.453354E-04
5.957449E+03	1.595735E-02	2.341385E-04
5.967394E+03	1.525095E-02	2.238982E-04
5.977340E+03	1.461902E-02	2.147416E-04
5.987285E+03	1.406408E-02	2.067085E-04
5.997231E+03	1.358634E-02	1.998049E-04
6.007177E+03	1.318513E-02	1.940235E-04
6.017122E+03	1.285626E-02	1.893058E-04
6.027068E+03	1.259501E-02	1.855849E-04
6.037014E+03	1.239658E-02	1.827928E-04
6.046959E+03	1.225438E-02	1.808353E-04
6.056905E+03	1.216200E-02	1.796208E-04
6.066851E+03	1.211279E-02	1.790539E-04
6.076796E+03	1.210044E-02	1.790443E-04
6.086742E+03	1.211842E-02	1.794984E-04
6.096688E+03	1.216020E-02	1.803223E-04
6.106633E+03	1.222003E-02	1.814337E-04
6.116579E+03	1.229153E-02	1.827405E-04
6.126525E+03	1.236893E-02	1.841600E-04
6.136470E+03	1.244622E-02	1.856046E-04
6.146416E+03	1.251749E-02	1.869884E-04
6.156362E+03	1.257703E-02	1.882279E-04
6.166307E+03	1.261987E-02	1.892497E-04
6.176253E+03	1.264151E-02	1.899867E-04
6.186199E+03	1.263835E-02	1.903845E-04
6.196144E+03	1.260895E-02	1.904208E-04
6.206090E+03	1.255313E-02	1.900914E-04
6.216036E+03	1.247199E-02	1.894108E-04
6.225981E+03	1.237086E-02	1.884580E-04
6.235927E+03	1.225624E-02	1.873303E-04
6.245873E+03	1.213507E-02	1.861323E-04
6.255818E+03	1.201541E-02	1.849877E-04
6.265764E+03	1.190573E-02	1.840274E-04
6.275710E+03	1.181359E-02	1.833688E-04
6.285655E+03	1.174507E-02	1.831074E-04
6.295601E+03	1.170517E-02	1.833238E-04
6.305546E+03	1.169844E-02	1.840936E-04
6.315492E+03	1.172659E-02	1.854494E-04
6.325438E+03	1.179053E-02	1.874120E-04
6.335383E+03	1.189072E-02	1.899964E-04
6.345329E+03	1.202637E-02	1.931974E-04
6.355275E+03	1.219610E-02	1.970013E-04
6.365220E+03	1.239825E-02	2.013891E-04
6.375166E+03	1.263207E-02	2.063568E-04
6.385112E+03	1.289625E-02	2.118908E-04
6.395057E+03	1.319043E-02	2.179934E-04
6.405003E+03	1.351766E-02	2.247231E-04
6.414949E+03	1.388212E-02	2.321592E-04
6.424894E+03	1.428843E-02	2.403894E-04
6.434840E+03	1.473279E-02	2.493617E-04
6.444786E+03	1.519061E-02	2.586678E-04
6.454731E+03	1.563308E-02	2.678174E-04
6.464677E+03	1.603316E-02	2.763384E-04
6.474623E+03	1.636396E-02	2.837497E-04
6.484568E+03	1.659917E-02	2.895690E-04
6.494514E+03	1.672051E-02	2.934432E-04
6.504460E+03	1.671449E-02	2.950962E-04
6.514405E+03	1.657321E-02	2.943453E-04
6.524351E+03	1.629776E-02	2.911652E-04
6.534297E+03	1.589624E-02	2.856573E-04
6.544242E+03	1.538069E-02	2.779981E-04
6.554188E+03	1.476975E-02	2.684896E-04
6.564134E+03	1.408457E-02	2.574882E-04
6.574079E+03	1.334672E-02	2.453673E-04
6.584025E+03	1.257908E-02	2.325335E-04
6.593971E+03	1.180267E-02	2.193697E-04
6.603916E+03	1.103563E-02	2.062130E-04
6.613862E+03	1.029296E-02	1.933494E-04
6.623808E+03	9.586794E-03	1.810168E-04
6.633753E+03	8.925790E-03	1.693922E-04
6.643699E+03	8.315418E-03	1.585946E-04
6.653644E+03	7.758953E-03	1.487032E-04
6.663590E+03	7.257783E-03	1.397616E-04
6.673536E+03	6.811146E-03	1.317721E-04
6.683481E+03	6.417266E-03	1.247167E-04
6.693427E+03	6.073971E-03	1.185684E-04
6.703373E+03	5.777927E-03	1.132765E-04
6.713318E+03	5.525921E-03	1.087909E-04
6.723264E+03	5.314811E-03	1.050616E-04
6.733210E+03	5.140985E-03	1.020276E-04
6.743155E+03	5.001106E-03	9.963198E-05
6.753101E+03	4.892208E-03	9.782388E-05
6.763047E+03	4.811684E-03	9.655825E-05
6.772992E+03	4.757063E-03	9.579172E-05
6.782938E+03	4.726210E-03	9.548668E-05
6.792884E+03	4.717128E-03	9.560743E-05
6.802829E+03	4.727968E-03	9.612041E-05
6.812775E+03	4.757042E-03	9.699461E-05
6.822721E+03	4.802574E-03	9.819658E-05
6.832666E+03	4.862843E-03	9.969332E-05
6.842612E+03	4.936163E-03	1.014519E-04
6.852558E+03	5.020706E-03	1.034359E-04
6.862503E+03	5.114673E-03	1.056090E-04
6.872449E+03	5.216148E-03	1.079320E-04
6.882395E+03	5.323215E-03	1.103652E-04
6.892340E+03	5.433965E-03	1.128684E-04
6.902286E+03	5.546649E-03	1.154047E-04
6.912232E+03	5.659581E-03	1.179381E-04
6.922177E+03	5.771397E-03	1.204391E-04
6.932123E+03	5.880836E-03	1.228801E-04
6.942069E+03	5.987544E-03	1.252525E-04
6.952014E+03	6.091539E-03	1.275555E-04
6.961960E+03	6.192897E-03	1.297894E-04
6.971906E+03	6.292415E-03	1.319700E-04
6.981851E+03	6.391049E-03	1.341162E-04
6.991797E+03	6.490113E-03	1.362547E-04
7.001742E+03	6.590643E-03	1.384064E-04
7.011688E+03	6.693828E-03	1.405953E-04
7.021634E+03	6.800820E-03	1.428447E-04
7.031579E+03	6.912313E-03	1.451684E-04
7.041525E+03	7.028875E-03	1.475771E-04
7.051471E+03	7.150991E-03	1.500800E-04
7.061416E+03	7.278757E-03	1.526780E-04
7.071362E+03	7.412204E-03	1.553705E-04
7.081308E+03	7.551002E-03	1.581492E-04
7.091253E+03	7.694548E-03	1.610001E-04
7.101199E+03	7.842014E-03	1.639046E-04
7.111145E+03	7.992495E-03	1.668422E-04
7.121090E+03	8.144694E-03	1.697847E-04
7.131036E+03	8.297329E-03	1.727042E-04
7.140982E+03	8.448805E-03	1.755663E-04
7.150927E+03	8.597752E-03	1.783418E-04
7.160873E+03	8.742632E-03	1.809981E-04
7.170819E+03	8.881750E-03	1.834998E-04
7.180764E+03	9.013628E-03	1.858166E-04
7.190710E+03	9.137066E-03	1.879238E-04
7.200656E+03	9.250493E-03	1.897900E-04
7.210601E+03	9.353038E-03	1.913985E-04
7.220547E+03	9.443918E-03	1.927347E-04
7.230493E+03	9.522615E-03	1.937898E-04
7.240438E+03	9.589310E-03	1.945696E-04
7.250384E+03	9.644389E-03	1.950841E-04
7.260330E+03	9.688844E-03	1.953560E-04
7.270275E+03	9.723604E-03	1.954061E-04
7.280221E+03	9.749918E-03	1.952620E-04
7.290167E+03	9.769026E-03	1.949507E-04
7.300112E+03	9.782532E-03	1.945064E-04
7.310058E+03	9.791718E-03	1.939564E-04
7.320004E+03	9.797837E-03	1.933273E-04
7.329949E+03	9.801459E-03	1.926319E-04
7.339895E+03	9.802583E-03	1.918716E-04
7.349840E+03	9.801600E-03	1.910558E-04
7.359786E+03	9.797984E-03	1.901758E-04
7.369732E+03	9.791480E-03	1.892285E-04
7.379677E+03	9.781275E-03	1.882002E-04
7.389623E+03	9.766753E-03	1.870814E-04
7.399569E+03	9.747291E-03	1.858625E-04
7.409514E+03	9.722073E-03	1.845308E-04
7.419460E+03	9.691189E-03	1.830910E-04
7.429406E+03	9.654962E-03	1.815522E-04
7.439351E+03	9.614034E-03	1.799293E-04
7.449297E+03	9.569334E-03	1.782426E-04
7.459243E+03	9.522381E-03	1.765228E-04
7.469188E+03	9.474460E-03	1.747960E-04
7.479134E+03	9.427217E-03	1.730944E-04
7.489080E+03	9.382447E-03	1.714523E-04
7.499025E+03	9.341415E-03	1.698940E-04
7.508971E+03	9.305453E-03	1.684443E-04
7.518917E+03	9.275367E-03	1.671185E-04
7.528862E+03	9.251898E-03	1.659303E-04
7.538808E+03	9.235774E-03	1.648931E-04
7.548754E+03	9.227539E-03	1.640168E-04
7.558699E+03	9.227503E-03	1.633075E-04
7.568645E+03	9.235919E-03	1.627698E-04
7.578591E+03	9.252674E-03	1.624026E-04
7.588536E+03	9.277538E-03	1.622026E-04
7.598482E+03	9.309522E-03	1.621536E-04
7.608428E+03	9.347225E-03	1.622329E-04
7.618373E+03	9.388638E-03	1.624078E-04
7.628319E+03	9.431237E-03	1.626372E-04
7.638265E+03	9.471718E-03	1.628676E-04
7.648210E+03	9.506936E-03	1.630486E-04
7.658156E+03	9.533950E-03	1.631341E-04
7.668101E+03	9.549888E-03	1.630791E-04
7.678047E+03	9.552114E-03	1.628432E-04
7.687993E+03	9.538838E-03	1.623998E-04
7.697938E+03	9.508314E-03	1.617230E-04
7.707884E+03	9.459353E-03	1.607957E-04
7.717830E+03	9.391899E-03	1.596193E-04
