#wls	flux	fluxerr
1.591305E+03	1.014157E-03	1.131605E-04
1.631088E+03	9.910931E-04	1.103392E-04
1.670870E+03	9.692094E-04	1.076553E-04
1.710653E+03	9.485011E-04	1.051078E-04
1.750436E+03	9.289587E-04	1.026950E-04
1.790218E+03	9.107365E-04	1.004331E-04
1.830001E+03	8.936471E-04	9.830077E-05
1.869784E+03	8.776761E-04	9.629565E-05
1.909566E+03	8.631189E-04	9.444935E-05
1.949349E+03	8.497907E-04	9.274066E-05
1.989131E+03	8.376720E-04	9.116655E-05
2.028914E+03	8.268924E-04	8.974016E-05
2.068697E+03	8.174332E-04	8.845838E-05
2.108479E+03	8.094211E-04	8.733376E-05
2.148262E+03	8.025674E-04	8.633398E-05
2.188045E+03	7.972878E-04	8.550255E-05
2.227827E+03	7.934456E-04	8.482338E-05
2.267610E+03	7.910550E-04	8.429654E-05
2.307392E+03	7.902680E-04	8.393671E-05
2.347175E+03	7.912415E-04	8.375880E-05
2.386958E+03	7.940113E-04	8.376468E-05
2.426740E+03	7.987522E-04	8.397066E-05
2.466523E+03	8.054006E-04	8.436784E-05
2.506306E+03	8.144114E-04	8.500139E-05
2.546088E+03	8.257649E-04	8.586637E-05
2.585871E+03	8.397281E-04	8.698751E-05
2.625653E+03	8.565982E-04	8.839211E-05
2.665436E+03	8.767678E-04	9.011672E-05
2.705219E+03	9.003740E-04	9.217099E-05
2.745001E+03	9.277267E-04	9.458181E-05
2.784784E+03	9.594480E-04	9.740712E-05
2.824567E+03	9.957282E-04	1.006600E-04
2.864349E+03	1.037331E-03	1.044109E-04
2.904132E+03	1.084987E-03	1.087252E-04
2.943914E+03	1.139405E-03	1.136647E-04
2.983697E+03	1.201548E-03	1.193152E-04
2.993643E+03	1.218488E-03	1.208570E-04
3.003588E+03	1.236046E-03	1.224558E-04
3.013534E+03	1.254103E-03	1.240994E-04
3.023480E+03	1.272810E-03	1.258026E-04
3.033425E+03	1.292186E-03	1.275670E-04
3.043371E+03	1.312247E-03	1.293941E-04
3.053317E+03	1.333016E-03	1.312855E-04
3.063262E+03	1.354370E-03	1.332293E-04
3.073208E+03	1.376612E-03	1.352547E-04
3.083154E+03	1.399622E-03	1.373499E-04
3.093099E+03	1.423425E-03	1.395167E-04
3.103045E+03	1.448044E-03	1.417573E-04
3.112991E+03	1.473503E-03	1.440737E-04
3.122936E+03	1.499975E-03	1.464823E-04
3.132882E+03	1.527342E-03	1.489714E-04
3.142828E+03	1.555631E-03	1.515431E-04
3.152773E+03	1.585020E-03	1.542147E-04
3.162719E+03	1.615393E-03	1.569741E-04
3.172665E+03	1.646931E-03	1.598386E-04
3.182610E+03	1.679670E-03	1.628114E-04
3.192556E+03	1.713491E-03	1.658805E-04
3.202502E+03	1.748585E-03	1.690636E-04
3.212447E+03	1.784831E-03	1.723490E-04
3.222393E+03	1.822585E-03	1.757702E-04
3.232339E+03	1.861569E-03	1.793000E-04
3.242284E+03	1.902144E-03	1.829726E-04
3.252230E+03	1.944030E-03	1.867606E-04
3.262175E+03	1.987598E-03	1.906988E-04
3.272121E+03	2.032726E-03	1.947751E-04
3.282067E+03	2.079460E-03	1.989932E-04
3.292012E+03	2.128016E-03	2.033731E-04
3.301958E+03	2.178271E-03	2.079023E-04
3.311904E+03	2.230443E-03	2.126010E-04
3.321849E+03	2.284407E-03	2.174565E-04
3.331795E+03	2.340385E-03	2.224891E-04
3.341741E+03	2.398426E-03	2.277028E-04
3.351686E+03	2.458395E-03	2.330838E-04
3.361632E+03	2.520703E-03	2.386704E-04
3.371578E+03	2.585214E-03	2.444486E-04
3.381523E+03	2.651970E-03	2.504217E-04
3.391469E+03	2.721011E-03	2.565926E-04
3.401415E+03	2.792375E-03	2.629637E-04
3.411360E+03	2.866290E-03	2.695557E-04
3.421306E+03	2.942594E-03	2.763523E-04
3.431252E+03	3.021511E-03	2.833736E-04
3.441197E+03	3.103069E-03	2.906209E-04
3.451143E+03	3.187287E-03	2.980953E-04
3.461089E+03	3.273971E-03	3.057773E-04
3.471034E+03	3.363544E-03	3.137057E-04
3.480980E+03	3.455802E-03	3.218599E-04
3.490926E+03	3.550736E-03	3.302381E-04
3.500871E+03	3.648546E-03	3.388580E-04
3.510817E+03	3.748989E-03	3.476957E-04
3.520763E+03	3.852017E-03	3.567456E-04
3.530708E+03	3.958020E-03	3.660429E-04
3.540654E+03	4.066464E-03	3.755370E-04
3.550600E+03	4.177706E-03	3.852598E-04
3.560545E+03	4.291152E-03	3.951554E-04
3.570491E+03	4.407117E-03	4.052520E-04
3.580436E+03	4.525191E-03	4.155109E-04
3.590382E+03	4.645419E-03	4.259352E-04
3.600328E+03	4.767340E-03	4.364820E-04
3.610273E+03	4.890964E-03	4.471513E-04
3.620219E+03	5.016036E-03	4.579193E-04
3.630165E+03	5.142273E-03	4.687594E-04
3.640110E+03	5.269383E-03	4.796446E-04
3.650056E+03	5.397311E-03	4.905697E-04
3.660002E+03	5.525472E-03	5.014810E-04
3.669947E+03	5.653557E-03	5.123505E-04
3.679893E+03	5.781527E-03	5.231747E-04
3.689839E+03	5.909154E-03	5.339330E-04
3.699784E+03	6.036297E-03	5.446128E-04
3.709730E+03	6.162964E-03	5.552151E-04
3.719676E+03	6.289595E-03	5.657795E-04
3.729621E+03	6.416312E-03	5.763171E-04
3.739567E+03	6.543683E-03	5.868788E-04
3.749513E+03	6.672727E-03	5.975556E-04
3.759458E+03	6.804064E-03	6.084022E-04
3.769404E+03	6.939214E-03	6.195535E-04
3.779350E+03	7.078906E-03	6.310729E-04
3.789295E+03	7.224114E-03	6.430453E-04
3.799241E+03	7.375721E-03	6.555471E-04
3.809187E+03	7.534452E-03	6.686399E-04
3.819132E+03	7.701115E-03	6.823926E-04
3.829078E+03	7.875978E-03	6.968258E-04
3.839024E+03	8.058720E-03	7.119076E-04
3.848969E+03	8.249430E-03	7.276430E-04
3.858915E+03	8.446611E-03	7.438968E-04
3.868861E+03	8.649022E-03	7.605575E-04
3.878806E+03	8.854811E-03	7.774603E-04
3.888752E+03	9.060637E-03	7.943111E-04
3.898698E+03	9.263668E-03	8.108621E-04
3.908643E+03	9.460003E-03	8.267737E-04
3.918589E+03	9.645070E-03	8.416496E-04
3.928534E+03	9.814437E-03	8.551084E-04
3.938480E+03	9.964037E-03	8.668026E-04
3.948426E+03	1.008962E-02	8.763711E-04
3.958371E+03	1.018814E-02	8.835600E-04
3.968317E+03	1.025714E-02	8.881674E-04
3.978263E+03	1.029524E-02	8.900855E-04
3.988208E+03	1.030191E-02	8.892821E-04
3.998154E+03	1.027809E-02	8.858497E-04
4.008100E+03	1.022631E-02	8.800196E-04
4.018045E+03	1.014897E-02	8.720084E-04
4.027991E+03	1.004974E-02	8.621417E-04
4.037937E+03	9.933013E-03	8.508042E-04
4.047882E+03	9.802928E-03	8.383574E-04
4.057828E+03	9.664120E-03	8.252023E-04
4.067774E+03	9.520565E-03	8.116812E-04
4.077719E+03	9.375924E-03	7.981079E-04
4.087665E+03	9.234046E-03	7.848098E-04
4.097611E+03	9.097452E-03	7.719997E-04
4.107556E+03	8.968763E-03	7.598978E-04
4.117502E+03	8.849685E-03	7.486451E-04
4.127448E+03	8.741638E-03	7.383580E-04
4.137393E+03	8.645554E-03	7.291105E-04
4.147339E+03	8.561900E-03	7.209375E-04
4.157285E+03	8.490369E-03	7.138082E-04
4.167230E+03	8.430752E-03	7.077003E-04
4.177176E+03	8.382285E-03	7.025454E-04
4.187122E+03	8.343715E-03	6.982342E-04
4.197067E+03	8.313519E-03	6.946358E-04
4.207013E+03	8.290138E-03	6.916168E-04
4.216959E+03	8.271867E-03	6.890328E-04
4.226904E+03	8.256809E-03	6.867242E-04
4.236850E+03	8.243086E-03	6.845338E-04
4.246796E+03	8.229058E-03	6.823252E-04
4.256741E+03	8.213080E-03	6.799625E-04
4.266687E+03	8.193875E-03	6.773409E-04
4.276632E+03	8.170028E-03	6.743451E-04
4.286578E+03	8.141127E-03	6.709428E-04
4.296524E+03	8.106374E-03	6.670703E-04
4.306469E+03	8.066240E-03	6.627688E-04
4.316415E+03	8.021083E-03	6.580695E-04
4.326361E+03	7.972122E-03	6.530742E-04
4.336306E+03	7.921302E-03	6.479435E-04
4.346252E+03	7.870947E-03	6.428680E-04
4.356198E+03	7.824000E-03	6.380875E-04
4.366143E+03	7.783964E-03	6.338861E-04
4.376089E+03	7.754620E-03	6.305688E-04
4.386035E+03	7.739821E-03	6.284446E-04
4.395980E+03	7.743325E-03	6.278131E-04
4.405926E+03	7.769155E-03	6.289934E-04
4.415872E+03	7.820967E-03	6.322734E-04
4.425817E+03	7.902197E-03	6.379215E-04
4.435763E+03	8.016242E-03	6.462015E-04
4.445709E+03	8.166317E-03	6.573611E-04
4.455654E+03	8.355070E-03	6.716013E-04
4.465600E+03	8.585060E-03	6.891144E-04
4.475546E+03	8.857943E-03	7.100199E-04
4.485491E+03	9.174969E-03	7.344039E-04
4.495437E+03	9.536031E-03	7.622439E-04
4.505383E+03	9.939938E-03	7.934309E-04
4.515328E+03	1.038374E-02	8.277167E-04
4.525274E+03	1.086266E-02	8.647090E-04
4.535220E+03	1.136955E-02	9.038290E-04
4.545165E+03	1.189502E-02	9.443238E-04
4.555111E+03	1.242719E-02	9.852463E-04
4.565057E+03	1.295196E-02	1.025480E-03
4.575002E+03	1.345375E-02	1.063797E-03
4.584948E+03	1.391585E-02	1.098886E-03
4.594894E+03	1.432176E-02	1.129459E-03
4.604839E+03	1.465579E-02	1.154300E-03
4.614785E+03	1.490518E-02	1.172427E-03
4.624730E+03	1.506029E-02	1.183111E-03
4.634676E+03	1.511608E-02	1.185984E-03
4.644622E+03	1.507200E-02	1.181033E-03
4.654567E+03	1.493291E-02	1.168670E-03
4.664513E+03	1.470752E-02	1.149602E-03
4.674459E+03	1.440842E-02	1.124837E-03
4.684404E+03	1.405043E-02	1.095552E-03
4.694350E+03	1.364969E-02	1.063018E-03
4.704296E+03	1.322192E-02	1.028469E-03
4.714241E+03	1.278237E-02	9.930992E-04
4.724187E+03	1.234425E-02	9.579334E-04
4.734133E+03	1.191873E-02	9.238363E-04
4.744078E+03	1.151476E-02	8.914963E-04
4.754024E+03	1.113880E-02	8.614061E-04
4.763970E+03	1.079611E-02	8.339641E-04
4.773915E+03	1.048996E-02	8.094124E-04
4.783861E+03	1.022232E-02	7.878930E-04
4.793807E+03	9.993405E-03	7.694113E-04
4.803752E+03	9.803043E-03	7.539443E-04
4.813698E+03	9.649917E-03	7.413807E-04
4.823644E+03	9.532181E-03	7.315692E-04
4.833589E+03	9.447521E-03	7.243237E-04
4.843535E+03	9.393431E-03	7.194442E-04
4.853481E+03	9.366600E-03	7.166702E-04
4.863426E+03	9.363646E-03	7.157372E-04
4.873372E+03	9.380674E-03	7.163421E-04
4.883318E+03	9.413472E-03	7.181598E-04
4.893263E+03	9.457132E-03	7.208128E-04
4.903209E+03	9.506798E-03	7.239293E-04
4.913155E+03	9.557109E-03	7.271009E-04
4.923100E+03	9.602839E-03	7.299302E-04
4.933046E+03	9.639232E-03	7.320576E-04
4.942991E+03	9.662030E-03	7.331621E-04
4.952937E+03	9.668289E-03	7.330234E-04
4.962883E+03	9.655900E-03	7.314852E-04
4.972828E+03	9.624431E-03	7.285185E-04
4.982774E+03	9.574814E-03	7.241971E-04
4.992720E+03	9.509014E-03	7.186729E-04
5.002665E+03	9.430217E-03	7.121891E-04
5.012611E+03	9.342229E-03	7.050351E-04
5.022557E+03	9.249280E-03	6.975310E-04
5.032502E+03	9.155723E-03	6.900056E-04
5.042448E+03	9.065824E-03	6.827799E-04
5.052394E+03	8.983653E-03	6.761597E-04
5.062339E+03	8.912813E-03	6.704144E-04
5.072285E+03	8.856453E-03	6.657791E-04
5.082231E+03	8.817284E-03	6.624556E-04
5.092176E+03	8.797592E-03	6.606133E-04
5.102122E+03	8.799359E-03	6.603985E-04
5.112068E+03	8.823973E-03	6.619131E-04
5.122013E+03	8.872992E-03	6.652717E-04
5.131959E+03	8.947261E-03	6.705355E-04
5.141905E+03	9.047647E-03	6.777674E-04
5.151850E+03	9.174574E-03	6.869975E-04
5.161796E+03	9.328451E-03	6.982550E-04
5.171742E+03	9.508990E-03	7.115170E-04
5.181687E+03	9.715784E-03	7.267525E-04
5.191633E+03	9.947900E-03	7.438910E-04
5.201579E+03	1.020389E-02	7.628241E-04
5.211524E+03	1.048176E-02	7.834041E-04
5.221470E+03	1.077896E-02	8.054399E-04
5.231416E+03	1.109239E-02	8.287010E-04
5.241361E+03	1.141831E-02	8.529110E-04
5.251307E+03	1.175282E-02	8.777790E-04
5.261253E+03	1.209158E-02	9.029846E-04
5.271198E+03	1.243005E-02	9.281898E-04
5.281144E+03	1.276393E-02	9.530773E-04
5.291089E+03	1.308895E-02	9.773297E-04
5.301035E+03	1.340150E-02	1.000681E-03
5.310981E+03	1.369820E-02	1.022881E-03
5.320926E+03	1.397693E-02	1.043773E-03
5.330872E+03	1.423589E-02	1.063225E-03
5.340818E+03	1.447452E-02	1.081197E-03
5.350763E+03	1.469277E-02	1.097687E-03
5.360709E+03	1.489157E-02	1.112765E-03
5.370655E+03	1.507206E-02	1.126517E-03
5.380600E+03	1.523562E-02	1.139048E-03
5.390546E+03	1.538412E-02	1.150498E-03
5.400492E+03	1.551849E-02	1.160936E-03
5.410437E+03	1.563913E-02	1.170393E-03
5.420383E+03	1.574457E-02	1.178760E-03
5.430329E+03	1.583199E-02	1.185823E-03
5.440274E+03	1.589828E-02	1.191350E-03
5.450220E+03	1.593928E-02	1.195024E-03
5.460166E+03	1.595112E-02	1.196553E-03
5.470111E+03	1.592906E-02	1.195577E-03
5.480057E+03	1.586801E-02	1.191710E-03
5.490003E+03	1.576264E-02	1.184544E-03
5.499948E+03	1.560930E-02	1.173797E-03
5.509894E+03	1.540522E-02	1.159251E-03
5.519840E+03	1.514932E-02	1.140817E-03
5.529785E+03	1.484243E-02	1.118546E-03
5.539731E+03	1.448748E-02	1.092648E-03
5.549677E+03	1.408934E-02	1.063478E-03
5.559622E+03	1.365526E-02	1.031574E-03
5.569568E+03	1.319387E-02	9.975785E-04
5.579514E+03	1.271489E-02	9.622184E-04
5.589459E+03	1.222893E-02	9.262896E-04
5.599405E+03	1.174687E-02	8.906135E-04
5.609351E+03	1.127916E-02	8.559791E-04
5.619296E+03	1.083549E-02	8.231248E-04
5.629242E+03	1.042414E-02	7.926801E-04
5.639187E+03	1.005248E-02	7.652126E-04
5.649133E+03	9.726355E-03	7.411746E-04
5.659079E+03	9.450271E-03	7.209181E-04
5.669024E+03	9.227863E-03	7.047316E-04
5.678970E+03	9.061710E-03	6.928246E-04
5.688916E+03	8.953978E-03	6.853760E-04
5.698861E+03	8.905833E-03	6.824899E-04
5.708807E+03	8.918184E-03	6.842516E-04
5.718753E+03	8.990930E-03	6.906698E-04
5.728698E+03	9.123610E-03	7.017258E-04
5.738644E+03	9.314804E-03	7.173276E-04
5.748590E+03	9.561914E-03	7.372927E-04
5.758535E+03	9.861533E-03	7.613750E-04
5.768481E+03	1.020864E-02	7.892032E-04
5.778427E+03	1.059633E-02	8.202586E-04
5.788372E+03	1.101629E-02	8.539102E-04
5.798318E+03	1.145815E-02	8.893645E-04
5.808264E+03	1.190968E-02	9.256808E-04
5.818209E+03	1.235738E-02	9.618109E-04
5.828155E+03	1.278697E-02	9.966434E-04
5.838101E+03	1.318373E-02	1.029024E-03
5.848046E+03	1.353382E-02	1.057862E-03
5.857992E+03	1.382456E-02	1.082150E-03
5.867938E+03	1.404566E-02	1.101060E-03
5.877883E+03	1.418956E-02	1.113979E-03
5.887829E+03	1.425249E-02	1.120580E-03
5.897775E+03	1.423376E-02	1.120782E-03
5.907720E+03	1.413628E-02	1.114786E-03
5.917666E+03	1.396598E-02	1.103030E-03
5.927612E+03	1.373161E-02	1.086180E-03
5.937557E+03	1.344360E-02	1.065038E-03
5.947503E+03	1.311366E-02	1.040511E-03
5.957449E+03	1.275389E-02	1.013546E-03
5.967394E+03	1.237615E-02	9.850728E-04
5.977340E+03	1.199133E-02	9.559513E-04
5.987285E+03	1.160921E-02	9.269599E-04
5.997231E+03	1.123810E-02	8.987619E-04
6.007177E+03	1.088471E-02	8.718979E-04
6.017122E+03	1.055391E-02	8.467642E-04
6.027068E+03	1.024950E-02	8.236749E-04
6.037014E+03	9.973506E-03	8.028004E-04
6.046959E+03	9.727028E-03	7.842411E-04
6.056905E+03	9.509876E-03	7.679923E-04
6.066851E+03	9.321231E-03	7.539988E-04
6.076796E+03	9.159594E-03	7.421496E-04
6.086742E+03	9.022987E-03	7.322947E-04
6.096688E+03	8.908896E-03	7.242393E-04
6.106633E+03	8.814748E-03	7.177826E-04
6.116579E+03	8.737693E-03	7.126999E-04
6.126525E+03	8.674908E-03	7.087672E-04
6.136470E+03	8.623528E-03	7.057557E-04
6.146416E+03	8.580689E-03	7.034350E-04
6.156362E+03	8.544094E-03	7.016197E-04
6.166307E+03	8.511817E-03	7.001539E-04
6.176253E+03	8.481847E-03	6.988734E-04
6.186199E+03	8.452557E-03	6.976447E-04
6.196144E+03	8.422875E-03	6.963792E-04
6.206090E+03	8.391734E-03	6.949882E-04
6.216036E+03	8.358904E-03	6.934519E-04
6.225981E+03	8.324508E-03	6.917796E-04
6.235927E+03	8.289284E-03	6.900317E-04
6.245873E+03	8.254336E-03	6.882999E-04
6.255818E+03	8.221315E-03	6.867220E-04
6.265764E+03	8.192349E-03	6.854767E-04
6.275710E+03	8.169841E-03	6.847670E-04
6.285655E+03	8.156106E-03	6.847899E-04
6.295601E+03	8.153822E-03	6.857742E-04
6.305546E+03	8.165317E-03	6.879210E-04
6.315492E+03	8.192869E-03	6.914283E-04
6.325438E+03	8.238186E-03	6.964474E-04
6.335383E+03	8.302949E-03	7.031283E-04
6.345329E+03	8.387803E-03	7.115341E-04
6.355275E+03	8.493218E-03	7.217134E-04
6.365220E+03	8.618691E-03	7.336322E-04
6.375166E+03	8.762939E-03	7.471902E-04
6.385112E+03	8.924120E-03	7.622378E-04
6.395057E+03	9.099140E-03	7.785179E-04
6.405003E+03	9.284253E-03	7.957154E-04
6.414949E+03	9.474529E-03	8.134115E-04
6.424894E+03	9.664553E-03	8.311425E-04
6.434840E+03	9.847739E-03	8.483412E-04
6.444786E+03	1.001708E-02	8.643998E-04
6.454731E+03	1.016520E-02	8.786743E-04
6.464677E+03	1.028460E-02	8.905058E-04
6.474623E+03	1.036793E-02	8.992441E-04
6.484568E+03	1.040866E-02	9.043066E-04
6.494514E+03	1.040119E-02	9.051866E-04
6.504460E+03	1.034142E-02	9.015047E-04
6.514405E+03	1.022694E-02	8.930284E-04
6.524351E+03	1.005716E-02	8.796814E-04
6.534297E+03	9.833616E-03	8.615729E-04
6.544242E+03	9.559685E-03	8.389767E-04
6.554188E+03	9.240663E-03	8.123356E-04
6.564134E+03	8.883181E-03	7.822137E-04
6.574079E+03	8.495143E-03	7.492910E-04
6.584025E+03	8.084752E-03	7.142790E-04
6.593971E+03	7.660594E-03	6.779277E-04
6.603916E+03	7.230901E-03	6.409607E-04
6.613862E+03	6.803426E-03	6.040641E-04
6.623808E+03	6.384948E-03	5.678417E-04
6.633753E+03	5.981291E-03	5.328165E-04
6.643699E+03	5.597034E-03	4.994036E-04
6.653644E+03	5.235584E-03	4.679160E-04
6.663590E+03	4.899430E-03	4.385868E-04
6.673536E+03	4.589977E-03	4.115529E-04
6.683481E+03	4.307811E-03	3.868790E-04
6.693427E+03	4.052866E-03	3.645710E-04
6.703373E+03	3.824575E-03	3.445897E-04
6.713318E+03	3.622052E-03	3.268670E-04
6.723264E+03	3.444131E-03	3.113086E-04
6.733210E+03	3.289468E-03	2.978038E-04
6.743155E+03	3.156781E-03	2.862463E-04
6.753101E+03	3.044659E-03	2.765176E-04
6.763047E+03	2.951803E-03	2.685086E-04
6.772992E+03	2.876869E-03	2.621049E-04
6.782938E+03	2.818756E-03	2.572140E-04
6.792884E+03	2.776277E-03	2.537347E-04
6.802829E+03	2.748428E-03	2.515817E-04
6.812775E+03	2.734247E-03	2.506731E-04
6.822721E+03	2.732842E-03	2.509329E-04
6.832666E+03	2.743379E-03	2.522897E-04
6.842612E+03	2.765103E-03	2.546790E-04
6.852558E+03	2.797189E-03	2.580296E-04
6.862503E+03	2.838931E-03	2.622807E-04
6.872449E+03	2.889638E-03	2.673720E-04
6.882395E+03	2.948545E-03	2.732366E-04
6.892340E+03	3.014958E-03	2.798136E-04
6.902286E+03	3.088071E-03	2.870308E-04
6.912232E+03	3.167224E-03	2.948299E-04
6.922177E+03	3.251700E-03	3.031462E-04
6.932123E+03	3.340720E-03	3.119091E-04
6.942069E+03	3.433701E-03	3.210661E-04
6.952014E+03	3.530043E-03	3.305623E-04
6.961960E+03	3.629126E-03	3.403409E-04
6.971906E+03	3.730592E-03	3.503694E-04
6.981851E+03	3.834052E-03	3.606121E-04
6.991797E+03	3.939314E-03	3.710514E-04
7.001742E+03	4.046135E-03	3.816652E-04
7.011688E+03	4.154561E-03	3.924582E-04
7.021634E+03	4.264554E-03	4.034275E-04
7.031579E+03	4.376171E-03	4.145788E-04
7.041525E+03	4.489490E-03	4.259201E-04
7.051471E+03	4.604576E-03	4.374583E-04
7.061416E+03	4.721409E-03	4.491917E-04
7.071362E+03	4.840025E-03	4.611246E-04
7.081308E+03	4.960331E-03	4.732485E-04
7.091253E+03	5.082163E-03	4.855484E-04
7.101199E+03	5.205173E-03	4.979913E-04
7.111145E+03	5.329070E-03	5.105498E-04
7.121090E+03	5.453307E-03	5.231716E-04
7.131036E+03	5.577324E-03	5.358026E-04
7.140982E+03	5.700461E-03	5.483794E-04
7.150927E+03	5.821981E-03	5.608303E-04
7.160873E+03	5.941090E-03	5.730779E-04
7.170819E+03	6.056865E-03	5.850322E-04
7.180764E+03	6.168516E-03	5.966150E-04
7.190710E+03	6.275111E-03	6.077344E-04
7.200656E+03	6.375901E-03	6.183157E-04
7.210601E+03	6.469956E-03	6.282663E-04
7.220547E+03	6.556764E-03	6.375335E-04
7.230493E+03	6.635505E-03	6.460347E-04
7.240438E+03	6.705901E-03	6.537395E-04
7.250384E+03	6.767669E-03	6.606171E-04
7.260330E+03	6.820395E-03	6.666236E-04
7.270275E+03	6.864359E-03	6.717829E-04
7.280221E+03	6.899467E-03	6.760826E-04
7.290167E+03	6.926123E-03	6.795586E-04
7.300112E+03	6.944699E-03	6.822445E-04
7.310058E+03	6.955754E-03	6.841923E-04
7.320004E+03	6.959779E-03	6.854472E-04
7.329949E+03	6.957585E-03	6.860869E-04
7.339895E+03	6.949820E-03	6.861729E-04
7.349840E+03	6.937060E-03	6.857601E-04
7.359786E+03	6.919986E-03	6.849141E-04
7.369732E+03	6.899221E-03	6.836952E-04
7.379677E+03	6.875118E-03	6.821369E-04
7.389623E+03	6.848083E-03	6.802785E-04
7.399569E+03	6.818460E-03	6.781531E-04
7.409514E+03	6.786591E-03	6.757938E-04
7.419460E+03	6.752608E-03	6.732131E-04
7.429406E+03	6.716973E-03	6.704565E-04
7.439351E+03	6.679664E-03	6.675211E-04
7.449297E+03	6.641096E-03	6.644479E-04
7.459243E+03	6.601304E-03	6.612400E-04
7.469188E+03	6.560567E-03	6.579250E-04
7.479134E+03	6.518881E-03	6.545023E-04
7.489080E+03	6.476413E-03	6.509882E-04
7.499025E+03	6.433208E-03	6.473873E-04
7.508971E+03	6.389471E-03	6.437199E-04
7.518917E+03	6.345055E-03	6.399710E-04
7.528862E+03	6.300138E-03	6.361585E-04
7.538808E+03	6.254626E-03	6.322727E-04
7.548754E+03	6.208584E-03	6.283201E-04
7.558699E+03	6.161972E-03	6.242965E-04
7.568645E+03	6.114757E-03	6.201984E-04
7.578591E+03	6.066882E-03	6.160200E-04
7.588536E+03	6.018295E-03	6.117557E-04
7.598482E+03	5.969007E-03	6.074066E-04
7.608428E+03	5.918948E-03	6.029653E-04
7.618373E+03	5.867970E-03	5.984164E-04
7.628319E+03	5.816003E-03	5.937527E-04
7.638265E+03	5.763120E-03	5.889815E-04
7.648210E+03	5.709183E-03	5.840882E-04
7.658156E+03	5.654042E-03	5.790573E-04
7.668101E+03	5.597710E-03	5.738898E-04
7.678047E+03	5.540127E-03	5.685794E-04
7.687993E+03	5.481319E-03	5.631282E-04
7.697938E+03	5.421090E-03	5.575158E-04
7.707884E+03	5.359488E-03	5.517467E-04
7.717830E+03	5.296546E-03	5.458242E-04
