#wls	flux	fluxerr
1.591305E+03	1.041608E-03	1.969905E-04
1.631088E+03	1.019372E-03	1.923066E-04
1.670870E+03	9.980287E-04	1.878020E-04
1.710653E+03	9.777684E-04	1.835116E-04
1.750436E+03	9.587622E-04	1.794664E-04
1.790218E+03	9.408243E-04	1.756302E-04
1.830001E+03	9.239491E-04	1.720008E-04
1.869784E+03	9.084555E-04	1.686360E-04
1.909566E+03	8.940008E-04	1.654708E-04
1.949349E+03	8.808918E-04	1.625603E-04
1.989131E+03	8.689578E-04	1.598713E-04
2.028914E+03	8.583411E-04	1.574281E-04
2.068697E+03	8.488858E-04	1.552002E-04
2.108479E+03	8.408820E-04	1.532388E-04
2.148262E+03	8.343241E-04	1.515404E-04
2.188045E+03	8.290756E-04	1.500778E-04
2.227827E+03	8.254261E-04	1.489011E-04
2.267610E+03	8.232535E-04	1.479851E-04
2.307392E+03	8.228521E-04	1.473801E-04
2.347175E+03	8.241190E-04	1.470639E-04
2.386958E+03	8.272297E-04	1.470646E-04
2.426740E+03	8.323698E-04	1.474111E-04
2.466523E+03	8.396088E-04	1.481113E-04
2.506306E+03	8.490420E-04	1.491774E-04
2.546088E+03	8.611737E-04	1.506926E-04
2.585871E+03	8.760401E-04	1.526571E-04
2.625653E+03	8.939574E-04	1.551192E-04
2.665436E+03	9.152247E-04	1.581233E-04
2.705219E+03	9.401354E-04	1.617117E-04
2.745001E+03	9.691586E-04	1.659556E-04
2.784784E+03	1.002704E-03	1.709145E-04
2.824567E+03	1.041126E-03	1.766366E-04
2.864349E+03	1.085373E-03	1.832697E-04
2.904132E+03	1.135844E-03	1.908650E-04
2.943914E+03	1.193696E-03	1.995998E-04
2.983697E+03	1.259691E-03	2.095805E-04
2.993643E+03	1.277619E-03	2.122939E-04
3.003588E+03	1.296205E-03	2.151080E-04
3.013534E+03	1.315466E-03	2.180254E-04
3.023480E+03	1.335278E-03	2.210250E-04
3.033425E+03	1.355943E-03	2.241562E-04
3.043371E+03	1.377195E-03	2.273748E-04
3.053317E+03	1.399196E-03	2.307068E-04
3.063262E+03	1.421821E-03	2.341313E-04
3.073208E+03	1.445382E-03	2.376990E-04
3.083154E+03	1.469755E-03	2.413891E-04
3.093099E+03	1.494963E-03	2.452047E-04
3.103045E+03	1.521032E-03	2.491494E-04
3.112991E+03	1.547985E-03	2.532263E-04
3.122936E+03	1.575846E-03	2.574391E-04
3.132882E+03	1.604796E-03	2.618162E-04
3.142828E+03	1.634710E-03	2.663368E-04
3.152773E+03	1.665616E-03	2.710046E-04
3.162719E+03	1.697699E-03	2.758492E-04
3.172665E+03	1.730836E-03	2.808493E-04
3.182610E+03	1.765213E-03	2.860349E-04
3.192556E+03	1.800707E-03	2.913847E-04
3.202502E+03	1.837510E-03	2.969294E-04
3.212447E+03	1.875660E-03	3.026738E-04
3.222393E+03	1.915029E-03	3.085964E-04
3.232339E+03	1.955816E-03	3.147285E-04
3.242284E+03	1.998229E-03	3.211024E-04
3.252230E+03	2.041972E-03	3.276695E-04
3.262175E+03	2.087251E-03	3.344619E-04
3.272121E+03	2.134108E-03	3.414850E-04
3.282067E+03	2.182581E-03	3.487439E-04
3.292012E+03	2.232890E-03	3.562725E-04
3.301958E+03	2.284901E-03	3.640482E-04
3.311904E+03	2.338656E-03	3.720762E-04
3.321849E+03	2.394376E-03	3.803907E-04
3.331795E+03	2.451924E-03	3.889682E-04
3.341741E+03	2.511524E-03	3.978432E-04
3.351686E+03	2.573222E-03	4.070212E-04
3.361632E+03	2.636868E-03	4.164770E-04
3.371578E+03	2.702692E-03	4.262455E-04
3.381523E+03	2.770733E-03	4.363313E-04
3.391469E+03	2.841227E-03	4.467700E-04
3.401415E+03	2.913814E-03	4.575030E-04
3.411360E+03	2.988926E-03	4.685967E-04
3.421306E+03	3.066188E-03	4.799905E-04
3.431252E+03	3.146242E-03	4.917832E-04
3.441197E+03	3.228705E-03	5.039128E-04
3.451143E+03	3.313594E-03	5.163803E-04
3.461089E+03	3.401141E-03	5.292201E-04
3.471034E+03	3.491365E-03	5.424331E-04
3.480980E+03	3.584281E-03	5.560197E-04
3.490926E+03	3.679677E-03	5.699448E-04
3.500871E+03	3.777998E-03	5.842760E-04
3.510817E+03	3.879020E-03	5.989759E-04
3.520763E+03	3.982957E-03	6.140759E-04
3.530708E+03	4.089556E-03	6.295346E-04
3.540654E+03	4.198771E-03	6.453433E-04
3.550600E+03	4.310784E-03	6.615279E-04
3.560545E+03	4.425527E-03	6.780757E-04
3.570491E+03	4.542914E-03	6.949717E-04
3.580436E+03	4.662838E-03	7.121976E-04
3.590382E+03	4.784927E-03	7.296947E-04
3.600328E+03	4.909789E-03	7.475541E-04
3.610273E+03	5.036509E-03	7.656346E-04
3.620219E+03	5.165411E-03	7.839838E-04
3.630165E+03	5.296291E-03	8.025694E-04
3.640110E+03	5.428654E-03	8.213149E-04
3.650056E+03	5.562516E-03	8.402216E-04
3.660002E+03	5.697604E-03	8.592474E-04
3.669947E+03	5.833910E-03	8.783899E-04
3.679893E+03	5.970623E-03	8.975264E-04
3.689839E+03	6.108041E-03	9.167015E-04
3.699784E+03	6.245698E-03	9.358447E-04
3.709730E+03	6.384044E-03	9.550230E-04
3.719676E+03	6.522243E-03	9.741113E-04
3.729621E+03	6.661242E-03	9.932508E-04
3.739567E+03	6.800994E-03	1.012434E-03
3.749513E+03	6.941857E-03	1.031713E-03
3.759458E+03	7.084262E-03	1.051152E-03
3.769404E+03	7.228704E-03	1.070823E-03
3.779350E+03	7.375986E-03	1.090843E-03
3.789295E+03	7.526617E-03	1.111286E-03
3.799241E+03	7.680742E-03	1.132169E-03
3.809187E+03	7.838991E-03	1.153584E-03
3.819132E+03	8.001835E-03	1.175597E-03
3.829078E+03	8.168704E-03	1.198121E-03
3.839024E+03	8.339646E-03	1.221160E-03
3.848969E+03	8.514421E-03	1.244676E-03
3.858915E+03	8.692168E-03	1.268541E-03
3.868861E+03	8.871037E-03	1.292483E-03
3.878806E+03	9.050247E-03	1.316389E-03
3.888752E+03	9.227142E-03	1.339871E-03
3.898698E+03	9.399557E-03	1.362620E-03
3.908643E+03	9.564438E-03	1.384195E-03
3.918589E+03	9.719418E-03	1.404261E-03
3.928534E+03	9.861176E-03	1.422346E-03
3.938480E+03	9.986792E-03	1.438039E-03
3.948426E+03	1.009333E-02	1.450932E-03
3.958371E+03	1.017919E-02	1.460805E-03
3.968317E+03	1.024275E-02	1.467446E-03
3.978263E+03	1.028252E-02	1.470657E-03
3.988208E+03	1.029893E-02	1.470515E-03
3.998154E+03	1.029231E-02	1.467084E-03
4.008100E+03	1.026397E-02	1.460571E-03
4.018045E+03	1.021591E-02	1.451272E-03
4.027991E+03	1.015057E-02	1.439550E-03
4.037937E+03	1.007105E-02	1.425855E-03
4.047882E+03	9.979880E-03	1.410556E-03
4.057828E+03	9.880657E-03	1.394168E-03
4.067774E+03	9.775928E-03	1.377056E-03
4.077719E+03	9.668803E-03	1.359661E-03
4.087665E+03	9.561871E-03	1.342350E-03
4.097611E+03	9.457230E-03	1.325415E-03
4.107556E+03	9.356850E-03	1.309131E-03
4.117502E+03	9.262581E-03	1.293753E-03
4.127448E+03	9.175283E-03	1.279397E-03
4.137393E+03	9.095921E-03	1.266192E-03
4.147339E+03	9.025287E-03	1.254243E-03
4.157285E+03	8.963481E-03	1.243557E-03
4.167230E+03	8.910297E-03	1.234101E-03
4.177176E+03	8.865615E-03	1.225851E-03
4.187122E+03	8.828545E-03	1.218679E-03
4.197067E+03	8.798518E-03	1.212502E-03
4.207013E+03	8.774444E-03	1.207164E-03
4.216959E+03	8.755002E-03	1.202480E-03
4.226904E+03	8.739439E-03	1.198345E-03
4.236850E+03	8.726207E-03	1.194543E-03
4.246796E+03	8.714435E-03	1.190955E-03
4.256741E+03	8.703021E-03	1.187429E-03
4.266687E+03	8.690979E-03	1.183830E-03
4.276632E+03	8.677523E-03	1.180053E-03
4.286578E+03	8.662073E-03	1.176020E-03
4.296524E+03	8.644304E-03	1.171689E-03
4.306469E+03	8.624380E-03	1.167083E-03
4.316415E+03	8.602657E-03	1.162253E-03
4.326361E+03	8.579798E-03	1.157288E-03
4.336306E+03	8.557049E-03	1.152358E-03
4.346252E+03	8.536282E-03	1.147715E-03
4.356198E+03	8.519574E-03	1.143636E-03
4.366143E+03	8.509492E-03	1.140463E-03
4.376089E+03	8.508897E-03	1.138574E-03
4.386035E+03	8.520771E-03	1.138363E-03
4.395980E+03	8.548271E-03	1.140242E-03
4.405926E+03	8.594138E-03	1.144567E-03
4.415872E+03	8.661463E-03	1.151738E-03
4.425817E+03	8.752922E-03	1.162097E-03
4.435763E+03	8.870797E-03	1.175931E-03
4.445709E+03	9.017551E-03	1.193552E-03
4.455654E+03	9.194770E-03	1.215152E-03
4.465600E+03	9.403824E-03	1.240894E-03
4.475546E+03	9.645622E-03	1.270880E-03
4.485491E+03	9.919967E-03	1.305066E-03
4.495437E+03	1.022628E-02	1.343357E-03
4.505383E+03	1.056266E-02	1.385487E-03
4.515328E+03	1.092583E-02	1.431009E-03
4.525274E+03	1.131151E-02	1.479353E-03
4.535220E+03	1.171337E-02	1.529678E-03
4.545165E+03	1.212412E-02	1.581028E-03
4.555111E+03	1.253462E-02	1.632209E-03
4.565057E+03	1.293481E-02	1.681915E-03
4.575002E+03	1.331380E-02	1.728740E-03
4.584948E+03	1.365985E-02	1.771176E-03
4.594894E+03	1.396233E-02	1.807867E-03
4.604839E+03	1.421073E-02	1.837478E-03
4.614785E+03	1.439670E-02	1.858962E-03
4.624730E+03	1.451401E-02	1.871550E-03
4.634676E+03	1.455919E-02	1.874834E-03
4.644622E+03	1.453184E-02	1.868798E-03
4.654567E+03	1.443461E-02	1.853821E-03
4.664513E+03	1.427277E-02	1.830617E-03
4.674459E+03	1.405447E-02	1.800260E-03
4.684404E+03	1.378890E-02	1.763954E-03
4.694350E+03	1.348661E-02	1.723069E-03
4.704296E+03	1.315846E-02	1.679008E-03
4.714241E+03	1.281505E-02	1.633133E-03
4.724187E+03	1.246617E-02	1.586695E-03
4.734133E+03	1.212045E-02	1.540792E-03
4.744078E+03	1.178517E-02	1.496347E-03
4.754024E+03	1.146619E-02	1.454094E-03
4.763970E+03	1.116794E-02	1.414586E-03
4.773915E+03	1.089356E-02	1.378212E-03
4.783861E+03	1.064533E-02	1.345244E-03
4.793807E+03	1.042416E-02	1.315788E-03
4.803752E+03	1.023044E-02	1.289877E-03
4.813698E+03	1.006377E-02	1.267449E-03
4.823644E+03	9.923439E-03	1.248404E-03
4.833589E+03	9.808065E-03	1.232556E-03
4.843535E+03	9.715871E-03	1.219670E-03
4.853481E+03	9.644834E-03	1.209484E-03
4.863426E+03	9.592590E-03	1.201694E-03
4.873372E+03	9.556372E-03	1.195944E-03
4.883318E+03	9.533314E-03	1.191872E-03
4.893263E+03	9.519909E-03	1.189034E-03
4.903209E+03	9.512884E-03	1.187018E-03
4.913155E+03	9.508813E-03	1.185397E-03
4.923100E+03	9.504148E-03	1.183726E-03
4.933046E+03	9.495858E-03	1.181629E-03
4.942991E+03	9.481282E-03	1.178778E-03
4.952937E+03	9.458523E-03	1.174938E-03
4.962883E+03	9.426371E-03	1.169962E-03
4.972828E+03	9.384356E-03	1.163796E-03
4.982774E+03	9.333175E-03	1.156528E-03
4.992720E+03	9.274084E-03	1.148316E-03
5.002665E+03	9.208887E-03	1.139387E-03
5.012611E+03	9.140076E-03	1.130049E-03
5.022557E+03	9.070326E-03	1.120634E-03
5.032502E+03	9.002552E-03	1.111502E-03
5.042448E+03	8.939439E-03	1.102983E-03
5.052394E+03	8.883639E-03	1.095403E-03
5.062339E+03	8.837785E-03	1.089085E-03
5.072285E+03	8.803857E-03	1.084271E-03
5.082231E+03	8.783839E-03	1.081201E-03
5.092176E+03	8.779348E-03	1.080072E-03
5.102122E+03	8.791820E-03	1.081059E-03
5.112068E+03	8.822176E-03	1.084271E-03
5.122013E+03	8.871485E-03	1.089837E-03
5.131959E+03	8.940427E-03	1.097840E-03
5.141905E+03	9.029372E-03	1.108321E-03
5.151850E+03	9.138559E-03	1.121310E-03
5.161796E+03	9.268092E-03	1.136817E-03
5.171742E+03	9.417709E-03	1.154810E-03
5.181687E+03	9.586749E-03	1.175207E-03
5.191633E+03	9.774416E-03	1.197911E-03
5.201579E+03	9.979447E-03	1.222768E-03
5.211524E+03	1.020008E-02	1.249565E-03
5.221470E+03	1.043428E-02	1.278052E-03
5.231416E+03	1.067974E-02	1.307952E-03
5.241361E+03	1.093373E-02	1.338930E-03
5.251307E+03	1.119300E-02	1.370593E-03
5.261253E+03	1.145458E-02	1.402582E-03
5.271198E+03	1.171507E-02	1.434483E-03
5.281144E+03	1.197122E-02	1.465902E-03
5.291089E+03	1.221992E-02	1.496461E-03
5.301035E+03	1.245819E-02	1.525801E-03
5.310981E+03	1.268358E-02	1.553622E-03
5.320926E+03	1.289405E-02	1.579680E-03
5.330872E+03	1.308811E-02	1.603792E-03
5.340818E+03	1.326464E-02	1.625824E-03
5.350763E+03	1.342315E-02	1.645718E-03
5.360709E+03	1.356349E-02	1.663454E-03
5.370655E+03	1.368595E-02	1.679071E-03
5.380600E+03	1.379079E-02	1.692598E-03
5.390546E+03	1.387871E-02	1.704123E-03
5.400492E+03	1.394982E-02	1.713658E-03
5.410437E+03	1.400407E-02	1.721195E-03
5.420383E+03	1.404053E-02	1.726616E-03
5.430329E+03	1.405785E-02	1.729753E-03
5.440274E+03	1.405425E-02	1.730380E-03
5.450220E+03	1.402780E-02	1.728257E-03
5.460166E+03	1.397646E-02	1.723122E-03
5.470111E+03	1.389799E-02	1.714694E-03
5.480057E+03	1.379059E-02	1.702738E-03
5.490003E+03	1.365285E-02	1.687073E-03
5.499948E+03	1.348347E-02	1.667525E-03
5.509894E+03	1.328234E-02	1.644068E-03
5.519840E+03	1.304993E-02	1.616746E-03
5.529785E+03	1.278754E-02	1.585708E-03
5.539731E+03	1.249796E-02	1.551284E-03
5.549677E+03	1.218438E-02	1.513858E-03
5.559622E+03	1.185175E-02	1.474031E-03
5.569568E+03	1.150512E-02	1.432422E-03
5.579514E+03	1.115070E-02	1.389792E-03
5.589459E+03	1.079484E-02	1.346928E-03
5.599405E+03	1.044413E-02	1.304647E-03
5.609351E+03	1.010493E-02	1.263743E-03
5.619296E+03	9.783217E-03	1.224964E-03
5.629242E+03	9.484413E-03	1.188994E-03
5.639187E+03	9.213463E-03	1.156461E-03
5.649133E+03	8.974195E-03	1.127855E-03
5.659079E+03	8.770014E-03	1.103617E-03
5.669024E+03	8.603619E-03	1.084102E-03
5.678970E+03	8.476921E-03	1.069567E-03
5.688916E+03	8.391436E-03	1.060222E-03
5.698861E+03	8.347940E-03	1.056187E-03
5.708807E+03	8.346839E-03	1.057532E-03
5.718753E+03	8.387865E-03	1.064247E-03
5.728698E+03	8.470140E-03	1.076242E-03
5.738644E+03	8.592109E-03	1.093342E-03
5.748590E+03	8.751386E-03	1.115267E-03
5.758535E+03	8.945022E-03	1.141662E-03
5.768481E+03	9.168896E-03	1.172021E-03
5.778427E+03	9.417909E-03	1.205709E-03
5.788372E+03	9.686272E-03	1.242002E-03
5.798318E+03	9.966892E-03	1.280002E-03
5.808264E+03	1.025217E-02	1.318739E-03
5.818209E+03	1.053384E-02	1.357153E-03
5.828155E+03	1.080334E-02	1.394141E-03
5.838101E+03	1.105223E-02	1.428601E-03
5.848046E+03	1.127240E-02	1.459475E-03
5.857992E+03	1.145675E-02	1.485821E-03
5.867938E+03	1.159953E-02	1.506873E-03
5.877883E+03	1.169633E-02	1.522027E-03
5.887829E+03	1.174458E-02	1.530921E-03
5.897775E+03	1.174345E-02	1.533413E-03
5.907720E+03	1.169434E-02	1.529649E-03
5.917666E+03	1.159979E-02	1.519933E-03
5.927612E+03	1.146409E-02	1.504792E-03
5.937557E+03	1.129268E-02	1.484914E-03
5.947503E+03	1.109167E-02	1.461076E-03
5.957449E+03	1.086784E-02	1.434153E-03
5.967394E+03	1.062796E-02	1.405018E-03
5.977340E+03	1.037822E-02	1.374481E-03
5.987285E+03	1.012499E-02	1.343379E-03
5.997231E+03	9.873358E-03	1.312381E-03
6.007177E+03	9.628017E-03	1.282114E-03
6.017122E+03	9.392726E-03	1.253082E-03
6.027068E+03	9.170184E-03	1.225651E-03
6.037014E+03	8.962580E-03	1.200123E-03
6.046959E+03	8.771059E-03	1.176662E-03
6.056905E+03	8.596379E-03	1.155379E-03
6.066851E+03	8.438531E-03	1.136286E-03
6.076796E+03	8.297136E-03	1.119343E-03
6.086742E+03	8.171252E-03	1.104434E-03
6.096688E+03	8.060008E-03	1.091453E-03
6.106633E+03	7.961990E-03	1.080218E-03
6.116579E+03	7.875910E-03	1.070564E-03
6.126525E+03	7.800160E-03	1.062280E-03
6.136470E+03	7.733385E-03	1.055189E-03
6.146416E+03	7.674241E-03	1.049114E-03
6.156362E+03	7.621221E-03	1.043854E-03
6.166307E+03	7.573156E-03	1.039252E-03
6.176253E+03	7.528926E-03	1.035159E-03
6.186199E+03	7.487573E-03	1.031445E-03
6.196144E+03	7.448275E-03	1.027998E-03
6.206090E+03	7.410727E-03	1.024778E-03
6.216036E+03	7.374423E-03	1.021715E-03
6.225981E+03	7.339585E-03	1.018841E-03
6.235927E+03	7.306411E-03	1.016185E-03
6.245873E+03	7.275433E-03	1.013821E-03
6.255818E+03	7.247507E-03	1.011871E-03
6.265764E+03	7.223594E-03	1.010471E-03
6.275710E+03	7.204812E-03	1.009781E-03
6.285655E+03	7.192327E-03	1.009969E-03
6.295601E+03	7.187310E-03	1.011203E-03
6.305546E+03	7.191005E-03	1.013666E-03
6.315492E+03	7.204111E-03	1.017463E-03
6.325438E+03	7.227543E-03	1.022731E-03
6.335383E+03	7.261630E-03	1.029524E-03
6.345329E+03	7.306334E-03	1.037846E-03
6.355275E+03	7.361370E-03	1.047665E-03
6.365220E+03	7.425931E-03	1.058874E-03
6.375166E+03	7.498738E-03	1.071297E-03
6.385112E+03	7.577936E-03	1.084677E-03
6.395057E+03	7.661367E-03	1.098708E-03
6.405003E+03	7.746330E-03	1.113006E-03
6.414949E+03	7.829622E-03	1.127111E-03
6.424894E+03	7.907773E-03	1.140520E-03
6.434840E+03	7.977155E-03	1.152706E-03
6.444786E+03	8.033815E-03	1.163088E-03
6.454731E+03	8.073984E-03	1.171110E-03
6.464677E+03	8.093855E-03	1.176204E-03
6.474623E+03	8.090125E-03	1.177872E-03
6.484568E+03	8.059794E-03	1.175658E-03
6.494514E+03	8.000772E-03	1.169234E-03
6.504460E+03	7.911486E-03	1.158346E-03
6.514405E+03	7.791427E-03	1.142895E-03
6.524351E+03	7.640942E-03	1.122906E-03
6.534297E+03	7.461414E-03	1.098558E-03
6.544242E+03	7.254963E-03	1.070139E-03
6.554188E+03	7.024762E-03	1.038097E-03
6.564134E+03	6.774463E-03	1.002953E-03
6.574079E+03	6.508190E-03	9.653020E-04
6.584025E+03	6.230414E-03	9.257955E-04
6.593971E+03	5.945612E-03	8.850906E-04
6.603916E+03	5.658228E-03	8.438445E-04
6.613862E+03	5.372299E-03	8.026585E-04
6.623808E+03	5.091675E-03	7.621099E-04
6.633753E+03	4.819516E-03	7.226772E-04
6.643699E+03	4.558572E-03	6.847807E-04
6.653644E+03	4.311027E-03	6.487580E-04
6.663590E+03	4.078415E-03	6.148516E-04
6.673536E+03	3.861874E-03	5.832456E-04
6.683481E+03	3.662046E-03	5.540502E-04
6.693427E+03	3.479237E-03	5.273258E-04
6.703373E+03	3.313363E-03	5.030729E-04
6.713318E+03	3.164185E-03	4.812694E-04
6.723264E+03	3.031244E-03	4.618587E-04
6.733210E+03	2.913959E-03	4.447654E-04
6.743155E+03	2.811672E-03	4.299014E-04
6.753101E+03	2.723713E-03	4.171762E-04
6.763047E+03	2.649359E-03	4.064904E-04
6.772992E+03	2.587890E-03	3.977442E-04
6.782938E+03	2.538572E-03	3.908351E-04
6.792884E+03	2.500794E-03	3.856782E-04
6.802829E+03	2.473880E-03	3.821785E-04
6.812775E+03	2.457221E-03	3.802503E-04
6.822721E+03	2.450243E-03	3.798125E-04
6.832666E+03	2.452430E-03	3.807929E-04
6.842612E+03	2.463267E-03	3.831182E-04
6.852558E+03	2.482196E-03	3.867087E-04
6.862503E+03	2.508836E-03	3.915107E-04
6.872449E+03	2.542660E-03	3.974480E-04
6.882395E+03	2.583246E-03	4.044600E-04
6.892340E+03	2.630146E-03	4.124816E-04
6.902286E+03	2.682885E-03	4.214429E-04
6.912232E+03	2.741096E-03	4.312906E-04
6.922177E+03	2.804285E-03	4.419509E-04
6.932123E+03	2.872036E-03	4.533618E-04
6.942069E+03	2.944030E-03	4.654763E-04
6.952014E+03	3.019826E-03	4.782275E-04
6.961960E+03	3.099126E-03	4.915708E-04
6.971906E+03	3.181592E-03	5.054553E-04
6.981851E+03	3.267052E-03	5.198556E-04
6.991797E+03	3.355212E-03	5.347269E-04
7.001742E+03	3.445897E-03	5.500432E-04
7.011688E+03	3.539014E-03	5.657912E-04
7.021634E+03	3.634453E-03	5.819549E-04
7.031579E+03	3.732021E-03	5.985050E-04
7.041525E+03	3.831766E-03	6.154503E-04
7.051471E+03	3.933431E-03	6.327512E-04
7.061416E+03	4.036988E-03	6.504040E-04
7.071362E+03	4.142166E-03	6.683664E-04
7.081308E+03	4.248865E-03	6.866230E-04
7.091253E+03	4.356722E-03	7.051159E-04
7.101199E+03	4.465484E-03	7.238047E-04
7.111145E+03	4.574734E-03	7.426222E-04
7.121090E+03	4.684120E-03	7.615114E-04
7.131036E+03	4.793127E-03	7.803878E-04
7.140982E+03	4.901249E-03	7.991686E-04
7.150927E+03	5.007951E-03	8.177656E-04
7.160873E+03	5.112611E-03	8.360758E-04
7.170819E+03	5.214723E-03	8.540143E-04
7.180764E+03	5.313638E-03	8.714729E-04
7.190710E+03	5.408806E-03	8.883587E-04
7.200656E+03	5.499626E-03	9.045699E-04
7.210601E+03	5.585682E-03	9.200345E-04
7.220547E+03	5.666478E-03	9.346673E-04
7.230493E+03	5.741587E-03	9.483939E-04
7.240438E+03	5.810806E-03	9.611765E-04
7.250384E+03	5.873874E-03	9.729675E-04
7.260330E+03	5.930627E-03	9.837352E-04
7.270275E+03	5.980981E-03	9.934613E-04
7.280221E+03	6.025188E-03	1.002183E-03
7.290167E+03	6.063188E-03	1.009886E-03
7.300112E+03	6.095320E-03	1.016623E-03
7.310058E+03	6.121831E-03	1.022430E-03
7.320004E+03	6.143015E-03	1.027354E-03
7.329949E+03	6.159285E-03	1.031458E-03
7.339895E+03	6.171063E-03	1.034812E-03
7.349840E+03	6.178598E-03	1.037453E-03
7.359786E+03	6.182366E-03	1.039459E-03
7.369732E+03	6.182552E-03	1.040858E-03
7.379677E+03	6.179602E-03	1.041724E-03
7.389623E+03	6.173595E-03	1.042067E-03
7.399569E+03	6.164710E-03	1.041916E-03
7.409514E+03	6.153178E-03	1.041307E-03
7.419460E+03	6.139109E-03	1.040259E-03
7.429406E+03	6.122602E-03	1.038785E-03
7.439351E+03	6.103736E-03	1.036898E-03
7.449297E+03	6.082741E-03	1.034636E-03
7.459243E+03	6.059608E-03	1.031996E-03
7.469188E+03	6.034393E-03	1.028985E-03
7.479134E+03	6.007311E-03	1.025640E-03
7.489080E+03	5.978417E-03	1.021968E-03
7.499025E+03	5.947757E-03	1.017977E-03
7.508971E+03	5.915439E-03	1.013684E-03
7.518917E+03	5.881426E-03	1.009081E-03
7.528862E+03	5.845895E-03	1.004198E-03
7.538808E+03	5.808796E-03	9.990259E-04
7.548754E+03	5.770299E-03	9.935928E-04
7.558699E+03	5.730263E-03	9.878734E-04
7.568645E+03	5.688842E-03	9.818936E-04
7.578591E+03	5.646037E-03	9.756530E-04
7.588536E+03	5.601852E-03	9.691514E-04
7.598482E+03	5.556277E-03	9.623862E-04
7.608428E+03	5.509301E-03	9.553550E-04
7.618373E+03	5.460922E-03	9.480566E-04
7.628319E+03	5.411270E-03	9.405130E-04
7.638265E+03	5.360112E-03	9.326830E-04
7.648210E+03	5.307664E-03	9.246035E-04
7.658156E+03	5.253843E-03	9.162593E-04
7.668101E+03	5.198566E-03	9.076352E-04
7.678047E+03	5.141908E-03	8.987437E-04
7.687993E+03	5.083931E-03	8.895950E-04
7.697938E+03	5.024511E-03	8.801667E-04
7.707884E+03	4.963795E-03	8.704840E-04
7.717830E+03	4.901656E-03	8.605239E-04
