#wls	flux	fluxerr
1.591305E+03	8.707181E-04	9.692160E-05
1.631088E+03	8.536022E-04	9.482620E-05
1.670870E+03	8.372674E-04	9.282122E-05
1.710653E+03	8.217203E-04	9.090702E-05
1.750436E+03	8.071092E-04	8.909959E-05
1.790218E+03	7.932907E-04	8.738263E-05
1.830001E+03	7.802704E-04	8.575635E-05
1.869784E+03	7.683223E-04	8.425032E-05
1.909566E+03	7.571750E-04	8.283422E-05
1.949349E+03	7.469663E-04	8.152256E-05
1.989131E+03	7.378255E-04	8.032883E-05
2.028914E+03	7.297525E-04	7.925226E-05
2.068697E+03	7.227506E-04	7.829243E-05
2.108479E+03	7.168291E-04	7.744953E-05
2.148262E+03	7.120006E-04	7.672410E-05
2.188045E+03	7.084010E-04	7.612983E-05
2.227827E+03	7.060496E-04	7.566776E-05
2.267610E+03	7.050876E-04	7.535189E-05
2.307392E+03	7.055469E-04	7.518435E-05
2.347175E+03	7.075781E-04	7.517983E-05
2.386958E+03	7.111214E-04	7.533048E-05
2.426740E+03	7.164556E-04	7.566422E-05
2.466523E+03	7.235416E-04	7.617514E-05
2.506306E+03	7.327819E-04	7.690364E-05
2.546088E+03	7.440508E-04	7.783428E-05
2.585871E+03	7.577647E-04	7.900823E-05
2.625653E+03	7.739319E-04	8.042365E-05
2.665436E+03	7.929384E-04	8.211770E-05
2.705219E+03	8.150162E-04	8.411104E-05
2.745001E+03	8.406409E-04	8.644898E-05
2.784784E+03	8.702165E-04	8.916867E-05
2.824567E+03	9.041948E-04	9.231147E-05
2.864349E+03	9.430818E-04	9.592345E-05
2.904132E+03	9.874504E-04	1.000566E-04
2.943914E+03	1.038183E-03	1.047930E-04
2.983697E+03	1.096031E-03	1.102004E-04
2.993643E+03	1.111785E-03	1.116741E-04
3.003588E+03	1.127998E-03	1.131903E-04
3.013534E+03	1.144681E-03	1.147503E-04
3.023480E+03	1.161969E-03	1.163670E-04
3.033425E+03	1.179876E-03	1.180420E-04
3.043371E+03	1.198295E-03	1.197642E-04
3.053317E+03	1.217362E-03	1.215471E-04
3.063262E+03	1.237096E-03	1.233923E-04
3.073208E+03	1.257387E-03	1.252886E-04
3.083154E+03	1.278502E-03	1.272626E-04
3.093099E+03	1.300209E-03	1.292907E-04
3.103045E+03	1.322650E-03	1.313870E-04
3.112991E+03	1.345844E-03	1.335531E-04
3.122936E+03	1.369813E-03	1.357908E-04
3.132882E+03	1.394443E-03	1.380888E-04
3.142828E+03	1.420018E-03	1.404748E-04
3.152773E+03	1.446427E-03	1.429377E-04
3.162719E+03	1.473694E-03	1.454792E-04
3.172665E+03	1.501976E-03	1.481149E-04
3.182610E+03	1.531024E-03	1.508198E-04
3.192556E+03	1.561136E-03	1.536230E-04
3.202502E+03	1.592199E-03	1.565129E-04
3.212447E+03	1.624237E-03	1.594917E-04
3.222393E+03	1.657419E-03	1.625755E-04
3.232339E+03	1.691628E-03	1.657527E-04
3.242284E+03	1.727036E-03	1.690396E-04
3.252230E+03	1.763527E-03	1.724244E-04
3.262175E+03	1.801276E-03	1.759240E-04
3.272121E+03	1.840314E-03	1.795409E-04
3.282067E+03	1.880523E-03	1.832632E-04
3.292012E+03	1.922082E-03	1.871079E-04
3.301958E+03	1.965025E-03	1.910779E-04
3.311904E+03	2.009229E-03	1.951608E-04
3.321849E+03	2.055039E-03	1.993895E-04
3.331795E+03	2.102334E-03	2.037520E-04
3.341741E+03	2.151149E-03	2.082510E-04
3.351686E+03	2.201356E-03	2.128735E-04
3.361632E+03	2.253479E-03	2.176698E-04
3.371578E+03	2.307062E-03	2.225954E-04
3.381523E+03	2.362474E-03	2.276851E-04
3.391469E+03	2.419584E-03	2.329258E-04
3.401415E+03	2.478427E-03	2.383203E-04
3.411360E+03	2.539212E-03	2.438879E-04
3.421306E+03	2.601979E-03	2.496320E-04
3.431252E+03	2.666586E-03	2.555384E-04
3.441197E+03	2.733249E-03	2.616268E-04
3.451143E+03	2.802002E-03	2.679000E-04
3.461089E+03	2.872878E-03	2.743605E-04
3.471034E+03	2.945717E-03	2.809921E-04
3.480980E+03	3.020919E-03	2.878324E-04
3.490926E+03	3.098317E-03	2.948647E-04
3.500871E+03	3.177929E-03	3.020898E-04
3.510817E+03	3.259767E-03	3.095084E-04
3.520763E+03	3.344040E-03	3.171392E-04
3.530708E+03	3.430557E-03	3.249636E-04
3.540654E+03	3.519317E-03	3.329805E-04
3.550600E+03	3.610730E-03	3.412281E-04
3.560545E+03	3.704379E-03	3.496660E-04
3.570491E+03	3.800248E-03	3.582919E-04
3.580436E+03	3.898744E-03	3.671434E-04
3.590382E+03	3.999415E-03	3.761773E-04
3.600328E+03	4.102669E-03	3.854310E-04
3.610273E+03	4.208031E-03	3.948590E-04
3.620219E+03	4.315902E-03	4.044983E-04
3.630165E+03	4.426012E-03	4.143228E-04
3.640110E+03	4.538304E-03	4.243263E-04
3.650056E+03	4.652946E-03	4.345238E-04
3.660002E+03	4.769636E-03	4.448865E-04
3.669947E+03	4.888530E-03	4.554280E-04
3.679893E+03	5.009544E-03	4.661399E-04
3.689839E+03	5.132580E-03	4.770123E-04
3.699784E+03	5.257294E-03	4.880127E-04
3.709730E+03	5.384047E-03	4.991741E-04
3.719676E+03	5.512210E-03	5.104373E-04
3.729621E+03	5.642138E-03	5.218349E-04
3.739567E+03	5.773406E-03	5.333271E-04
3.749513E+03	5.905820E-03	5.448955E-04
3.759458E+03	6.039170E-03	5.565204E-04
3.769404E+03	6.173727E-03	5.682263E-04
3.779350E+03	6.308441E-03	5.799167E-04
3.789295E+03	6.443530E-03	5.916114E-04
3.799241E+03	6.578650E-03	6.032787E-04
3.809187E+03	6.713431E-03	6.148850E-04
3.819132E+03	6.847460E-03	6.263924E-04
3.829078E+03	6.980014E-03	6.377353E-04
3.839024E+03	7.111143E-03	6.489189E-04
3.848969E+03	7.239788E-03	6.598472E-04
3.858915E+03	7.365942E-03	6.705204E-04
3.868861E+03	7.488760E-03	6.808627E-04
3.878806E+03	7.607659E-03	6.908222E-04
3.888752E+03	7.722050E-03	7.003471E-04
3.898698E+03	7.831353E-03	7.093864E-04
3.908643E+03	7.935261E-03	7.179141E-04
3.918589E+03	8.032983E-03	7.258606E-04
3.928534E+03	8.124300E-03	7.332084E-04
3.938480E+03	8.208512E-03	7.398965E-04
3.948426E+03	8.285266E-03	7.458957E-04
3.958371E+03	8.354291E-03	7.511843E-04
3.968317E+03	8.415663E-03	7.557717E-04
3.978263E+03	8.469043E-03	7.596301E-04
3.988208E+03	8.514702E-03	7.627865E-04
3.998154E+03	8.552503E-03	7.652315E-04
4.008100E+03	8.582676E-03	7.669882E-04
4.018045E+03	8.605548E-03	7.680885E-04
4.027991E+03	8.621523E-03	7.685708E-04
4.037937E+03	8.631331E-03	7.685025E-04
4.047882E+03	8.635057E-03	7.678934E-04
4.057828E+03	8.633555E-03	7.668212E-04
4.067774E+03	8.627472E-03	7.653453E-04
4.077719E+03	8.617271E-03	7.635081E-04
4.087665E+03	8.603870E-03	7.613924E-04
4.097611E+03	8.587747E-03	7.590415E-04
4.107556E+03	8.569590E-03	7.565172E-04
4.117502E+03	8.549851E-03	7.538600E-04
4.127448E+03	8.529594E-03	7.511642E-04
4.137393E+03	8.508997E-03	7.484456E-04
4.147339E+03	8.488632E-03	7.457548E-04
4.157285E+03	8.469014E-03	7.431370E-04
4.167230E+03	8.450621E-03	7.406337E-04
4.177176E+03	8.433691E-03	7.382657E-04
4.187122E+03	8.418614E-03	7.360667E-04
4.197067E+03	8.405748E-03	7.340673E-04
4.207013E+03	8.395237E-03	7.322795E-04
4.216959E+03	8.387371E-03	7.307280E-04
4.226904E+03	8.382429E-03	7.294362E-04
4.236850E+03	8.380659E-03	7.284252E-04
4.246796E+03	8.381960E-03	7.276850E-04
4.256741E+03	8.386589E-03	7.272372E-04
4.266687E+03	8.394945E-03	7.271155E-04
4.276632E+03	8.406938E-03	7.273111E-04
4.286578E+03	8.422831E-03	7.278457E-04
4.296524E+03	8.442885E-03	7.287408E-04
4.306469E+03	8.467210E-03	7.300049E-04
4.316415E+03	8.496098E-03	7.316620E-04
4.326361E+03	8.529711E-03	7.337248E-04
4.336306E+03	8.568262E-03	7.362104E-04
4.346252E+03	8.612494E-03	7.391814E-04
4.356198E+03	8.662474E-03	7.426422E-04
4.366143E+03	8.718773E-03	7.466400E-04
4.376089E+03	8.781962E-03	7.512222E-04
4.386035E+03	8.852598E-03	7.564347E-04
4.395980E+03	8.931015E-03	7.623041E-04
4.405926E+03	9.017472E-03	7.688504E-04
4.415872E+03	9.112423E-03	7.761103E-04
4.425817E+03	9.215907E-03	7.840850E-04
4.435763E+03	9.327813E-03	7.927630E-04
4.445709E+03	9.448039E-03	8.021338E-04
4.455654E+03	9.576295E-03	8.121706E-04
4.465600E+03	9.711960E-03	8.228191E-04
4.475546E+03	9.854351E-03	8.340198E-04
4.485491E+03	1.000274E-02	8.457102E-04
4.495437E+03	1.015572E-02	8.577692E-04
4.505383E+03	1.031197E-02	8.700852E-04
4.515328E+03	1.047012E-02	8.825433E-04
4.525274E+03	1.062832E-02	8.949856E-04
4.535220E+03	1.078453E-02	9.072421E-04
4.545165E+03	1.093689E-02	9.191581E-04
4.555111E+03	1.108332E-02	9.305589E-04
4.565057E+03	1.122153E-02	9.412545E-04
4.575002E+03	1.134954E-02	9.510826E-04
4.584948E+03	1.146500E-02	9.598473E-04
4.594894E+03	1.156632E-02	9.674207E-04
4.604839E+03	1.165163E-02	9.736495E-04
4.614785E+03	1.171948E-02	9.784174E-04
4.624730E+03	1.176874E-02	9.816330E-04
4.634676E+03	1.179876E-02	9.832478E-04
4.644622E+03	1.180879E-02	9.832035E-04
4.654567E+03	1.179896E-02	9.815150E-04
4.664513E+03	1.176959E-02	9.782145E-04
4.674459E+03	1.172155E-02	9.733777E-04
4.684404E+03	1.165555E-02	9.670677E-04
4.694350E+03	1.157323E-02	9.594246E-04
4.704296E+03	1.147600E-02	9.505677E-04
4.714241E+03	1.136575E-02	9.406574E-04
4.724187E+03	1.124421E-02	9.298384E-04
4.734133E+03	1.111346E-02	9.182849E-04
4.744078E+03	1.097544E-02	9.061588E-04
4.754024E+03	1.083191E-02	8.936070E-04
4.763970E+03	1.068499E-02	8.808042E-04
4.773915E+03	1.053625E-02	8.678796E-04
4.783861E+03	1.038722E-02	8.549606E-04
4.793807E+03	1.023958E-02	8.421844E-04
4.803752E+03	1.009427E-02	8.296276E-04
4.813698E+03	9.952448E-03	8.173847E-04
4.823644E+03	9.815098E-03	8.055355E-04
4.833589E+03	9.682892E-03	7.941340E-04
4.843535E+03	9.556218E-03	7.832110E-04
4.853481E+03	9.435685E-03	7.728149E-04
4.863426E+03	9.321404E-03	7.629538E-04
4.873372E+03	9.213614E-03	7.536458E-04
4.883318E+03	9.112228E-03	7.448826E-04
4.893263E+03	9.017533E-03	7.366865E-04
4.903209E+03	8.929081E-03	7.290196E-04
4.913155E+03	8.847065E-03	7.218967E-04
4.923100E+03	8.771090E-03	7.152843E-04
4.933046E+03	8.701200E-03	7.091851E-04
4.942991E+03	8.637230E-03	7.035848E-04
4.952937E+03	8.578907E-03	6.984601E-04
4.962883E+03	8.526333E-03	6.938186E-04
4.972828E+03	8.479187E-03	6.896334E-04
4.982774E+03	8.437734E-03	6.859252E-04
4.992720E+03	8.401736E-03	6.826741E-04
5.002665E+03	8.371327E-03	6.798903E-04
5.012611E+03	8.346548E-03	6.775764E-04
5.022557E+03	8.327484E-03	6.757389E-04
5.032502E+03	8.314347E-03	6.743944E-04
5.042448E+03	8.307256E-03	6.735519E-04
5.052394E+03	8.306243E-03	6.732138E-04
5.062339E+03	8.311657E-03	6.734076E-04
5.072285E+03	8.323407E-03	6.741257E-04
5.082231E+03	8.341711E-03	6.753855E-04
5.092176E+03	8.366747E-03	6.772010E-04
5.102122E+03	8.398465E-03	6.795678E-04
5.112068E+03	8.436869E-03	6.824861E-04
5.122013E+03	8.481912E-03	6.859520E-04
5.131959E+03	8.533576E-03	6.899640E-04
5.141905E+03	8.591701E-03	6.945090E-04
5.151850E+03	8.655836E-03	6.995508E-04
5.161796E+03	8.725866E-03	7.050800E-04
5.171742E+03	8.801404E-03	7.110658E-04
5.181687E+03	8.881757E-03	7.174524E-04
5.191633E+03	8.966587E-03	7.242130E-04
5.201579E+03	9.055155E-03	7.312881E-04
5.211524E+03	9.146769E-03	7.386224E-04
5.221470E+03	9.240640E-03	7.461528E-04
5.231416E+03	9.335948E-03	7.538137E-04
5.241361E+03	9.431701E-03	7.615256E-04
5.251307E+03	9.527082E-03	7.692231E-04
5.261253E+03	9.621031E-03	7.768214E-04
5.271198E+03	9.712595E-03	7.842441E-04
5.281144E+03	9.800921E-03	7.914230E-04
5.291089E+03	9.884847E-03	7.982649E-04
5.301035E+03	9.963469E-03	8.046972E-04
5.310981E+03	1.003606E-02	8.106616E-04
5.320926E+03	1.010170E-02	8.160846E-04
5.330872E+03	1.015969E-02	8.209101E-04
5.340818E+03	1.020943E-02	8.250882E-04
5.350763E+03	1.025026E-02	8.285681E-04
5.360709E+03	1.028180E-02	8.313169E-04
5.370655E+03	1.030384E-02	8.333191E-04
5.380600E+03	1.031598E-02	8.345403E-04
5.390546E+03	1.031819E-02	8.349797E-04
5.400492E+03	1.031043E-02	8.346314E-04
5.410437E+03	1.029251E-02	8.334801E-04
5.420383E+03	1.026445E-02	8.315270E-04
5.430329E+03	1.022594E-02	8.287443E-04
5.440274E+03	1.017719E-02	8.251482E-04
5.450220E+03	1.011829E-02	8.207438E-04
5.460166E+03	1.004922E-02	8.155288E-04
5.470111E+03	9.970575E-03	8.095493E-04
5.480057E+03	9.882754E-03	8.028354E-04
5.490003E+03	9.786536E-03	7.954490E-04
5.499948E+03	9.682591E-03	7.874426E-04
5.509894E+03	9.571971E-03	7.789001E-04
5.519840E+03	9.455717E-03	7.699044E-04
5.529785E+03	9.334969E-03	7.605468E-04
5.539731E+03	9.210953E-03	7.509256E-04
5.549677E+03	9.085058E-03	7.411530E-04
5.559622E+03	8.958604E-03	7.313355E-04
5.569568E+03	8.832924E-03	7.215811E-04
5.579514E+03	8.709445E-03	7.120058E-04
5.589459E+03	8.589352E-03	7.027061E-04
5.599405E+03	8.473980E-03	6.937913E-04
5.609351E+03	8.364501E-03	6.853573E-04
5.619296E+03	8.262070E-03	6.774997E-04
5.629242E+03	8.167661E-03	6.702988E-04
5.639187E+03	8.082019E-03	6.638169E-04
5.649133E+03	8.006057E-03	6.581303E-04
5.659079E+03	7.940344E-03	6.532873E-04
5.669024E+03	7.885237E-03	6.493189E-04
5.678970E+03	7.841190E-03	6.462647E-04
5.688916E+03	7.808167E-03	6.441236E-04
5.698861E+03	7.786320E-03	6.429103E-04
5.708807E+03	7.775376E-03	6.426045E-04
5.718753E+03	7.775090E-03	6.431883E-04
5.728698E+03	7.784959E-03	6.446223E-04
5.738644E+03	7.804332E-03	6.468550E-04
5.748590E+03	7.832401E-03	6.498213E-04
5.758535E+03	7.868197E-03	6.534430E-04
5.768481E+03	7.910726E-03	6.576393E-04
5.778427E+03	7.958576E-03	6.622943E-04
5.788372E+03	8.010601E-03	6.673139E-04
5.798318E+03	8.065281E-03	6.725724E-04
5.808264E+03	8.121229E-03	6.779548E-04
5.818209E+03	8.176821E-03	6.833257E-04
5.828155E+03	8.230630E-03	6.885655E-04
5.838101E+03	8.280960E-03	6.935318E-04
5.848046E+03	8.326689E-03	6.981295E-04
5.857992E+03	8.366189E-03	7.022207E-04
5.867938E+03	8.398475E-03	7.057208E-04
5.877883E+03	8.422447E-03	7.085351E-04
5.887829E+03	8.437175E-03	7.105829E-04
5.897775E+03	8.442271E-03	7.118287E-04
5.907720E+03	8.437257E-03	7.122291E-04
5.917666E+03	8.421996E-03	7.117695E-04
5.927612E+03	8.396472E-03	7.104453E-04
5.937557E+03	8.361095E-03	7.082878E-04
5.947503E+03	8.316268E-03	7.053283E-04
5.957449E+03	8.262765E-03	7.016291E-04
5.967394E+03	8.201196E-03	6.972394E-04
5.977340E+03	8.132696E-03	6.922529E-04
5.987285E+03	8.058060E-03	6.867349E-04
5.997231E+03	7.978538E-03	6.807901E-04
6.007177E+03	7.894995E-03	6.744902E-04
6.017122E+03	7.808476E-03	6.679234E-04
6.027068E+03	7.720002E-03	6.611756E-04
6.037014E+03	7.630608E-03	6.543348E-04
6.046959E+03	7.541084E-03	6.474682E-04
6.056905E+03	7.452128E-03	6.406355E-04
6.066851E+03	7.364535E-03	6.339050E-04
6.076796E+03	7.278908E-03	6.273289E-04
6.086742E+03	7.195763E-03	6.209521E-04
6.096688E+03	7.115340E-03	6.147958E-04
6.106633E+03	7.038158E-03	6.089058E-04
6.116579E+03	6.964378E-03	6.032967E-04
6.126525E+03	6.894185E-03	5.979856E-04
6.136470E+03	6.827710E-03	5.929848E-04
6.146416E+03	6.765008E-03	5.883001E-04
6.156362E+03	6.706109E-03	5.839354E-04
6.166307E+03	6.650998E-03	5.798902E-04
6.176253E+03	6.599542E-03	5.761543E-04
6.186199E+03	6.551751E-03	5.727296E-04
6.196144E+03	6.507538E-03	5.696094E-04
6.206090E+03	6.466711E-03	5.667783E-04
6.216036E+03	6.429226E-03	5.642333E-04
6.225981E+03	6.394948E-03	5.619635E-04
6.235927E+03	6.363654E-03	5.599502E-04
6.245873E+03	6.335256E-03	5.581869E-04
6.255818E+03	6.309491E-03	5.566510E-04
6.265764E+03	6.286303E-03	5.553385E-04
6.275710E+03	6.265317E-03	5.542170E-04
6.285655E+03	6.246251E-03	5.532623E-04
6.295601E+03	6.228979E-03	5.524637E-04
6.305546E+03	6.212986E-03	5.517759E-04
6.315492E+03	6.198054E-03	5.511801E-04
6.325438E+03	6.183578E-03	5.506226E-04
6.335383E+03	6.169230E-03	5.500743E-04
6.345329E+03	6.154312E-03	5.494728E-04
6.355275E+03	6.138386E-03	5.487787E-04
6.365220E+03	6.120741E-03	5.479279E-04
6.375166E+03	6.100697E-03	5.468587E-04
6.385112E+03	6.077627E-03	5.455140E-04
6.395057E+03	6.050725E-03	5.438203E-04
6.405003E+03	6.019340E-03	5.417172E-04
6.414949E+03	5.982754E-03	5.391387E-04
6.424894E+03	5.940203E-03	5.360137E-04
6.434840E+03	5.891136E-03	5.322903E-04
6.444786E+03	5.835068E-03	5.279222E-04
6.454731E+03	5.771384E-03	5.228511E-04
6.464677E+03	5.699874E-03	5.170551E-04
6.474623E+03	5.620324E-03	5.105120E-04
6.484568E+03	5.532580E-03	5.032048E-04
6.494514E+03	5.436785E-03	4.951435E-04
6.504460E+03	5.333177E-03	4.863468E-04
6.514405E+03	5.222141E-03	4.768471E-04
6.524351E+03	5.104217E-03	4.666910E-04
6.534297E+03	4.980152E-03	4.559444E-04
6.544242E+03	4.850680E-03	4.446723E-04
6.554188E+03	4.716768E-03	4.329615E-04
6.564134E+03	4.579397E-03	4.209005E-04
6.574079E+03	4.439656E-03	4.085884E-04
6.584025E+03	4.298541E-03	3.961160E-04
6.593971E+03	4.157111E-03	3.835805E-04
6.603916E+03	4.016453E-03	3.710822E-04
6.613862E+03	3.877551E-03	3.587125E-04
6.623808E+03	3.741324E-03	3.465570E-04
6.633753E+03	3.608611E-03	3.346947E-04
6.643699E+03	3.480211E-03	3.232009E-04
6.653644E+03	3.356773E-03	3.121375E-04
6.663590E+03	3.238803E-03	3.015535E-04
6.673536E+03	3.126844E-03	2.915014E-04
6.683481E+03	3.021166E-03	2.820087E-04
6.693427E+03	2.922123E-03	2.731105E-04
6.703373E+03	2.829896E-03	2.648263E-04
6.713318E+03	2.744558E-03	2.571654E-04
6.723264E+03	2.666159E-03	2.501350E-04
6.733210E+03	2.594767E-03	2.437437E-04
6.743155E+03	2.530290E-03	2.379856E-04
6.753101E+03	2.472604E-03	2.328515E-04
6.763047E+03	2.421664E-03	2.283394E-04
6.772992E+03	2.377328E-03	2.244384E-04
6.782938E+03	2.339409E-03	2.211331E-04
6.792884E+03	2.307744E-03	2.184104E-04
6.802829E+03	2.282196E-03	2.162595E-04
6.812775E+03	2.262595E-03	2.146664E-04
6.822721E+03	2.248738E-03	2.136140E-04
6.832666E+03	2.240492E-03	2.130915E-04
6.842612E+03	2.237692E-03	2.130853E-04
6.852558E+03	2.240214E-03	2.135853E-04
6.862503E+03	2.247839E-03	2.145726E-04
6.872449E+03	2.260453E-03	2.160379E-04
6.882395E+03	2.277909E-03	2.179691E-04
6.892340E+03	2.300069E-03	2.203543E-04
6.902286E+03	2.326796E-03	2.231822E-04
6.912232E+03	2.357952E-03	2.264410E-04
6.922177E+03	2.393438E-03	2.301226E-04
6.932123E+03	2.433049E-03	2.342089E-04
6.942069E+03	2.476681E-03	2.386912E-04
6.952014E+03	2.524231E-03	2.435608E-04
6.961960E+03	2.575482E-03	2.487980E-04
6.971906E+03	2.630320E-03	2.543931E-04
6.981851E+03	2.688589E-03	2.603322E-04
6.991797E+03	2.750126E-03	2.666006E-04
7.001742E+03	2.814762E-03	2.731827E-04
7.011688E+03	2.882271E-03	2.800578E-04
7.021634E+03	2.952505E-03	2.872123E-04
7.031579E+03	3.025263E-03	2.946274E-04
7.041525E+03	3.100285E-03	3.022787E-04
7.051471E+03	3.177343E-03	3.101445E-04
7.061416E+03	3.256196E-03	3.182018E-04
7.071362E+03	3.336641E-03	3.264314E-04
7.081308E+03	3.418312E-03	3.347979E-04
7.091253E+03	3.501035E-03	3.432844E-04
7.101199E+03	3.584415E-03	3.518526E-04
7.111145E+03	3.668205E-03	3.604781E-04
7.121090E+03	3.752042E-03	3.691255E-04
7.131036E+03	3.835608E-03	3.777632E-04
7.140982E+03	3.918580E-03	3.863593E-04
7.150927E+03	4.000694E-03	3.948874E-04
7.160873E+03	4.081510E-03	4.033039E-04
7.170819E+03	4.160708E-03	4.115762E-04
7.180764E+03	4.238038E-03	4.196793E-04
7.190710E+03	4.313201E-03	4.275828E-04
7.200656E+03	4.385787E-03	4.352450E-04
7.210601E+03	4.455590E-03	4.426448E-04
7.220547E+03	4.522298E-03	4.497502E-04
7.230493E+03	4.585757E-03	4.565447E-04
7.240438E+03	4.645705E-03	4.630011E-04
7.250384E+03	4.701975E-03	4.691017E-04
7.260330E+03	4.754431E-03	4.748315E-04
7.270275E+03	4.802970E-03	4.801790E-04
7.280221E+03	4.847444E-03	4.851283E-04
7.290167E+03	4.887811E-03	4.896736E-04
7.300112E+03	4.924056E-03	4.938122E-04
7.310058E+03	4.956194E-03	4.975444E-04
7.320004E+03	4.984267E-03	5.008729E-04
7.329949E+03	5.008334E-03	5.038025E-04
7.339895E+03	5.028414E-03	5.063337E-04
7.349840E+03	5.044604E-03	5.084753E-04
7.359786E+03	5.057098E-03	5.102455E-04
7.369732E+03	5.065877E-03	5.116412E-04
7.379677E+03	5.071235E-03	5.126910E-04
7.389623E+03	5.073236E-03	5.134004E-04
7.399569E+03	5.071962E-03	5.137767E-04
7.409514E+03	5.067712E-03	5.138491E-04
7.419460E+03	5.060483E-03	5.136166E-04
7.429406E+03	5.050582E-03	5.131094E-04
7.439351E+03	5.038001E-03	5.123260E-04
7.449297E+03	5.022953E-03	5.112871E-04
7.459243E+03	5.005653E-03	5.100141E-04
7.469188E+03	4.986070E-03	5.085031E-04
7.479134E+03	4.964403E-03	5.067738E-04
7.489080E+03	4.940839E-03	5.048447E-04
7.499025E+03	4.915407E-03	5.027182E-04
7.508971E+03	4.888194E-03	5.004027E-04
7.518917E+03	4.859356E-03	4.979138E-04
7.528862E+03	4.828900E-03	4.952517E-04
7.538808E+03	4.796958E-03	4.924295E-04
7.548754E+03	4.763511E-03	4.894450E-04
7.558699E+03	4.728750E-03	4.863172E-04
7.568645E+03	4.692563E-03	4.830345E-04
7.578591E+03	4.655047E-03	4.796063E-04
7.588536E+03	4.616218E-03	4.760341E-04
7.598482E+03	4.576084E-03	4.723184E-04
7.608428E+03	4.534716E-03	4.684661E-04
7.618373E+03	4.492036E-03	4.644689E-04
7.628319E+03	4.448033E-03	4.603253E-04
7.638265E+03	4.402692E-03	4.560334E-04
7.648210E+03	4.356061E-03	4.515980E-04
7.658156E+03	4.308120E-03	4.470166E-04
7.668101E+03	4.258714E-03	4.422729E-04
7.678047E+03	4.208025E-03	4.373854E-04
7.687993E+03	4.155905E-03	4.323385E-04
7.697938E+03	4.102346E-03	4.271310E-04
7.707884E+03	4.047411E-03	4.217691E-04
7.717830E+03	3.991042E-03	4.162464E-04
