#wls	flux	fluxerr
1.591305E+03	9.075287E-04	1.262342E-04
1.631088E+03	8.891436E-04	1.235400E-04
1.670870E+03	8.714224E-04	1.209410E-04
1.710653E+03	8.546842E-04	1.184813E-04
1.750436E+03	8.387758E-04	1.161392E-04
1.790218E+03	8.237022E-04	1.139152E-04
1.830001E+03	8.096096E-04	1.118292E-04
1.869784E+03	7.964944E-04	1.098803E-04
1.909566E+03	7.843547E-04	1.080678E-04
1.949349E+03	7.731904E-04	1.063913E-04
1.989131E+03	7.631343E-04	1.048686E-04
2.028914E+03	7.540572E-04	1.034815E-04
2.068697E+03	7.460930E-04	1.022478E-04
2.108479E+03	7.392494E-04	1.011681E-04
2.148262E+03	7.336581E-04	1.002596E-04
2.188045E+03	7.292121E-04	9.950722E-05
2.227827E+03	7.261688E-04	9.894531E-05
2.267610E+03	7.244336E-04	9.856015E-05
2.307392E+03	7.241537E-04	9.837098E-05
2.347175E+03	7.254793E-04	9.839727E-05
2.386958E+03	7.283444E-04	9.862902E-05
2.426740E+03	7.330270E-04	9.910280E-05
2.466523E+03	7.394803E-04	9.981109E-05
2.506306E+03	7.479980E-04	1.007922E-04
2.546088E+03	7.587688E-04	1.020700E-04
2.585871E+03	7.717782E-04	1.036411E-04
2.625653E+03	7.872497E-04	1.055335E-04
2.665436E+03	8.056730E-04	1.078111E-04
2.705219E+03	8.270495E-04	1.104718E-04
2.745001E+03	8.519571E-04	1.135903E-04
2.784784E+03	8.806823E-04	1.172018E-04
2.824567E+03	9.138856E-04	1.213912E-04
2.864349E+03	9.517278E-04	1.261762E-04
2.904132E+03	9.952114E-04	1.316854E-04
2.943914E+03	1.044743E-03	1.379682E-04
2.983697E+03	1.101153E-03	1.451286E-04
2.993643E+03	1.116524E-03	1.470808E-04
3.003588E+03	1.132343E-03	1.490896E-04
3.013534E+03	1.148621E-03	1.511566E-04
3.023480E+03	1.165491E-03	1.532992E-04
3.033425E+03	1.182968E-03	1.555190E-04
3.043371E+03	1.200943E-03	1.578018E-04
3.053317E+03	1.219552E-03	1.601653E-04
3.063262E+03	1.238812E-03	1.626115E-04
3.073208E+03	1.258613E-03	1.651259E-04
3.083154E+03	1.279094E-03	1.677267E-04
3.093099E+03	1.300274E-03	1.704160E-04
3.103045E+03	1.322040E-03	1.731791E-04
3.112991E+03	1.344668E-03	1.760518E-04
3.122936E+03	1.367917E-03	1.790025E-04
3.132882E+03	1.391934E-03	1.820504E-04
3.142828E+03	1.416871E-03	1.852150E-04
3.152773E+03	1.442484E-03	1.884643E-04
3.162719E+03	1.468926E-03	1.918180E-04
3.172665E+03	1.496351E-03	1.952964E-04
3.182610E+03	1.524511E-03	1.988666E-04
3.192556E+03	1.553701E-03	2.025669E-04
3.202502E+03	1.583807E-03	2.063823E-04
3.212447E+03	1.614851E-03	2.103155E-04
3.222393E+03	1.646998E-03	2.143879E-04
3.232339E+03	1.680133E-03	2.185841E-04
3.242284E+03	1.714280E-03	2.229069E-04
3.252230E+03	1.749609E-03	2.273785E-04
3.262175E+03	1.786150E-03	2.320022E-04
3.272121E+03	1.823782E-03	2.367623E-04
3.282067E+03	1.862532E-03	2.416619E-04
3.292012E+03	1.902577E-03	2.467239E-04
3.301958E+03	1.943950E-03	2.519519E-04
3.311904E+03	1.986680E-03	2.573499E-04
3.321849E+03	2.030801E-03	2.629215E-04
3.331795E+03	2.076185E-03	2.686502E-04
3.341741E+03	2.123182E-03	2.745808E-04
3.351686E+03	2.171505E-03	2.806758E-04
3.361632E+03	2.221509E-03	2.869810E-04
3.371578E+03	2.272902E-03	2.934582E-04
3.381523E+03	2.326047E-03	3.001539E-04
3.391469E+03	2.380814E-03	3.070509E-04
3.401415E+03	2.437406E-03	3.141752E-04
3.411360E+03	2.495689E-03	3.215090E-04
3.421306E+03	2.555696E-03	3.290562E-04
3.431252E+03	2.617636E-03	3.368432E-04
3.441197E+03	2.681364E-03	3.448512E-04
3.451143E+03	2.747090E-03	3.531067E-04
3.461089E+03	2.814849E-03	3.616135E-04
3.471034E+03	2.884667E-03	3.703749E-04
3.480980E+03	2.956385E-03	3.793697E-04
3.490926E+03	3.030210E-03	3.886242E-04
3.500871E+03	3.106354E-03	3.981652E-04
3.510817E+03	3.184452E-03	4.079452E-04
3.520763E+03	3.264906E-03	4.180154E-04
3.530708E+03	3.347531E-03	4.283516E-04
3.540654E+03	3.432334E-03	4.389541E-04
3.550600E+03	3.519520E-03	4.498488E-04
3.560545E+03	3.608887E-03	4.610093E-04
3.570491E+03	3.700425E-03	4.724339E-04
3.580436E+03	3.794334E-03	4.841476E-04
3.590382E+03	3.890602E-03	4.961483E-04
3.600328E+03	3.989211E-03	5.084333E-04
3.610273E+03	4.089917E-03	5.209709E-04
3.620219E+03	4.193125E-03	5.338123E-04
3.630165E+03	4.298357E-03	5.468962E-04
3.640110E+03	4.406011E-03	5.602727E-04
3.650056E+03	4.515584E-03	5.738772E-04
3.660002E+03	4.627467E-03	5.877592E-04
3.669947E+03	4.741592E-03	6.019095E-04
3.679893E+03	4.857646E-03	6.162880E-04
3.689839E+03	4.975534E-03	6.308819E-04
3.699784E+03	5.095381E-03	6.457072E-04
3.709730E+03	5.216831E-03	6.607180E-04
3.719676E+03	5.339986E-03	6.759269E-04
3.729621E+03	5.464682E-03	6.913131E-04
3.739567E+03	5.590756E-03	7.068554E-04
3.749513E+03	5.717994E-03	7.225266E-04
3.759458E+03	5.846181E-03	7.382992E-04
3.769404E+03	5.975060E-03	7.541409E-04
3.779350E+03	6.104346E-03	7.700154E-04
3.789295E+03	6.233725E-03	7.858832E-04
3.799241E+03	6.363117E-03	8.017340E-04
3.809187E+03	6.491884E-03	8.174877E-04
3.819132E+03	6.619868E-03	8.331246E-04
3.829078E+03	6.746116E-03	8.485250E-04
3.839024E+03	6.870938E-03	8.637283E-04
3.848969E+03	6.993312E-03	8.786066E-04
3.858915E+03	7.112995E-03	8.931298E-04
3.868861E+03	7.229180E-03	9.071974E-04
3.878806E+03	7.341607E-03	9.207775E-04
3.888752E+03	7.449740E-03	9.338039E-04
3.898698E+03	7.553058E-03	9.462122E-04
3.908643E+03	7.650792E-03	9.579074E-04
3.918589E+03	7.742751E-03	9.688666E-04
3.928534E+03	7.828509E-03	9.790382E-04
3.938480E+03	7.907694E-03	9.883768E-04
3.948426E+03	7.980012E-03	9.968474E-04
3.958371E+03	8.044982E-03	1.004391E-03
3.968317E+03	8.102707E-03	1.011023E-03
3.978263E+03	8.153133E-03	1.016737E-03
3.988208E+03	8.196286E-03	1.021539E-03
3.998154E+03	8.232280E-03	1.025445E-03
4.008100E+03	8.261072E-03	1.028450E-03
4.018045E+03	8.283206E-03	1.030623E-03
4.027991E+03	8.298792E-03	1.031981E-03
4.037937E+03	8.308285E-03	1.032581E-03
4.047882E+03	8.312405E-03	1.032514E-03
4.057828E+03	8.311693E-03	1.031848E-03
4.067774E+03	8.306273E-03	1.030599E-03
4.077719E+03	8.296982E-03	1.028873E-03
4.087665E+03	8.284447E-03	1.026748E-03
4.097611E+03	8.269287E-03	1.024301E-03
4.107556E+03	8.251911E-03	1.021583E-03
4.117502E+03	8.233137E-03	1.018697E-03
4.127448E+03	8.213338E-03	1.015689E-03
4.137393E+03	8.192874E-03	1.012603E-03
4.147339E+03	8.172675E-03	1.009554E-03
4.157285E+03	8.152836E-03	1.006555E-03
4.167230E+03	8.133815E-03	1.003662E-03
4.177176E+03	8.115847E-03	1.000903E-03
4.187122E+03	8.099708E-03	9.983738E-04
4.197067E+03	8.085381E-03	9.960726E-04
4.207013E+03	8.073188E-03	9.940384E-04
4.216959E+03	8.063454E-03	9.923109E-04
4.226904E+03	8.056282E-03	9.909022E-04
4.236850E+03	8.051955E-03	9.898467E-04
4.246796E+03	8.050560E-03	9.891546E-04
4.256741E+03	8.052538E-03	9.888795E-04
4.266687E+03	8.057966E-03	9.890303E-04
4.276632E+03	8.067115E-03	9.896397E-04
4.286578E+03	8.079913E-03	9.906981E-04
4.296524E+03	8.096972E-03	9.922800E-04
4.306469E+03	8.118091E-03	9.943601E-04
4.316415E+03	8.143906E-03	9.970156E-04
4.326361E+03	8.174429E-03	1.000247E-03
4.336306E+03	8.210026E-03	1.004098E-03
4.346252E+03	8.251095E-03	1.008618E-03
4.356198E+03	8.297905E-03	1.013837E-03
4.366143E+03	8.350907E-03	1.019810E-03
4.376089E+03	8.410376E-03	1.026569E-03
4.386035E+03	8.476729E-03	1.034165E-03
4.395980E+03	8.550335E-03	1.042642E-03
4.405926E+03	8.631337E-03	1.052014E-03
4.415872E+03	8.720093E-03	1.062326E-03
4.425817E+03	8.816264E-03	1.073535E-03
4.435763E+03	8.920132E-03	1.085673E-03
4.445709E+03	9.031398E-03	1.098703E-03
4.455654E+03	9.149757E-03	1.112587E-03
4.465600E+03	9.274431E-03	1.127230E-03
4.475546E+03	9.405098E-03	1.142591E-03
4.485491E+03	9.540772E-03	1.158550E-03
4.495437E+03	9.680304E-03	1.174967E-03
4.505383E+03	9.822505E-03	1.191697E-03
4.515328E+03	9.966179E-03	1.208595E-03
4.525274E+03	1.010949E-02	1.225439E-03
4.535220E+03	1.025093E-02	1.242047E-03
4.545165E+03	1.038876E-02	1.258206E-03
4.555111E+03	1.052097E-02	1.273676E-03
4.565057E+03	1.064568E-02	1.288231E-03
4.575002E+03	1.076103E-02	1.301646E-03
4.584948E+03	1.086540E-02	1.313727E-03
4.594894E+03	1.095695E-02	1.324253E-03
4.604839E+03	1.103398E-02	1.333023E-03
4.614785E+03	1.109552E-02	1.339921E-03
4.624730E+03	1.114022E-02	1.344784E-03
4.634676E+03	1.116746E-02	1.347544E-03
4.644622E+03	1.117682E-02	1.348149E-03
4.654567E+03	1.116817E-02	1.346589E-03
4.664513E+03	1.114158E-02	1.342872E-03
4.674459E+03	1.109788E-02	1.337103E-03
4.684404E+03	1.103759E-02	1.329346E-03
4.694350E+03	1.096211E-02	1.319773E-03
4.704296E+03	1.087244E-02	1.308504E-03
4.714241E+03	1.077038E-02	1.295758E-03
4.724187E+03	1.065739E-02	1.281712E-03
4.734133E+03	1.053517E-02	1.266573E-03
4.744078E+03	1.040545E-02	1.250549E-03
4.754024E+03	1.027023E-02	1.233882E-03
4.763970E+03	1.013090E-02	1.216737E-03
4.773915E+03	9.989179E-03	1.199322E-03
4.783861E+03	9.846530E-03	1.181814E-03
4.793807E+03	9.704287E-03	1.164371E-03
4.803752E+03	9.563781E-03	1.147154E-03
4.813698E+03	9.425920E-03	1.130270E-03
4.823644E+03	9.291708E-03	1.113840E-03
4.833589E+03	9.162003E-03	1.097966E-03
4.843535E+03	9.037145E-03	1.082687E-03
4.853481E+03	8.917835E-03	1.068088E-03
4.863426E+03	8.804392E-03	1.054205E-03
4.873372E+03	8.697037E-03	1.041065E-03
4.883318E+03	8.595905E-03	1.028682E-03
4.893263E+03	8.501152E-03	1.017075E-03
4.903209E+03	8.412657E-03	1.006229E-03
4.913155E+03	8.330469E-03	9.961477E-04
4.923100E+03	8.254606E-03	9.868336E-04
4.933046E+03	8.184737E-03	9.782463E-04
4.942991E+03	8.121060E-03	9.704090E-04
4.952937E+03	8.063240E-03	9.632808E-04
4.962883E+03	8.011259E-03	9.568594E-04
4.972828E+03	7.965033E-03	9.511339E-04
4.982774E+03	7.924577E-03	9.461057E-04
4.992720E+03	7.889725E-03	9.417546E-04
5.002665E+03	7.860652E-03	9.381010E-04
5.012611E+03	7.837143E-03	9.351189E-04
5.022557E+03	7.819298E-03	9.328199E-04
5.032502E+03	7.807154E-03	9.312079E-04
5.042448E+03	7.800831E-03	9.302972E-04
5.052394E+03	7.800388E-03	9.300941E-04
5.062339E+03	7.805752E-03	9.305900E-04
5.072285E+03	7.816975E-03	9.317907E-04
5.082231E+03	7.834273E-03	9.337218E-04
5.092176E+03	7.857447E-03	9.363594E-04
5.102122E+03	7.886675E-03	9.397245E-04
5.112068E+03	7.921708E-03	9.437873E-04
5.122013E+03	7.962532E-03	9.485462E-04
5.131959E+03	8.009116E-03	9.539973E-04
5.141905E+03	8.061054E-03	9.600924E-04
5.151850E+03	8.118294E-03	9.668252E-04
5.161796E+03	8.180418E-03	9.741460E-04
5.171742E+03	8.246959E-03	9.819994E-04
5.181687E+03	8.317665E-03	9.903556E-04
5.191633E+03	8.391839E-03	9.991316E-04
5.201579E+03	8.469108E-03	1.008283E-03
5.211524E+03	8.548640E-03	1.017712E-03
5.221470E+03	8.629745E-03	1.027336E-03
5.231416E+03	8.711907E-03	1.037094E-03
5.241361E+03	8.794034E-03	1.046856E-03
5.251307E+03	8.875526E-03	1.056552E-03
5.261253E+03	8.955453E-03	1.066070E-03
5.271198E+03	9.033080E-03	1.075324E-03
5.281144E+03	9.107357E-03	1.084190E-03
5.291089E+03	9.177460E-03	1.092568E-03
5.301035E+03	9.242832E-03	1.100394E-03
5.310981E+03	9.302390E-03	1.107538E-03
5.320926E+03	9.355665E-03	1.113945E-03
5.330872E+03	9.401927E-03	1.119529E-03
5.340818E+03	9.440628E-03	1.124223E-03
5.350763E+03	9.471189E-03	1.127959E-03
5.360709E+03	9.493465E-03	1.130720E-03
5.370655E+03	9.506819E-03	1.132430E-03
5.380600E+03	9.511262E-03	1.133090E-03
5.390546E+03	9.506546E-03	1.132669E-03
5.400492E+03	9.492591E-03	1.131159E-03
5.410437E+03	9.469361E-03	1.128555E-03
5.420383E+03	9.436868E-03	1.124856E-03
5.430329E+03	9.395164E-03	1.120069E-03
5.440274E+03	9.344269E-03	1.114195E-03
5.450220E+03	9.284627E-03	1.107286E-03
5.460166E+03	9.216338E-03	1.099354E-03
5.470111E+03	9.139939E-03	1.090460E-03
5.480057E+03	9.055977E-03	1.080671E-03
5.490003E+03	8.965117E-03	1.070063E-03
5.499948E+03	8.868115E-03	1.058727E-03
5.509894E+03	8.765949E-03	1.046778E-03
5.519840E+03	8.659454E-03	1.034315E-03
5.529785E+03	8.549651E-03	1.021459E-03
5.539731E+03	8.437728E-03	1.008352E-03
5.549677E+03	8.324791E-03	9.951250E-04
5.559622E+03	8.212065E-03	9.819238E-04
5.569568E+03	8.100487E-03	9.688601E-04
5.579514E+03	7.991458E-03	9.561014E-04
5.589459E+03	7.885860E-03	9.437529E-04
5.599405E+03	7.784808E-03	9.319482E-04
5.609351E+03	7.689257E-03	9.208018E-04
5.619296E+03	7.600176E-03	9.104299E-04
5.629242E+03	7.518254E-03	9.009157E-04
5.639187E+03	7.444266E-03	8.923525E-04
5.649133E+03	7.378868E-03	8.848196E-04
5.659079E+03	7.322436E-03	8.783630E-04
5.669024E+03	7.275298E-03	8.730229E-04
5.678970E+03	7.237764E-03	8.688375E-04
5.688916E+03	7.209914E-03	8.658177E-04
5.698861E+03	7.191711E-03	8.639599E-04
5.708807E+03	7.182977E-03	8.632440E-04
5.718753E+03	7.183491E-03	8.636447E-04
5.728698E+03	7.192729E-03	8.651002E-04
5.738644E+03	7.210128E-03	8.675439E-04
5.748590E+03	7.235067E-03	8.709023E-04
5.758535E+03	7.266819E-03	8.750888E-04
5.768481E+03	7.304189E-03	8.799603E-04
5.778427E+03	7.346396E-03	8.854239E-04
5.788372E+03	7.392220E-03	8.913330E-04
5.798318E+03	7.440452E-03	8.975423E-04
5.808264E+03	7.489825E-03	9.038995E-04
5.818209E+03	7.539037E-03	9.102474E-04
5.828155E+03	7.586794E-03	9.164296E-04
5.838101E+03	7.631811E-03	9.222909E-04
5.848046E+03	7.672867E-03	9.276829E-04
5.857992E+03	7.708911E-03	9.324779E-04
5.867938E+03	7.738718E-03	9.365269E-04
5.877883E+03	7.761503E-03	9.397335E-04
5.887829E+03	7.776526E-03	9.420071E-04
5.897775E+03	7.783240E-03	9.432797E-04
5.907720E+03	7.781189E-03	9.434947E-04
5.917666E+03	7.770300E-03	9.426414E-04
5.927612E+03	7.750608E-03	9.407225E-04
5.937557E+03	7.722226E-03	9.377498E-04
5.947503E+03	7.685533E-03	9.337679E-04
5.957449E+03	7.641168E-03	9.288527E-04
5.967394E+03	7.589691E-03	9.230706E-04
5.977340E+03	7.531875E-03	9.165143E-04
5.987285E+03	7.468560E-03	9.092847E-04
5.997231E+03	7.400538E-03	9.014771E-04
6.007177E+03	7.328895E-03	8.932227E-04
6.017122E+03	7.254268E-03	8.845983E-04
6.027068E+03	7.177809E-03	8.757438E-04
6.037014E+03	7.100076E-03	8.667268E-04
6.046959E+03	7.022030E-03	8.576641E-04
6.056905E+03	6.944290E-03	8.486313E-04
6.066851E+03	6.867491E-03	8.397059E-04
6.076796E+03	6.792182E-03	8.309551E-04
6.086742E+03	6.718843E-03	8.224377E-04
6.096688E+03	6.647773E-03	8.141907E-04
6.106633E+03	6.579386E-03	8.062651E-04
6.116579E+03	6.513839E-03	7.986806E-04
6.126525E+03	6.451402E-03	7.914708E-04
6.136470E+03	6.392114E-03	7.846410E-04
6.146416E+03	6.336136E-03	7.782114E-04
6.156362E+03	6.283421E-03	7.721770E-04
6.166307E+03	6.233960E-03	7.665373E-04
6.176253E+03	6.187724E-03	7.612892E-04
6.186199E+03	6.144652E-03	7.564256E-04
6.196144E+03	6.104749E-03	7.519481E-04
6.206090E+03	6.067750E-03	7.478244E-04
6.216036E+03	6.033714E-03	7.440623E-04
6.225981E+03	6.002423E-03	7.406355E-04
6.235927E+03	5.973664E-03	7.375183E-04
6.245873E+03	5.947438E-03	7.347112E-04
6.255818E+03	5.923491E-03	7.321834E-04
6.265764E+03	5.901621E-03	7.299104E-04
6.275710E+03	5.881617E-03	7.278663E-04
6.285655E+03	5.863299E-03	7.260291E-04
6.295601E+03	5.846240E-03	7.243466E-04
6.305546E+03	5.830263E-03	7.227966E-04
6.315492E+03	5.814942E-03	7.213269E-04
6.325438E+03	5.799949E-03	7.198965E-04
6.335383E+03	5.784767E-03	7.184415E-04
6.345329E+03	5.768906E-03	7.169008E-04
6.355275E+03	5.751911E-03	7.152174E-04
6.365220E+03	5.733141E-03	7.133117E-04
6.375166E+03	5.712143E-03	7.111266E-04
6.385112E+03	5.688144E-03	7.085653E-04
6.395057E+03	5.660585E-03	7.055573E-04
6.405003E+03	5.628825E-03	7.020220E-04
6.414949E+03	5.592166E-03	6.978712E-04
6.424894E+03	5.550242E-03	6.930580E-04
6.434840E+03	5.502289E-03	6.874858E-04
6.444786E+03	5.447981E-03	6.811123E-04
6.454731E+03	5.386850E-03	6.738776E-04
6.464677E+03	5.318681E-03	6.657532E-04
6.474623E+03	5.243300E-03	6.567154E-04
6.484568E+03	5.160584E-03	6.467474E-04
6.494514E+03	5.070766E-03	6.358765E-04
6.504460E+03	4.973931E-03	6.241119E-04
6.514405E+03	4.870646E-03	6.115231E-04
6.524351E+03	4.761206E-03	5.981453E-04
6.534297E+03	4.646358E-03	5.840713E-04
6.544242E+03	4.526823E-03	5.693906E-04
6.554188E+03	4.403411E-03	5.542037E-04
6.564134E+03	4.276999E-03	5.386204E-04
6.574079E+03	4.148569E-03	5.227635E-04
6.584025E+03	4.018949E-03	5.067371E-04
6.593971E+03	3.889253E-03	4.906814E-04
6.603916E+03	3.760290E-03	4.746984E-04
6.613862E+03	3.632996E-03	4.589064E-04
6.623808E+03	3.508193E-03	4.434099E-04
6.633753E+03	3.386634E-03	4.283046E-04
6.643699E+03	3.269041E-03	4.136826E-04
6.653644E+03	3.155955E-03	3.996131E-04
6.663590E+03	3.047921E-03	3.861665E-04
6.673536E+03	2.945350E-03	3.733959E-04
6.683481E+03	2.848572E-03	3.613443E-04
6.693427E+03	2.757834E-03	3.500445E-04
6.703373E+03	2.673311E-03	3.395202E-04
6.713318E+03	2.595152E-03	3.297915E-04
6.723264E+03	2.523370E-03	3.208617E-04
6.733210E+03	2.458005E-03	3.127374E-04
6.743155E+03	2.398983E-03	3.054104E-04
6.753101E+03	2.346268E-03	2.988777E-04
6.763047E+03	2.299796E-03	2.931326E-04
6.772992E+03	2.259380E-03	2.881528E-04
6.782938E+03	2.224924E-03	2.839272E-04
6.792884E+03	2.196319E-03	2.804432E-04
6.802829E+03	2.173387E-03	2.776796E-04
6.812775E+03	2.155978E-03	2.756184E-04
6.822721E+03	2.143976E-03	2.742461E-04
6.832666E+03	2.137205E-03	2.735412E-04
6.842612E+03	2.135552E-03	2.734906E-04
6.852558E+03	2.138847E-03	2.740736E-04
6.862503E+03	2.146986E-03	2.752780E-04
6.872449E+03	2.159840E-03	2.770882E-04
6.882395E+03	2.177248E-03	2.794848E-04
6.892340E+03	2.199085E-03	2.824526E-04
6.902286E+03	2.225296E-03	2.859855E-04
6.912232E+03	2.255691E-03	2.900603E-04
6.922177E+03	2.290185E-03	2.946665E-04
6.932123E+03	2.328619E-03	2.997850E-04
6.942069E+03	2.370905E-03	3.054050E-04
6.952014E+03	2.416914E-03	3.115110E-04
6.961960E+03	2.466479E-03	3.180820E-04
6.971906E+03	2.519498E-03	3.251058E-04
6.981851E+03	2.575790E-03	3.325596E-04
6.991797E+03	2.635241E-03	3.404295E-04
7.001742E+03	2.697611E-03	3.486850E-04
7.011688E+03	2.762851E-03	3.573205E-04
7.021634E+03	2.830655E-03	3.662972E-04
7.031579E+03	2.900918E-03	3.756016E-04
7.041525E+03	2.973393E-03	3.852024E-04
7.051471E+03	3.047815E-03	3.950658E-04
7.061416E+03	3.124049E-03	4.051745E-04
7.071362E+03	3.201757E-03	4.154852E-04
7.081308E+03	3.280732E-03	4.259710E-04
7.091253E+03	3.360655E-03	4.365910E-04
7.101199E+03	3.441298E-03	4.473155E-04
7.111145E+03	3.522317E-03	4.581001E-04
7.121090E+03	3.603469E-03	4.689130E-04
7.131036E+03	3.684336E-03	4.796997E-04
7.140982E+03	3.764659E-03	4.904266E-04
7.150927E+03	3.844123E-03	5.010525E-04
7.160873E+03	3.922357E-03	5.115285E-04
7.170819E+03	3.999107E-03	5.218213E-04
7.180764E+03	4.073946E-03	5.318748E-04
7.190710E+03	4.146703E-03	5.416663E-04
7.200656E+03	4.217038E-03	5.511506E-04
7.210601E+03	4.284620E-03	5.602842E-04
7.220547E+03	4.349273E-03	5.690432E-04
7.230493E+03	4.410778E-03	5.773983E-04
7.240438E+03	4.468805E-03	5.853058E-04
7.250384E+03	4.523326E-03	5.927610E-04
7.260330E+03	4.574065E-03	5.997271E-04
7.270275E+03	4.620985E-03	6.061984E-04
7.280221E+03	4.664012E-03	6.121642E-04
7.290167E+03	4.703028E-03	6.176085E-04
7.300112E+03	4.738017E-03	6.225280E-04
7.310058E+03	4.768991E-03	6.269235E-04
7.320004E+03	4.795986E-03	6.307992E-04
7.329949E+03	4.819066E-03	6.341623E-04
7.339895E+03	4.838314E-03	6.370231E-04
7.349840E+03	4.853757E-03	6.393843E-04
7.359786E+03	4.865587E-03	6.412703E-04
7.369732E+03	4.873858E-03	6.426878E-04
7.379677E+03	4.878786E-03	6.436643E-04
7.389623E+03	4.880442E-03	6.442086E-04
7.399569E+03	4.878978E-03	6.443401E-04
7.409514E+03	4.874624E-03	6.440886E-04
7.419460E+03	4.867382E-03	6.434536E-04
7.429406E+03	4.857557E-03	6.424750E-04
7.439351E+03	4.845222E-03	6.411621E-04
7.449297E+03	4.830598E-03	6.395435E-04
7.459243E+03	4.813674E-03	6.376173E-04
7.469188E+03	4.794733E-03	6.354205E-04
7.479134E+03	4.773827E-03	6.329597E-04
7.489080E+03	4.751072E-03	6.302500E-04
7.499025E+03	4.726653E-03	6.273155E-04
7.508971E+03	4.700595E-03	6.241591E-04
7.518917E+03	4.673061E-03	6.208024E-04
7.528862E+03	4.644057E-03	6.172459E-04
7.538808E+03	4.613728E-03	6.135082E-04
7.548754E+03	4.582128E-03	6.095968E-04
7.558699E+03	4.549234E-03	6.055081E-04
7.568645E+03	4.515153E-03	6.012562E-04
7.578591E+03	4.479909E-03	5.968442E-04
7.588536E+03	4.443516E-03	5.922735E-04
7.598482E+03	4.405975E-03	5.875443E-04
7.608428E+03	4.367280E-03	5.826554E-04
7.618373E+03	4.327412E-03	5.776044E-04
7.628319E+03	4.286350E-03	5.723878E-04
7.638265E+03	4.244059E-03	5.670012E-04
7.648210E+03	4.200572E-03	5.614486E-04
7.658156E+03	4.155714E-03	5.557064E-04
7.668101E+03	4.109580E-03	5.497870E-04
7.678047E+03	4.062061E-03	5.436759E-04
7.687993E+03	4.013187E-03	5.373766E-04
7.697938E+03	3.962796E-03	5.308674E-04
7.707884E+03	3.910994E-03	5.241621E-04
7.717830E+03	3.857702E-03	5.172500E-04
