#wls	flux	fluxerr
1.591305E+03	8.381057E-04	1.372235E-04
1.631088E+03	8.216335E-04	1.343913E-04
1.670870E+03	8.058843E-04	1.316801E-04
1.710653E+03	7.908663E-04	1.290911E-04
1.750436E+03	7.765866E-04	1.266251E-04
1.790218E+03	7.631850E-04	1.243046E-04
1.830001E+03	7.505310E-04	1.221080E-04
1.869784E+03	7.387597E-04	1.200571E-04
1.909566E+03	7.278729E-04	1.181517E-04
1.949349E+03	7.178739E-04	1.163918E-04
1.989131E+03	7.087693E-04	1.147783E-04
2.028914E+03	7.006842E-04	1.133308E-04
2.068697E+03	6.936243E-04	1.120498E-04
2.108479E+03	6.875987E-04	1.109361E-04
2.148262E+03	6.826215E-04	1.099915E-04
2.188045E+03	6.788212E-04	1.092360E-04
2.227827E+03	6.762171E-04	1.086720E-04
2.267610E+03	6.748343E-04	1.083028E-04
2.307392E+03	6.748113E-04	1.081499E-04
2.347175E+03	6.761841E-04	1.082180E-04
2.386958E+03	6.790998E-04	1.085297E-04
2.426740E+03	6.836090E-04	1.090921E-04
2.466523E+03	6.898735E-04	1.099297E-04
2.506306E+03	6.978627E-04	1.110364E-04
2.546088E+03	7.079613E-04	1.124721E-04
2.585871E+03	7.200692E-04	1.142192E-04
2.625653E+03	7.346107E-04	1.163433E-04
2.665436E+03	7.517420E-04	1.188673E-04
2.705219E+03	7.716528E-04	1.218190E-04
2.745001E+03	7.947702E-04	1.252633E-04
2.784784E+03	8.214603E-04	1.292554E-04
2.824567E+03	8.520283E-04	1.338400E-04
2.864349E+03	8.870311E-04	1.391013E-04
2.904132E+03	9.269769E-04	1.451150E-04
2.943914E+03	9.724387E-04	1.519664E-04
2.983697E+03	1.024277E-03	1.597847E-04
2.993643E+03	1.038272E-03	1.618959E-04
3.003588E+03	1.052679E-03	1.640693E-04
3.013534E+03	1.067621E-03	1.663237E-04
3.023480E+03	1.082997E-03	1.686433E-04
3.033425E+03	1.098930E-03	1.710475E-04
3.043371E+03	1.115320E-03	1.735203E-04
3.053317E+03	1.132294E-03	1.760814E-04
3.063262E+03	1.149748E-03	1.787146E-04
3.073208E+03	1.167812E-03	1.814399E-04
3.083154E+03	1.186382E-03	1.842410E-04
3.093099E+03	1.205590E-03	1.871384E-04
3.103045E+03	1.225450E-03	1.901341E-04
3.112991E+03	1.245859E-03	1.932118E-04
3.122936E+03	1.266950E-03	1.963922E-04
3.132882E+03	1.288741E-03	1.996778E-04
3.142828E+03	1.311248E-03	2.030710E-04
3.152773E+03	1.334363E-03	2.065550E-04
3.162719E+03	1.358228E-03	2.101514E-04
3.172665E+03	1.382860E-03	2.138629E-04
3.182610E+03	1.408406E-03	2.177118E-04
3.192556E+03	1.434630E-03	2.216615E-04
3.202502E+03	1.461676E-03	2.257345E-04
3.212447E+03	1.489567E-03	2.299335E-04
3.222393E+03	1.518321E-03	2.342615E-04
3.232339E+03	1.547959E-03	2.387214E-04
3.242284E+03	1.578636E-03	2.433371E-04
3.252230E+03	1.610106E-03	2.480702E-04
3.262175E+03	1.642662E-03	2.529657E-04
3.272121E+03	1.676190E-03	2.580060E-04
3.282067E+03	1.710855E-03	2.632158E-04
3.292012E+03	1.746398E-03	2.685555E-04
3.301958E+03	1.783269E-03	2.740940E-04
3.311904E+03	1.821067E-03	2.797692E-04
3.321849E+03	1.860251E-03	2.856514E-04
3.331795E+03	1.900410E-03	2.916772E-04
3.341741E+03	1.942014E-03	2.979187E-04
3.351686E+03	1.984795E-03	3.043342E-04
3.361632E+03	2.028934E-03	3.109512E-04
3.371578E+03	2.074305E-03	3.177503E-04
3.381523E+03	2.121093E-03	3.247593E-04
3.391469E+03	2.169329E-03	3.319828E-04
3.401415E+03	2.219207E-03	3.394500E-04
3.411360E+03	2.270278E-03	3.470922E-04
3.421306E+03	2.323057E-03	3.549872E-04
3.431252E+03	2.377416E-03	3.631157E-04
3.441197E+03	2.433555E-03	3.715076E-04
3.451143E+03	2.491176E-03	3.801169E-04
3.461089E+03	2.550475E-03	3.889734E-04
3.471034E+03	2.611658E-03	3.981081E-04
3.480980E+03	2.674588E-03	4.074994E-04
3.490926E+03	2.739471E-03	4.171786E-04
3.500871E+03	2.806165E-03	4.271235E-04
3.510817E+03	2.874697E-03	4.373379E-04
3.520763E+03	2.945278E-03	4.478533E-04
3.530708E+03	3.017941E-03	4.586743E-04
3.540654E+03	3.092525E-03	4.697760E-04
3.550600E+03	3.169243E-03	4.811905E-04
3.560545E+03	3.248121E-03	4.929209E-04
3.570491E+03	3.329181E-03	5.049704E-04
3.580436E+03	3.412245E-03	5.173114E-04
3.590382E+03	3.497724E-03	5.300055E-04
3.600328E+03	3.585231E-03	5.429939E-04
3.610273E+03	3.675180E-03	5.563385E-04
3.620219E+03	3.767372E-03	5.700090E-04
3.630165E+03	3.861808E-03	5.840047E-04
3.640110E+03	3.958480E-03	5.983242E-04
3.650056E+03	4.057590E-03	6.129972E-04
3.660002E+03	4.158906E-03	6.279883E-04
3.669947E+03	4.262399E-03	6.432927E-04
3.679893E+03	4.368251E-03	6.589374E-04
3.689839E+03	4.476418E-03	6.749151E-04
3.699784E+03	4.586616E-03	6.911826E-04
3.709730E+03	4.698997E-03	7.077622E-04
3.719676E+03	4.813238E-03	7.246050E-04
3.729621E+03	4.929457E-03	7.417284E-04
3.739567E+03	5.047521E-03	7.591118E-04
3.749513E+03	5.167276E-03	7.767317E-04
3.759458E+03	5.288533E-03	7.945595E-04
3.769404E+03	5.411077E-03	8.125623E-04
3.779350E+03	5.534653E-03	8.307021E-04
3.789295E+03	5.658980E-03	8.489361E-04
3.799241E+03	5.783470E-03	8.671762E-04
3.809187E+03	5.908263E-03	8.854432E-04
3.819132E+03	6.032953E-03	9.036765E-04
3.829078E+03	6.156581E-03	9.217326E-04
3.839024E+03	6.279178E-03	9.396164E-04
3.848969E+03	6.399697E-03	9.571715E-04
3.858915E+03	6.518374E-03	9.744337E-04
3.868861E+03	6.633846E-03	9.912000E-04
3.878806E+03	6.746047E-03	1.007461E-03
3.888752E+03	6.854123E-03	1.023091E-03
3.898698E+03	6.957473E-03	1.038000E-03
3.908643E+03	7.055801E-03	1.052145E-03
3.918589E+03	7.148028E-03	1.065368E-03
3.928534E+03	7.234458E-03	1.077714E-03
3.938480E+03	7.313863E-03	1.089003E-03
3.948426E+03	7.386400E-03	1.099258E-03
3.958371E+03	7.451528E-03	1.108402E-03
3.968317E+03	7.509060E-03	1.116408E-03
3.978263E+03	7.559155E-03	1.123302E-03
3.988208E+03	7.601323E-03	1.129012E-03
3.998154E+03	7.636182E-03	1.133632E-03
4.008100E+03	7.663692E-03	1.137158E-03
4.018045E+03	7.683926E-03	1.139602E-03
4.027991E+03	7.697781E-03	1.141100E-03
4.037937E+03	7.705249E-03	1.141650E-03
4.047882E+03	7.707115E-03	1.141371E-03
4.057828E+03	7.703971E-03	1.140352E-03
4.067774E+03	7.696229E-03	1.138655E-03
4.077719E+03	7.684769E-03	1.136410E-03
4.087665E+03	7.669806E-03	1.133651E-03
4.097611E+03	7.652447E-03	1.130543E-03
4.107556E+03	7.633317E-03	1.127177E-03
4.117502E+03	7.612384E-03	1.123549E-03
4.127448E+03	7.590858E-03	1.119839E-03
4.137393E+03	7.568848E-03	1.116062E-03
4.147339E+03	7.547037E-03	1.112320E-03
4.157285E+03	7.525648E-03	1.108645E-03
4.167230E+03	7.504872E-03	1.105065E-03
4.177176E+03	7.485432E-03	1.101687E-03
4.187122E+03	7.467226E-03	1.098496E-03
4.197067E+03	7.450707E-03	1.095557E-03
4.207013E+03	7.435724E-03	1.092849E-03
4.216959E+03	7.422846E-03	1.090454E-03
4.226904E+03	7.411893E-03	1.088346E-03
4.236850E+03	7.403247E-03	1.086581E-03
4.246796E+03	7.396906E-03	1.085157E-03
4.256741E+03	7.393078E-03	1.084105E-03
4.266687E+03	7.391830E-03	1.083435E-03
4.276632E+03	7.393585E-03	1.083208E-03
4.286578E+03	7.398461E-03	1.083440E-03
4.296524E+03	7.406637E-03	1.084157E-03
4.306469E+03	7.418813E-03	1.085461E-03
4.316415E+03	7.434916E-03	1.087341E-03
4.326361E+03	7.455740E-03	1.089913E-03
4.336306E+03	7.481466E-03	1.093201E-03
4.346252E+03	7.512792E-03	1.097306E-03
4.356198E+03	7.550138E-03	1.102290E-03
4.366143E+03	7.594085E-03	1.108236E-03
4.376089E+03	7.645075E-03	1.115208E-03
4.386035E+03	7.703825E-03	1.123308E-03
4.395980E+03	7.770578E-03	1.132571E-03
4.405926E+03	7.846132E-03	1.143112E-03
4.415872E+03	7.930596E-03	1.154945E-03
4.425817E+03	8.024288E-03	1.168115E-03
4.435763E+03	8.127416E-03	1.182651E-03
4.445709E+03	8.240217E-03	1.198585E-03
4.455654E+03	8.362117E-03	1.215834E-03
4.465600E+03	8.493159E-03	1.234401E-03
4.475546E+03	8.632703E-03	1.254192E-03
4.485491E+03	8.780047E-03	1.275105E-03
4.495437E+03	8.934252E-03	1.297002E-03
4.505383E+03	9.093967E-03	1.319685E-03
4.515328E+03	9.257908E-03	1.342969E-03
4.525274E+03	9.424236E-03	1.366586E-03
4.535220E+03	9.590858E-03	1.390231E-03
4.545165E+03	9.755988E-03	1.413648E-03
4.555111E+03	9.917171E-03	1.436481E-03
4.565057E+03	1.007183E-02	1.458357E-03
4.575002E+03	1.021765E-02	1.478943E-03
4.584948E+03	1.035200E-02	1.497860E-03
4.594894E+03	1.047249E-02	1.514765E-03
4.604839E+03	1.057709E-02	1.529365E-03
4.614785E+03	1.066363E-02	1.541351E-03
4.624730E+03	1.073063E-02	1.550509E-03
4.634676E+03	1.077643E-02	1.556605E-03
4.644622E+03	1.080051E-02	1.559568E-03
4.654567E+03	1.080213E-02	1.559290E-03
4.664513E+03	1.078167E-02	1.555834E-03
4.674459E+03	1.073950E-02	1.549253E-03
4.684404E+03	1.067639E-02	1.539664E-03
4.694350E+03	1.059406E-02	1.527315E-03
4.704296E+03	1.049404E-02	1.512428E-03
4.714241E+03	1.037845E-02	1.495315E-03
4.724187E+03	1.024913E-02	1.476242E-03
4.734133E+03	1.010871E-02	1.455586E-03
4.744078E+03	9.959375E-03	1.433666E-03
4.754024E+03	9.803589E-03	1.410835E-03
4.763970E+03	9.643451E-03	1.387398E-03
4.773915E+03	9.481079E-03	1.363658E-03
4.783861E+03	9.318709E-03	1.339938E-03
4.793807E+03	9.157809E-03	1.316447E-03
4.803752E+03	9.000048E-03	1.293426E-03
4.813698E+03	8.846738E-03	1.271063E-03
4.823644E+03	8.698965E-03	1.249512E-03
4.833589E+03	8.557725E-03	1.228916E-03
4.843535E+03	8.423535E-03	1.209348E-03
4.853481E+03	8.296868E-03	1.190876E-03
4.863426E+03	8.178143E-03	1.173557E-03
4.873372E+03	8.067621E-03	1.157429E-03
4.883318E+03	7.964949E-03	1.142440E-03
4.893263E+03	7.870504E-03	1.128643E-03
4.903209E+03	7.783756E-03	1.115961E-03
4.913155E+03	7.704687E-03	1.104391E-03
4.923100E+03	7.632893E-03	1.093875E-03
4.933046E+03	7.568176E-03	1.084382E-03
4.942991E+03	7.510094E-03	1.075849E-03
4.952937E+03	7.458553E-03	1.068262E-03
4.962883E+03	7.413140E-03	1.061561E-03
4.972828E+03	7.373482E-03	1.055692E-03
4.982774E+03	7.339663E-03	1.050667E-03
4.992720E+03	7.311174E-03	1.046413E-03
5.002665E+03	7.288077E-03	1.042937E-03
5.012611E+03	7.270277E-03	1.040227E-03
5.022557E+03	7.257703E-03	1.038270E-03
5.032502E+03	7.250241E-03	1.037052E-03
5.042448E+03	7.248007E-03	1.036588E-03
5.052394E+03	7.251136E-03	1.036897E-03
5.062339E+03	7.259477E-03	1.037957E-03
5.072285E+03	7.273303E-03	1.039808E-03
5.082231E+03	7.292563E-03	1.042441E-03
5.092176E+03	7.317307E-03	1.045864E-03
5.102122E+03	7.347560E-03	1.050080E-03
5.112068E+03	7.383418E-03	1.055104E-03
5.122013E+03	7.424730E-03	1.060912E-03
5.131959E+03	7.471390E-03	1.067490E-03
5.141905E+03	7.523359E-03	1.074833E-03
5.151850E+03	7.580419E-03	1.082909E-03
5.161796E+03	7.642185E-03	1.091664E-03
5.171742E+03	7.708291E-03	1.101045E-03
5.181687E+03	7.778308E-03	1.110991E-03
5.191633E+03	7.851847E-03	1.121447E-03
5.201579E+03	7.928325E-03	1.132330E-03
5.211524E+03	8.006877E-03	1.143516E-03
5.221470E+03	8.087007E-03	1.154936E-03
5.231416E+03	8.167817E-03	1.166460E-03
5.241361E+03	8.248488E-03	1.177973E-03
5.251307E+03	8.328264E-03	1.189367E-03
5.261253E+03	8.406007E-03	1.200479E-03
5.271198E+03	8.480918E-03	1.211197E-03
5.281144E+03	8.552071E-03	1.221387E-03
5.291089E+03	8.618572E-03	1.230923E-03
5.301035E+03	8.679525E-03	1.239677E-03
5.310981E+03	8.734106E-03	1.247531E-03
5.320926E+03	8.781409E-03	1.254356E-03
5.330872E+03	8.820849E-03	1.260069E-03
5.340818E+03	8.851668E-03	1.264561E-03
5.350763E+03	8.873447E-03	1.267772E-03
5.360709E+03	8.885632E-03	1.269624E-03
5.370655E+03	8.887871E-03	1.270065E-03
5.380600E+03	8.880047E-03	1.269078E-03
5.390546E+03	8.861906E-03	1.266628E-03
5.400492E+03	8.833400E-03	1.262706E-03
5.410437E+03	8.794597E-03	1.257322E-03
5.420383E+03	8.745759E-03	1.250511E-03
5.430329E+03	8.687006E-03	1.242292E-03
5.440274E+03	8.618549E-03	1.232691E-03
5.450220E+03	8.541051E-03	1.221804E-03
5.460166E+03	8.455046E-03	1.209706E-03
5.470111E+03	8.360917E-03	1.196451E-03
5.480057E+03	8.259607E-03	1.182172E-03
5.490003E+03	8.151800E-03	1.166967E-03
5.499948E+03	8.038498E-03	1.150977E-03
5.509894E+03	7.920444E-03	1.134309E-03
5.519840E+03	7.798985E-03	1.117155E-03
5.529785E+03	7.674988E-03	1.099637E-03
5.539731E+03	7.549687E-03	1.081932E-03
5.549677E+03	7.424132E-03	1.064190E-03
5.559622E+03	7.299692E-03	1.046606E-03
5.569568E+03	7.177339E-03	1.029321E-03
5.579514E+03	7.058415E-03	1.012525E-03
5.589459E+03	6.943945E-03	9.963660E-04
5.599405E+03	6.834993E-03	9.809969E-04
5.609351E+03	6.732659E-03	9.665758E-04
5.619296E+03	6.637784E-03	9.532238E-04
5.629242E+03	6.551298E-03	9.410750E-04
5.639187E+03	6.473943E-03	9.302368E-04
5.649133E+03	6.406361E-03	9.208024E-04
5.659079E+03	6.349077E-03	9.128481E-04
5.669024E+03	6.302586E-03	9.064466E-04
5.678970E+03	6.266994E-03	9.016141E-04
5.688916E+03	6.242628E-03	8.983989E-04
5.698861E+03	6.229496E-03	8.968038E-04
5.708807E+03	6.227384E-03	8.967993E-04
5.718753E+03	6.236104E-03	8.983601E-04
5.728698E+03	6.255232E-03	9.014264E-04
5.738644E+03	6.284173E-03	9.059140E-04
5.748590E+03	6.322197E-03	9.117190E-04
5.758535E+03	6.368398E-03	9.187123E-04
5.768481E+03	6.421704E-03	9.267403E-04
5.778427E+03	6.480913E-03	9.356307E-04
5.788372E+03	6.544662E-03	9.451878E-04
5.798318E+03	6.611568E-03	9.552123E-04
5.808264E+03	6.679967E-03	9.654645E-04
5.818209E+03	6.748209E-03	9.757061E-04
5.828155E+03	6.814720E-03	9.857094E-04
5.838101E+03	6.877733E-03	9.952184E-04
5.848046E+03	6.935740E-03	1.004014E-03
5.857992E+03	6.987137E-03	1.011864E-03
5.867938E+03	7.030578E-03	1.018572E-03
5.877883E+03	7.065006E-03	1.023982E-03
5.887829E+03	7.089404E-03	1.027947E-03
5.897775E+03	7.103122E-03	1.030369E-03
5.907720E+03	7.105882E-03	1.031206E-03
5.917666E+03	7.097502E-03	1.030431E-03
5.927612E+03	7.078283E-03	1.028084E-03
5.937557E+03	7.048501E-03	1.024204E-03
5.947503E+03	7.009048E-03	1.018917E-03
5.957449E+03	6.960742E-03	1.012342E-03
5.967394E+03	6.904638E-03	1.004629E-03
5.977340E+03	6.841914E-03	9.959486E-04
5.987285E+03	6.773812E-03	9.864801E-04
5.997231E+03	6.701686E-03	9.764195E-04
6.007177E+03	6.626571E-03	9.659167E-04
6.017122E+03	6.549654E-03	9.551441E-04
6.027068E+03	6.472198E-03	9.442853E-04
6.037014E+03	6.395092E-03	9.334700E-04
6.046959E+03	6.319085E-03	9.228071E-04
6.056905E+03	6.244900E-03	9.124029E-04
6.066851E+03	6.173279E-03	9.023655E-04
6.076796E+03	6.104479E-03	8.927333E-04
6.086742E+03	6.038821E-03	8.835534E-04
6.096688E+03	5.976573E-03	8.748658E-04
6.106633E+03	5.917731E-03	8.666705E-04
6.116579E+03	5.862292E-03	8.589676E-04
6.126525E+03	5.810269E-03	8.517594E-04
6.136470E+03	5.761427E-03	8.450124E-04
6.146416E+03	5.715671E-03	8.387130E-04
6.156362E+03	5.672632E-03	8.328079E-04
6.166307E+03	5.632257E-03	8.272895E-04
6.176253E+03	5.594246E-03	8.221143E-04
6.186199E+03	5.558389E-03	8.172519E-04
6.196144E+03	5.524502E-03	8.126757E-04
6.206090E+03	5.492427E-03	8.083626E-04
6.216036E+03	5.462110E-03	8.043053E-04
6.225981E+03	5.433302E-03	8.004671E-04
6.235927E+03	5.406087E-03	7.968609E-04
6.245873E+03	5.380357E-03	7.934708E-04
6.255818E+03	5.356082E-03	7.902929E-04
6.265764E+03	5.333257E-03	7.873266E-04
6.275710E+03	5.311874E-03	7.845711E-04
6.285655E+03	5.292005E-03	7.820371E-04
6.295601E+03	5.273522E-03	7.797063E-04
6.305546E+03	5.256373E-03	7.775710E-04
6.315492E+03	5.240428E-03	7.756122E-04
6.325438E+03	5.225607E-03	7.738185E-04
6.335383E+03	5.211590E-03	7.721426E-04
6.345329E+03	5.198073E-03	7.705394E-04
6.355275E+03	5.184740E-03	7.689624E-04
6.365220E+03	5.171119E-03	7.673414E-04
6.375166E+03	5.156593E-03	7.655848E-04
6.385112E+03	5.140605E-03	7.636094E-04
6.395057E+03	5.122470E-03	7.613131E-04
6.405003E+03	5.101368E-03	7.585736E-04
6.414949E+03	5.076600E-03	7.552859E-04
6.424894E+03	5.047373E-03	7.513314E-04
6.434840E+03	5.012911E-03	7.465930E-04
6.444786E+03	4.972548E-03	7.409706E-04
6.454731E+03	4.925464E-03	7.343402E-04
6.464677E+03	4.871232E-03	7.266368E-04
6.474623E+03	4.809330E-03	7.177804E-04
6.484568E+03	4.739530E-03	7.077354E-04
6.494514E+03	4.661625E-03	6.964688E-04
6.504460E+03	4.575739E-03	6.839972E-04
6.514405E+03	4.482106E-03	6.703539E-04
6.524351E+03	4.381086E-03	6.555905E-04
6.534297E+03	4.273416E-03	6.398159E-04
6.544242E+03	4.159728E-03	6.231230E-04
6.554188E+03	4.041055E-03	6.056651E-04
6.564134E+03	3.918341E-03	5.875827E-04
6.574079E+03	3.792676E-03	5.690383E-04
6.584025E+03	3.665248E-03	5.502094E-04
6.593971E+03	3.537193E-03	5.312662E-04
6.603916E+03	3.409570E-03	5.123678E-04
6.613862E+03	3.283498E-03	4.936824E-04
6.623808E+03	3.159965E-03	4.753590E-04
6.633753E+03	3.039866E-03	4.575329E-04
6.643699E+03	2.923989E-03	4.403236E-04
6.653644E+03	2.813010E-03	4.238340E-04
6.663590E+03	2.707533E-03	4.081561E-04
6.673536E+03	2.607958E-03	3.933518E-04
6.683481E+03	2.514626E-03	3.794736E-04
6.693427E+03	2.427814E-03	3.665651E-04
6.703373E+03	2.347669E-03	3.546500E-04
6.713318E+03	2.274224E-03	3.437347E-04
6.723264E+03	2.207556E-03	3.338326E-04
6.733210E+03	2.147542E-03	3.249266E-04
6.743155E+03	2.094123E-03	3.170095E-04
6.753101E+03	2.047205E-03	3.100684E-04
6.763047E+03	2.006566E-03	3.040713E-04
6.772992E+03	1.972102E-03	2.990041E-04
6.782938E+03	1.943598E-03	2.948353E-04
6.792884E+03	1.920866E-03	2.915380E-04
6.802829E+03	1.903748E-03	2.890893E-04
6.812775E+03	1.892022E-03	2.874572E-04
6.822721E+03	1.885502E-03	2.866143E-04
6.832666E+03	1.884035E-03	2.865390E-04
6.842612E+03	1.887414E-03	2.872004E-04
6.852558E+03	1.895495E-03	2.885783E-04
6.862503E+03	1.908111E-03	2.906479E-04
6.872449E+03	1.925067E-03	2.933807E-04
6.882395E+03	1.946202E-03	2.967532E-04
6.892340E+03	1.971391E-03	3.007473E-04
6.902286E+03	2.000481E-03	3.053405E-04
6.912232E+03	2.033321E-03	3.105107E-04
6.922177E+03	2.069694E-03	3.162255E-04
6.932123E+03	2.109553E-03	3.224787E-04
6.942069E+03	2.152685E-03	3.292382E-04
6.952014E+03	2.198940E-03	3.364823E-04
6.961960E+03	2.248212E-03	3.441949E-04
6.971906E+03	2.300357E-03	3.523549E-04
6.981851E+03	2.355190E-03	3.609347E-04
6.991797E+03	2.412566E-03	3.699124E-04
7.001742E+03	2.472335E-03	3.792656E-04
7.011688E+03	2.534386E-03	3.889780E-04
7.021634E+03	2.598521E-03	3.990195E-04
7.031579E+03	2.664622E-03	4.093723E-04
7.041525E+03	2.732427E-03	4.199968E-04
7.051471E+03	2.801797E-03	4.308719E-04
7.061416E+03	2.872537E-03	4.419678E-04
7.071362E+03	2.944489E-03	4.532605E-04
7.081308E+03	3.017278E-03	4.646926E-04
7.091253E+03	3.090813E-03	4.762502E-04
7.101199E+03	3.164734E-03	4.878777E-04
7.111145E+03	3.238816E-03	4.995407E-04
7.121090E+03	3.312713E-03	5.111857E-04
7.131036E+03	3.386173E-03	5.227737E-04
7.140982E+03	3.458819E-03	5.342464E-04
7.150927E+03	3.530322E-03	5.455526E-04
7.160873E+03	3.600283E-03	5.566306E-04
7.170819E+03	3.668491E-03	5.674470E-04
7.180764E+03	3.734554E-03	5.779409E-04
7.190710E+03	3.798084E-03	5.880518E-04
7.200656E+03	3.858841E-03	5.977418E-04
7.210601E+03	3.916540E-03	6.069659E-04
7.220547E+03	3.970854E-03	6.156731E-04
7.230493E+03	4.021553E-03	6.238268E-04
7.240438E+03	4.068445E-03	6.313961E-04
7.250384E+03	4.111372E-03	6.383561E-04
7.260330E+03	4.150293E-03	6.446990E-04
7.270275E+03	4.184992E-03	6.503907E-04
7.280221E+03	4.215509E-03	6.554365E-04
7.290167E+03	4.241783E-03	6.598257E-04
7.300112E+03	4.263933E-03	6.635761E-04
7.310058E+03	4.282045E-03	6.667002E-04
7.320004E+03	4.296160E-03	6.692033E-04
7.329949E+03	4.306418E-03	6.711066E-04
7.339895E+03	4.313057E-03	6.724463E-04
7.349840E+03	4.316181E-03	6.732378E-04
7.359786E+03	4.315981E-03	6.735101E-04
7.369732E+03	4.312576E-03	6.732813E-04
7.379677E+03	4.306316E-03	6.726051E-04
7.389623E+03	4.297320E-03	6.714997E-04
7.399569E+03	4.285780E-03	6.699944E-04
7.409514E+03	4.271807E-03	6.681060E-04
7.419460E+03	4.255725E-03	6.658849E-04
7.429406E+03	4.237556E-03	6.633340E-04
7.439351E+03	4.217535E-03	6.604898E-04
7.449297E+03	4.195815E-03	6.573757E-04
7.459243E+03	4.172474E-03	6.540036E-04
7.469188E+03	4.147726E-03	6.504069E-04
7.479134E+03	4.121712E-03	6.466073E-04
7.489080E+03	4.094568E-03	6.426260E-04
7.499025E+03	4.066355E-03	6.384723E-04
7.508971E+03	4.037275E-03	6.341777E-04
7.518917E+03	4.007453E-03	6.297618E-04
7.528862E+03	3.976938E-03	6.252320E-04
7.538808E+03	3.945981E-03	6.206277E-04
7.548754E+03	3.914541E-03	6.159427E-04
7.558699E+03	3.882707E-03	6.111904E-04
7.568645E+03	3.850683E-03	6.064031E-04
7.578591E+03	3.818381E-03	6.015672E-04
7.588536E+03	3.785897E-03	5.966974E-04
7.598482E+03	3.753232E-03	5.917939E-04
7.608428E+03	3.720362E-03	5.868531E-04
7.618373E+03	3.687237E-03	5.818669E-04
7.628319E+03	3.653714E-03	5.768129E-04
7.638265E+03	3.619760E-03	5.716856E-04
7.648210E+03	3.585252E-03	5.664655E-04
7.658156E+03	3.550047E-03	5.611302E-04
7.668101E+03	3.513992E-03	5.556550E-04
7.678047E+03	3.476921E-03	5.500138E-04
7.687993E+03	3.438606E-03	5.441703E-04
7.697938E+03	3.398945E-03	5.381081E-04
7.707884E+03	3.357783E-03	5.318023E-04
7.717830E+03	3.314981E-03	5.252308E-04
