#wls	flux	fluxerr
1.591305E+03	7.995082E-04	1.515914E-04
1.631088E+03	7.836026E-04	1.485247E-04
1.670870E+03	7.685079E-04	1.456128E-04
1.710653E+03	7.539604E-04	1.428056E-04
1.750436E+03	7.402321E-04	1.401545E-04
1.790218E+03	7.271976E-04	1.376356E-04
1.830001E+03	7.148647E-04	1.352504E-04
1.869784E+03	7.033625E-04	1.330231E-04
1.909566E+03	6.925757E-04	1.309318E-04
1.949349E+03	6.827451E-04	1.290219E-04
1.989131E+03	6.736456E-04	1.272506E-04
2.028914E+03	6.655114E-04	1.256621E-04
2.068697E+03	6.582397E-04	1.242367E-04
2.108479E+03	6.519490E-04	1.229967E-04
2.148262E+03	6.466513E-04	1.219441E-04
2.188045E+03	6.423619E-04	1.210815E-04
2.227827E+03	6.391005E-04	1.204124E-04
2.267610E+03	6.370898E-04	1.199784E-04
2.307392E+03	6.361567E-04	1.197468E-04
2.347175E+03	6.365314E-04	1.197606E-04
2.386958E+03	6.381545E-04	1.200081E-04
2.426740E+03	6.412647E-04	1.205339E-04
2.466523E+03	6.458212E-04	1.213300E-04
2.506306E+03	6.519852E-04	1.224262E-04
2.546088E+03	6.599284E-04	1.238542E-04
2.585871E+03	6.696520E-04	1.256138E-04
2.625653E+03	6.814534E-04	1.277600E-04
2.665436E+03	6.954642E-04	1.303170E-04
2.705219E+03	7.119317E-04	1.333304E-04
2.745001E+03	7.310374E-04	1.368332E-04
2.784784E+03	7.531790E-04	1.408990E-04
2.824567E+03	7.784113E-04	1.455371E-04
2.864349E+03	8.073954E-04	1.508700E-04
2.904132E+03	8.403600E-04	1.569389E-04
2.943914E+03	8.777707E-04	1.638296E-04
2.983697E+03	9.202480E-04	1.716561E-04
2.993643E+03	9.317653E-04	1.737786E-04
3.003588E+03	9.435347E-04	1.759474E-04
3.013534E+03	9.557698E-04	1.782023E-04
3.023480E+03	9.682728E-04	1.805063E-04
3.033425E+03	9.812598E-04	1.828999E-04
3.043371E+03	9.946360E-04	1.853651E-04
3.053317E+03	1.008411E-03	1.879038E-04
3.063262E+03	1.022594E-03	1.905177E-04
3.073208E+03	1.037194E-03	1.932086E-04
3.083154E+03	1.052331E-03	1.959983E-04
3.093099E+03	1.067797E-03	1.988486E-04
3.103045E+03	1.083820E-03	2.018016E-04
3.112991E+03	1.100414E-03	2.048599E-04
3.122936E+03	1.117369E-03	2.079843E-04
3.132882E+03	1.134917E-03	2.112182E-04
3.142828E+03	1.152960E-03	2.145430E-04
3.152773E+03	1.171509E-03	2.179607E-04
3.162719E+03	1.190690E-03	2.214950E-04
3.172665E+03	1.210401E-03	2.251267E-04
3.182610E+03	1.230655E-03	2.288582E-04
3.192556E+03	1.251583E-03	2.327136E-04
3.202502E+03	1.273079E-03	2.366735E-04
3.212447E+03	1.295277E-03	2.407626E-04
3.222393E+03	1.318072E-03	2.449611E-04
3.232339E+03	1.341598E-03	2.492940E-04
3.242284E+03	1.365747E-03	2.537415E-04
3.252230E+03	1.390659E-03	2.583289E-04
3.262175E+03	1.416348E-03	2.630593E-04
3.272121E+03	1.442704E-03	2.679120E-04
3.282067E+03	1.469741E-03	2.728894E-04
3.292012E+03	1.497731E-03	2.780421E-04
3.301958E+03	1.526301E-03	2.833007E-04
3.311904E+03	1.555858E-03	2.887407E-04
3.321849E+03	1.586154E-03	2.943161E-04
3.331795E+03	1.617473E-03	3.000793E-04
3.341741E+03	1.649427E-03	3.059583E-04
3.351686E+03	1.682436E-03	3.120312E-04
3.361632E+03	1.716384E-03	3.182761E-04
3.371578E+03	1.751147E-03	3.246699E-04
3.381523E+03	1.786879E-03	3.312412E-04
3.391469E+03	1.823598E-03	3.379935E-04
3.401415E+03	1.861324E-03	3.449299E-04
3.411360E+03	1.900078E-03	3.520544E-04
3.421306E+03	1.939881E-03	3.593710E-04
3.431252E+03	1.980759E-03	3.668841E-04
3.441197E+03	2.022740E-03	3.745991E-04
3.451143E+03	2.065857E-03	3.825219E-04
3.461089E+03	2.110304E-03	3.906881E-04
3.471034E+03	2.155813E-03	3.990482E-04
3.480980E+03	2.202584E-03	4.076391E-04
3.490926E+03	2.250830E-03	4.165000E-04
3.500871E+03	2.300449E-03	4.256119E-04
3.510817E+03	2.351497E-03	4.349852E-04
3.520763E+03	2.404035E-03	4.446309E-04
3.530708E+03	2.458121E-03	4.545596E-04
3.540654E+03	2.513985E-03	4.648137E-04
3.550600E+03	2.571515E-03	4.753725E-04
3.560545E+03	2.630942E-03	4.862783E-04
3.570491E+03	2.692145E-03	4.975086E-04
3.580436E+03	2.755172E-03	5.090721E-04
3.590382E+03	2.820248E-03	5.210104E-04
3.600328E+03	2.887236E-03	5.332979E-04
3.610273E+03	2.956169E-03	5.459405E-04
3.620219E+03	3.027258E-03	5.589770E-04
3.630165E+03	3.100519E-03	5.724101E-04
3.640110E+03	3.175755E-03	5.862032E-04
3.650056E+03	3.253133E-03	6.003870E-04
3.660002E+03	3.332408E-03	6.149165E-04
3.669947E+03	3.413517E-03	6.297792E-04
3.679893E+03	3.496791E-03	6.450365E-04
3.689839E+03	3.581767E-03	6.606025E-04
3.699784E+03	3.668611E-03	6.765079E-04
3.709730E+03	3.757125E-03	6.927162E-04
3.719676E+03	3.847601E-03	7.092805E-04
3.729621E+03	3.940208E-03	7.262323E-04
3.739567E+03	4.034995E-03	7.435803E-04
3.749513E+03	4.132545E-03	7.614315E-04
3.759458E+03	4.233316E-03	7.798703E-04
3.769404E+03	4.337605E-03	7.989512E-04
3.779350E+03	4.446439E-03	8.188628E-04
3.789295E+03	4.559938E-03	8.396268E-04
3.799241E+03	4.678648E-03	8.613435E-04
3.809187E+03	4.803542E-03	8.841914E-04
3.819132E+03	4.934535E-03	9.081542E-04
3.829078E+03	5.072115E-03	9.333217E-04
3.839024E+03	5.216339E-03	9.597031E-04
3.848969E+03	5.366747E-03	9.872136E-04
3.858915E+03	5.523051E-03	1.015800E-03
3.868861E+03	5.684344E-03	1.045294E-03
3.878806E+03	5.849269E-03	1.075447E-03
3.888752E+03	6.015728E-03	1.105872E-03
3.898698E+03	6.181654E-03	1.136189E-03
3.908643E+03	6.344243E-03	1.165884E-03
3.918589E+03	6.499957E-03	1.194305E-03
3.928534E+03	6.645521E-03	1.220854E-03
3.938480E+03	6.777244E-03	1.244851E-03
3.948426E+03	6.891220E-03	1.265583E-03
3.958371E+03	6.984210E-03	1.282454E-03
3.968317E+03	7.053875E-03	1.295037E-03
3.978263E+03	7.098415E-03	1.303006E-03
3.988208E+03	7.116708E-03	1.306154E-03
3.998154E+03	7.109021E-03	1.304535E-03
4.008100E+03	7.076987E-03	1.298450E-03
4.018045E+03	7.022637E-03	1.288273E-03
4.027991E+03	6.949135E-03	1.274587E-03
4.037937E+03	6.860513E-03	1.258133E-03
4.047882E+03	6.760320E-03	1.239563E-03
4.057828E+03	6.653313E-03	1.219751E-03
4.067774E+03	6.543322E-03	1.199398E-03
4.077719E+03	6.433935E-03	1.179162E-03
4.087665E+03	6.329062E-03	1.159761E-03
4.097611E+03	6.231156E-03	1.141643E-03
4.107556E+03	6.142850E-03	1.125289E-03
4.117502E+03	6.065989E-03	1.111037E-03
4.127448E+03	6.001652E-03	1.099084E-03
4.137393E+03	5.950832E-03	1.089610E-03
4.147339E+03	5.913575E-03	1.082623E-03
4.157285E+03	5.889882E-03	1.078121E-03
4.167230E+03	5.878888E-03	1.075946E-03
4.177176E+03	5.879535E-03	1.075901E-03
4.187122E+03	5.890173E-03	1.077686E-03
4.197067E+03	5.909425E-03	1.081046E-03
4.207013E+03	5.935029E-03	1.085568E-03
4.216959E+03	5.964497E-03	1.090796E-03
4.226904E+03	5.995767E-03	1.096353E-03
4.236850E+03	6.025710E-03	1.101666E-03
4.246796E+03	6.052150E-03	1.106338E-03
4.256741E+03	6.072604E-03	1.109915E-03
4.266687E+03	6.084397E-03	1.111910E-03
4.276632E+03	6.085932E-03	1.112030E-03
4.286578E+03	6.075280E-03	1.109925E-03
4.296524E+03	6.051842E-03	1.105485E-03
4.306469E+03	6.014938E-03	1.098588E-03
4.316415E+03	5.965186E-03	1.089348E-03
4.326361E+03	5.903616E-03	1.077954E-03
4.336306E+03	5.832326E-03	1.064789E-03
4.346252E+03	5.753735E-03	1.050296E-03
4.356198E+03	5.671185E-03	1.035085E-03
4.366143E+03	5.587985E-03	1.019761E-03
4.376089E+03	5.508307E-03	1.005084E-03
4.386035E+03	5.436384E-03	9.918275E-04
4.395980E+03	5.376564E-03	9.807831E-04
4.405926E+03	5.333038E-03	9.727147E-04
4.415872E+03	5.310216E-03	9.684251E-04
4.425817E+03	5.312211E-03	9.686628E-04
4.435763E+03	5.342694E-03	9.740955E-04
4.445709E+03	5.405777E-03	9.854710E-04
4.455654E+03	5.505060E-03	1.003443E-03
4.465600E+03	5.644253E-03	1.028685E-03
4.475546E+03	5.826896E-03	1.061840E-03
4.485491E+03	6.056923E-03	1.103621E-03
4.495437E+03	6.337479E-03	1.154599E-03
4.505383E+03	6.671769E-03	1.215354E-03
4.515328E+03	7.061864E-03	1.286261E-03
4.525274E+03	7.508888E-03	1.367519E-03
4.535220E+03	8.011644E-03	1.458909E-03
4.545165E+03	8.566634E-03	1.559789E-03
4.555111E+03	9.166484E-03	1.668815E-03
4.565057E+03	9.799648E-03	1.783882E-03
4.575002E+03	1.045070E-02	1.902180E-03
4.584948E+03	1.109896E-02	2.019946E-03
4.594894E+03	1.172003E-02	2.132740E-03
4.604839E+03	1.228690E-02	2.235651E-03
4.614785E+03	1.277218E-02	2.323696E-03
4.624730E+03	1.315076E-02	2.392316E-03
4.634676E+03	1.340251E-02	2.437854E-03
4.644622E+03	1.351556E-02	2.458158E-03
4.654567E+03	1.348681E-02	2.452676E-03
4.664513E+03	1.332203E-02	2.422460E-03
4.674459E+03	1.303551E-02	2.370120E-03
4.684404E+03	1.264716E-02	2.299281E-03
4.694350E+03	1.218023E-02	2.214175E-03
4.704296E+03	1.165866E-02	2.119156E-03
4.714241E+03	1.110554E-02	2.018423E-03
4.724187E+03	1.054188E-02	1.915796E-03
4.734133E+03	9.984081E-03	1.814258E-03
4.744078E+03	9.446390E-03	1.716394E-03
4.754024E+03	8.938480E-03	1.623961E-03
4.763970E+03	8.467462E-03	1.538249E-03
4.773915E+03	8.038110E-03	1.460122E-03
4.783861E+03	7.652977E-03	1.390043E-03
4.793807E+03	7.312915E-03	1.328164E-03
4.803752E+03	7.017936E-03	1.274484E-03
4.813698E+03	6.767015E-03	1.228815E-03
4.823644E+03	6.558394E-03	1.190837E-03
4.833589E+03	6.390197E-03	1.160205E-03
4.843535E+03	6.260170E-03	1.136510E-03
4.853481E+03	6.165764E-03	1.119286E-03
4.863426E+03	6.104718E-03	1.108122E-03
4.873372E+03	6.074081E-03	1.102481E-03
4.883318E+03	6.070899E-03	1.101826E-03
4.893263E+03	6.092022E-03	1.105583E-03
4.903209E+03	6.133341E-03	1.113006E-03
4.913155E+03	6.190042E-03	1.123222E-03
4.923100E+03	6.256889E-03	1.135279E-03
4.933046E+03	6.328141E-03	1.148135E-03
4.942991E+03	6.397458E-03	1.160641E-03
4.952937E+03	6.459230E-03	1.171778E-03
4.962883E+03	6.508036E-03	1.180565E-03
4.972828E+03	6.540169E-03	1.186328E-03
4.982774E+03	6.553116E-03	1.188612E-03
4.992720E+03	6.546285E-03	1.187311E-03
5.002665E+03	6.520832E-03	1.182635E-03
5.012611E+03	6.479424E-03	1.175068E-03
5.022557E+03	6.425964E-03	1.165319E-03
5.032502E+03	6.364724E-03	1.154162E-03
5.042448E+03	6.300440E-03	1.142456E-03
5.052394E+03	6.237362E-03	1.130972E-03
5.062339E+03	6.179973E-03	1.120522E-03
5.072285E+03	6.131467E-03	1.111686E-03
5.082231E+03	6.095029E-03	1.105041E-03
5.092176E+03	6.072929E-03	1.100998E-03
5.102122E+03	6.066699E-03	1.099834E-03
5.112068E+03	6.077413E-03	1.101744E-03
5.122013E+03	6.105791E-03	1.106859E-03
5.131959E+03	6.152050E-03	1.115217E-03
5.141905E+03	6.216017E-03	1.126787E-03
5.151850E+03	6.297436E-03	1.141523E-03
5.161796E+03	6.396143E-03	1.159393E-03
5.171742E+03	6.511250E-03	1.180239E-03
5.181687E+03	6.642469E-03	1.204007E-03
5.191633E+03	6.788727E-03	1.230503E-03
5.201579E+03	6.949125E-03	1.259564E-03
5.211524E+03	7.122195E-03	1.290924E-03
5.221470E+03	7.306389E-03	1.324302E-03
5.231416E+03	7.499610E-03	1.359320E-03
5.241361E+03	7.699137E-03	1.395484E-03
5.251307E+03	7.902216E-03	1.432295E-03
5.261253E+03	8.104874E-03	1.469033E-03
5.271198E+03	8.303695E-03	1.505080E-03
5.281144E+03	8.494262E-03	1.539635E-03
5.291089E+03	8.672582E-03	1.571974E-03
5.301035E+03	8.834510E-03	1.601347E-03
5.310981E+03	8.976769E-03	1.627159E-03
5.320926E+03	9.095978E-03	1.648798E-03
5.330872E+03	9.189802E-03	1.665841E-03
5.340818E+03	9.257110E-03	1.678081E-03
5.350763E+03	9.296968E-03	1.685351E-03
5.360709E+03	9.309871E-03	1.687739E-03
5.370655E+03	9.297015E-03	1.685462E-03
5.380600E+03	9.260170E-03	1.678840E-03
5.390546E+03	9.202223E-03	1.668395E-03
5.400492E+03	9.125784E-03	1.654602E-03
5.410437E+03	9.034208E-03	1.638067E-03
5.420383E+03	8.930472E-03	1.619330E-03
5.430329E+03	8.817846E-03	1.598984E-03
5.440274E+03	8.698459E-03	1.577413E-03
5.450220E+03	8.574319E-03	1.554982E-03
5.460166E+03	8.446445E-03	1.531875E-03
5.470111E+03	8.315073E-03	1.508135E-03
5.480057E+03	8.178805E-03	1.483508E-03
5.490003E+03	8.036153E-03	1.457723E-03
5.499948E+03	7.884121E-03	1.430236E-03
5.509894E+03	7.719252E-03	1.400421E-03
5.519840E+03	7.537936E-03	1.367621E-03
5.529785E+03	7.336955E-03	1.331251E-03
5.539731E+03	7.114095E-03	1.290908E-03
5.549677E+03	6.868643E-03	1.246463E-03
5.559622E+03	6.601893E-03	1.198148E-03
5.569568E+03	6.316722E-03	1.146484E-03
5.579514E+03	6.018318E-03	1.092413E-03
5.589459E+03	5.712883E-03	1.037059E-03
5.599405E+03	5.407621E-03	9.817287E-04
5.609351E+03	5.109536E-03	9.276941E-04
5.619296E+03	4.825572E-03	8.762156E-04
5.629242E+03	4.561541E-03	8.283495E-04
5.639187E+03	4.322068E-03	7.849358E-04
5.649133E+03	4.110746E-03	7.466286E-04
5.659079E+03	3.930255E-03	7.139155E-04
5.669024E+03	3.782354E-03	6.871180E-04
5.678970E+03	3.668448E-03	6.664925E-04
5.688916E+03	3.589592E-03	6.522326E-04
5.698861E+03	3.546706E-03	6.445074E-04
5.708807E+03	3.540916E-03	6.435234E-04
5.718753E+03	3.573358E-03	6.494894E-04
5.728698E+03	3.645531E-03	6.626800E-04
5.738644E+03	3.758748E-03	6.833362E-04
5.748590E+03	3.914454E-03	7.117236E-04
5.758535E+03	4.113628E-03	7.480226E-04
5.768481E+03	4.356802E-03	7.923331E-04
5.778427E+03	4.643164E-03	8.445103E-04
5.788372E+03	4.970268E-03	9.041122E-04
5.798318E+03	5.333829E-03	9.703622E-04
5.808264E+03	5.726650E-03	1.041953E-03
5.818209E+03	6.139058E-03	1.117128E-03
5.828155E+03	6.558648E-03	1.193629E-03
5.838101E+03	6.970260E-03	1.268700E-03
5.848046E+03	7.357466E-03	1.339348E-03
5.857992E+03	7.702725E-03	1.402379E-03
5.867938E+03	7.988981E-03	1.454684E-03
5.877883E+03	8.201637E-03	1.493602E-03
5.887829E+03	8.329111E-03	1.517017E-03
5.897775E+03	8.364738E-03	1.523710E-03
5.907720E+03	8.307458E-03	1.513480E-03
5.917666E+03	8.162203E-03	1.487219E-03
5.927612E+03	7.938765E-03	1.446706E-03
5.937557E+03	7.651777E-03	1.394600E-03
5.947503E+03	7.318034E-03	1.333958E-03
5.957449E+03	6.955472E-03	1.268048E-03
5.967394E+03	6.581591E-03	1.200056E-03
5.977340E+03	6.211752E-03	1.132783E-03
5.987285E+03	5.859305E-03	1.068663E-03
5.997231E+03	5.534341E-03	1.009540E-03
6.007177E+03	5.244247E-03	9.567623E-04
6.017122E+03	4.993389E-03	9.111293E-04
6.027068E+03	4.784157E-03	8.730802E-04
6.037014E+03	4.616665E-03	8.426390E-04
6.046959E+03	4.489572E-03	8.195643E-04
6.056905E+03	4.400463E-03	8.034184E-04
6.066851E+03	4.345841E-03	7.935657E-04
6.076796E+03	4.321995E-03	7.893313E-04
6.086742E+03	4.324591E-03	7.899260E-04
6.096688E+03	4.349248E-03	7.945518E-04
6.106633E+03	4.391320E-03	8.023618E-04
6.116579E+03	4.446258E-03	8.125259E-04
6.126525E+03	4.509617E-03	8.242327E-04
6.136470E+03	4.577139E-03	8.367048E-04
6.146416E+03	4.644896E-03	8.492244E-04
6.156362E+03	4.709042E-03	8.610882E-04
6.166307E+03	4.766179E-03	8.716744E-04
6.176253E+03	4.812900E-03	8.803593E-04
6.186199E+03	4.846463E-03	8.866402E-04
6.196144E+03	4.864285E-03	8.900435E-04
6.206090E+03	4.864034E-03	8.901410E-04
6.216036E+03	4.844383E-03	8.866880E-04
6.225981E+03	4.804530E-03	8.795362E-04
6.235927E+03	4.744909E-03	8.687631E-04
6.245873E+03	4.666961E-03	8.546307E-04
6.255818E+03	4.573472E-03	8.376480E-04
6.265764E+03	4.468454E-03	8.185479E-04
6.275710E+03	4.356610E-03	7.981913E-04
6.285655E+03	4.243343E-03	7.775677E-04
6.295601E+03	4.134014E-03	7.576592E-04
6.305546E+03	4.033912E-03	7.394358E-04
6.315492E+03	3.947633E-03	7.237409E-04
6.325438E+03	3.879131E-03	7.113006E-04
6.335383E+03	3.831617E-03	7.027057E-04
6.345329E+03	3.807409E-03	6.983829E-04
6.355275E+03	3.807991E-03	6.986069E-04
6.365220E+03	3.834332E-03	7.035577E-04
6.375166E+03	3.886614E-03	7.132711E-04
6.385112E+03	3.964618E-03	7.277092E-04
6.395057E+03	4.067006E-03	7.466289E-04
6.405003E+03	4.192094E-03	7.697230E-04
6.414949E+03	4.336801E-03	7.964283E-04
6.424894E+03	4.497193E-03	8.260236E-04
6.434840E+03	4.668053E-03	8.575523E-04
6.444786E+03	4.842960E-03	8.898354E-04
6.454731E+03	5.014392E-03	9.214911E-04
6.464677E+03	5.173863E-03	9.509591E-04
6.474623E+03	5.312731E-03	9.766500E-04
6.484568E+03	5.421999E-03	9.969076E-04
6.494514E+03	5.493720E-03	1.010267E-03
6.504460E+03	5.521384E-03	1.015528E-03
6.514405E+03	5.500341E-03	1.011832E-03
6.524351E+03	5.428498E-03	9.987868E-04
6.534297E+03	5.306904E-03	9.765823E-04
6.544242E+03	5.138944E-03	9.458366E-04
6.554188E+03	4.930412E-03	9.076116E-04
6.564134E+03	4.688924E-03	8.633059E-04
6.574079E+03	4.422895E-03	8.144657E-04
6.584025E+03	4.141177E-03	7.627192E-04
6.593971E+03	3.852437E-03	7.096612E-04
6.603916E+03	3.564411E-03	6.567167E-04
6.613862E+03	3.283846E-03	6.051287E-04
6.623808E+03	3.016251E-03	5.559135E-04
6.633753E+03	2.765635E-03	5.098111E-04
6.643699E+03	2.534815E-03	4.673426E-04
6.653644E+03	2.325354E-03	4.287982E-04
6.663590E+03	2.137771E-03	3.942754E-04
6.673536E+03	1.971894E-03	3.637447E-04
6.683481E+03	1.826867E-03	3.370502E-04
6.693427E+03	1.701523E-03	3.139787E-04
6.703373E+03	1.594425E-03	2.942666E-04
6.713318E+03	1.504021E-03	2.776292E-04
6.723264E+03	1.428890E-03	2.638060E-04
6.733210E+03	1.367589E-03	2.525318E-04
6.743155E+03	1.318921E-03	2.435867E-04
6.753101E+03	1.281821E-03	2.367753E-04
6.763047E+03	1.255361E-03	2.319272E-04
6.772992E+03	1.238845E-03	2.289151E-04
6.782938E+03	1.231600E-03	2.276152E-04
6.792884E+03	1.233141E-03	2.279389E-04
6.802829E+03	1.243038E-03	2.298074E-04
6.812775E+03	1.260942E-03	2.331571E-04
6.822721E+03	1.286452E-03	2.379145E-04
6.832666E+03	1.319250E-03	2.440216E-04
6.842612E+03	1.358970E-03	2.514113E-04
6.852558E+03	1.405200E-03	2.600079E-04
6.862503E+03	1.457458E-03	2.697229E-04
6.872449E+03	1.515135E-03	2.804442E-04
6.882395E+03	1.577612E-03	2.920578E-04
6.892340E+03	1.644057E-03	3.044097E-04
6.902286E+03	1.713546E-03	3.173295E-04
6.912232E+03	1.785051E-03	3.306271E-04
6.922177E+03	1.857429E-03	3.440907E-04
6.932123E+03	1.929632E-03	3.575262E-04
6.942069E+03	2.000524E-03	3.707232E-04
6.952014E+03	2.069085E-03	3.834926E-04
6.961960E+03	2.134593E-03	3.957000E-04
6.971906E+03	2.196621E-03	4.072662E-04
6.981851E+03	2.254955E-03	4.181510E-04
6.991797E+03	2.309912E-03	4.284131E-04
7.001742E+03	2.362137E-03	4.381717E-04
7.011688E+03	2.412534E-03	4.475941E-04
7.021634E+03	2.462387E-03	4.569187E-04
7.031579E+03	2.512864E-03	4.663618E-04
7.041525E+03	2.565276E-03	4.761673E-04
7.051471E+03	2.620756E-03	4.865453E-04
7.061416E+03	2.680153E-03	4.976538E-04
7.071362E+03	2.744140E-03	5.096180E-04
7.081308E+03	2.812990E-03	5.224894E-04
7.091253E+03	2.886558E-03	5.362412E-04
7.101199E+03	2.964489E-03	5.508079E-04
7.111145E+03	3.046007E-03	5.660457E-04
7.121090E+03	3.130241E-03	5.817930E-04
7.131036E+03	3.216091E-03	5.978454E-04
7.140982E+03	3.302199E-03	6.139510E-04
7.150927E+03	3.387457E-03	6.299032E-04
7.160873E+03	3.470611E-03	6.454691E-04
7.170819E+03	3.550366E-03	6.604074E-04
7.180764E+03	3.625573E-03	6.745041E-04
7.190710E+03	3.695170E-03	6.875611E-04
7.200656E+03	3.758276E-03	6.994140E-04
7.210601E+03	3.813850E-03	7.098683E-04
7.220547E+03	3.861289E-03	7.188114E-04
7.230493E+03	3.899824E-03	7.260991E-04
7.240438E+03	3.928870E-03	7.316217E-04
7.250384E+03	3.947949E-03	7.352895E-04
7.260330E+03	3.956720E-03	7.370381E-04
7.270275E+03	3.954922E-03	7.368176E-04
7.280221E+03	3.942788E-03	7.346710E-04
7.290167E+03	3.920565E-03	7.306430E-04
7.300112E+03	3.888849E-03	7.248440E-04
7.310058E+03	3.848816E-03	7.174927E-04
7.320004E+03	3.801970E-03	7.088683E-04
7.329949E+03	3.750095E-03	6.993033E-04
7.339895E+03	3.695505E-03	6.892286E-04
7.349840E+03	3.640268E-03	6.790298E-04
7.359786E+03	3.586547E-03	6.691104E-04
7.369732E+03	3.536312E-03	6.598381E-04
7.379677E+03	3.491013E-03	6.514840E-04
7.389623E+03	3.451472E-03	6.442016E-04
7.399569E+03	3.418065E-03	6.380619E-04
7.409514E+03	3.390405E-03	6.329929E-04
7.419460E+03	3.367624E-03	6.288332E-04
7.429406E+03	3.348467E-03	6.253489E-04
7.439351E+03	3.331256E-03	6.222265E-04
7.449297E+03	3.313957E-03	6.190865E-04
7.459243E+03	3.294815E-03	6.156010E-04
7.469188E+03	3.272049E-03	6.114370E-04
7.479134E+03	3.244013E-03	6.062864E-04
7.489080E+03	3.209790E-03	5.999775E-04
7.499025E+03	3.168757E-03	5.923936E-04
7.508971E+03	3.121036E-03	5.835565E-04
7.518917E+03	3.067200E-03	5.735730E-04
7.528862E+03	3.008393E-03	5.626568E-04
7.538808E+03	2.946432E-03	5.511470E-04
7.548754E+03	2.883286E-03	5.394121E-04
7.558699E+03	2.820910E-03	5.278177E-04
7.568645E+03	2.761428E-03	5.167612E-04
7.578591E+03	2.706780E-03	5.066061E-04
7.588536E+03	2.658504E-03	4.976406E-04
7.598482E+03	2.617864E-03	4.901019E-04
7.608428E+03	2.585734E-03	4.841542E-04
7.618373E+03	2.562564E-03	4.798828E-04
7.628319E+03	2.548372E-03	4.772911E-04
7.638265E+03	2.542748E-03	4.763035E-04
7.648210E+03	2.544883E-03	4.767690E-04
7.658156E+03	2.553605E-03	4.784688E-04
7.668101E+03	2.567433E-03	4.811254E-04
7.678047E+03	2.584625E-03	4.844130E-04
7.687993E+03	2.603254E-03	4.879706E-04
7.697938E+03	2.621281E-03	4.914162E-04
7.707884E+03	2.636712E-03	4.943756E-04
7.717830E+03	2.647439E-03	4.964534E-04
