#wls	flux	fluxerr
1.591305E+03	7.722038E-04	9.693824E-05
1.631088E+03	7.574418E-04	9.502235E-05
1.670870E+03	7.433105E-04	9.318669E-05
1.710653E+03	7.296922E-04	9.141641E-05
1.750436E+03	7.168494E-04	8.974431E-05
1.790218E+03	7.045411E-04	8.814007E-05
1.830001E+03	6.930194E-04	8.663513E-05
1.869784E+03	6.821707E-04	8.521513E-05
1.909566E+03	6.721187E-04	8.389535E-05
1.949349E+03	6.628682E-04	8.267624E-05
1.989131E+03	6.543170E-04	8.154483E-05
2.028914E+03	6.465868E-04	8.051613E-05
2.068697E+03	6.397921E-04	7.960416E-05
2.108479E+03	6.338393E-04	7.879704E-05
2.148262E+03	6.287441E-04	7.809647E-05
2.188045E+03	6.246261E-04	7.751704E-05
2.227827E+03	6.216018E-04	7.707290E-05
2.267610E+03	6.195953E-04	7.675429E-05
2.307392E+03	6.186357E-04	7.656447E-05
2.347175E+03	6.188531E-04	7.651920E-05
2.386958E+03	6.203788E-04	7.663425E-05
2.426740E+03	6.231661E-04	7.690339E-05
2.466523E+03	6.272715E-04	7.733313E-05
2.506306E+03	6.329433E-04	7.795352E-05
2.546088E+03	6.402580E-04	7.877337E-05
2.585871E+03	6.493051E-04	7.980302E-05
2.625653E+03	6.601917E-04	8.105489E-05
2.665436E+03	6.730428E-04	8.254356E-05
2.705219E+03	6.882738E-04	8.431905E-05
2.745001E+03	7.058733E-04	8.637894E-05
2.784784E+03	7.262183E-04	8.876828E-05
2.824567E+03	7.494433E-04	9.150224E-05
2.864349E+03	7.760864E-04	9.464512E-05
2.904132E+03	8.063549E-04	9.822061E-05
2.943914E+03	8.406872E-04	1.022804E-04
2.983697E+03	8.794727E-04	1.068698E-04
2.993643E+03	8.900033E-04	1.081164E-04
3.003588E+03	9.007716E-04	1.093911E-04
3.013534E+03	9.118868E-04	1.107070E-04
3.023480E+03	9.234576E-04	1.120773E-04
3.033425E+03	9.352903E-04	1.134783E-04
3.043371E+03	9.474942E-04	1.149235E-04
3.053317E+03	9.599746E-04	1.164011E-04
3.063262E+03	9.729485E-04	1.179375E-04
3.073208E+03	9.863211E-04	1.195212E-04
3.083154E+03	1.000103E-03	1.211534E-04
3.093099E+03	1.014198E-03	1.228222E-04
3.103045E+03	1.028828E-03	1.245547E-04
3.112991E+03	1.043897E-03	1.263392E-04
3.122936E+03	1.059418E-03	1.281770E-04
3.132882E+03	1.075290E-03	1.300561E-04
3.142828E+03	1.091745E-03	1.320043E-04
3.152773E+03	1.108684E-03	1.340097E-04
3.162719E+03	1.126120E-03	1.360736E-04
3.172665E+03	1.144065E-03	1.381977E-04
3.182610E+03	1.162531E-03	1.403831E-04
3.192556E+03	1.181531E-03	1.426315E-04
3.202502E+03	1.201195E-03	1.449584E-04
3.212447E+03	1.221302E-03	1.473371E-04
3.222393E+03	1.242101E-03	1.497977E-04
3.232339E+03	1.263489E-03	1.523275E-04
3.242284E+03	1.285480E-03	1.549282E-04
3.252230E+03	1.308088E-03	1.576013E-04
3.262175E+03	1.331450E-03	1.603634E-04
3.272121E+03	1.355460E-03	1.632016E-04
3.282067E+03	1.380132E-03	1.661175E-04
3.292012E+03	1.405481E-03	1.691129E-04
3.301958E+03	1.431651E-03	1.722048E-04
3.311904E+03	1.458531E-03	1.753799E-04
3.321849E+03	1.486135E-03	1.786398E-04
3.331795E+03	1.514613E-03	1.820024E-04
3.341741E+03	1.543849E-03	1.854537E-04
3.351686E+03	1.573859E-03	1.889954E-04
3.361632E+03	1.604796E-03	1.926461E-04
3.371578E+03	1.636542E-03	1.963911E-04
3.381523E+03	1.669254E-03	2.002494E-04
3.391469E+03	1.702812E-03	2.042065E-04
3.401415E+03	1.737379E-03	2.082816E-04
3.411360E+03	1.772833E-03	2.124602E-04
3.421306E+03	1.809198E-03	2.167449E-04
3.431252E+03	1.846646E-03	2.211564E-04
3.441197E+03	1.885212E-03	2.256985E-04
3.451143E+03	1.924781E-03	2.303575E-04
3.461089E+03	1.965544E-03	2.351560E-04
3.471034E+03	2.007392E-03	2.400809E-04
3.480980E+03	2.050530E-03	2.451565E-04
3.490926E+03	2.094853E-03	2.503702E-04
3.500871E+03	2.140579E-03	2.557476E-04
3.510817E+03	2.187770E-03	2.612964E-04
3.520763E+03	2.236325E-03	2.670040E-04
3.530708E+03	2.286471E-03	2.728975E-04
3.540654E+03	2.338103E-03	2.789640E-04
3.550600E+03	2.391624E-03	2.852516E-04
3.560545E+03	2.446751E-03	2.917262E-04
3.570491E+03	2.503536E-03	2.983939E-04
3.580436E+03	2.562390E-03	3.053034E-04
3.590382E+03	2.623008E-03	3.124181E-04
3.600328E+03	2.685620E-03	3.197652E-04
3.610273E+03	2.750268E-03	3.273494E-04
3.620219E+03	2.816798E-03	3.351521E-04
3.630165E+03	2.885416E-03	3.431978E-04
3.640110E+03	2.956130E-03	3.514869E-04
3.650056E+03	3.028925E-03	3.600176E-04
3.660002E+03	3.103773E-03	3.687861E-04
3.669947E+03	3.180420E-03	3.777622E-04
3.679893E+03	3.259015E-03	3.869633E-04
3.689839E+03	3.339513E-03	3.963839E-04
3.699784E+03	3.421894E-03	4.060211E-04
3.709730E+03	3.506180E-03	4.158776E-04
3.719676E+03	3.592459E-03	4.259635E-04
3.729621E+03	3.680675E-03	4.362719E-04
3.739567E+03	3.771306E-03	4.468592E-04
3.749513E+03	3.864935E-03	4.577943E-04
3.759458E+03	3.961305E-03	4.690463E-04
3.769404E+03	4.061612E-03	4.807564E-04
3.779350E+03	4.166166E-03	4.929609E-04
3.789295E+03	4.275275E-03	5.056958E-04
3.799241E+03	4.389962E-03	5.190813E-04
3.809187E+03	4.510207E-03	5.331145E-04
3.819132E+03	4.636642E-03	5.478695E-04
3.829078E+03	4.769517E-03	5.633749E-04
3.839024E+03	4.908625E-03	5.796057E-04
3.848969E+03	5.054322E-03	5.966031E-04
3.858915E+03	5.205581E-03	6.142450E-04
3.868861E+03	5.361825E-03	6.324629E-04
3.878806E+03	5.521784E-03	6.511064E-04
3.888752E+03	5.683450E-03	6.699385E-04
3.898698E+03	5.844922E-03	6.887348E-04
3.908643E+03	6.003540E-03	7.071821E-04
3.918589E+03	6.156237E-03	7.249199E-04
3.928534E+03	6.299322E-03	7.415142E-04
3.938480E+03	6.429587E-03	7.565887E-04
3.948426E+03	6.543583E-03	7.697396E-04
3.958371E+03	6.637886E-03	7.805659E-04
3.968317E+03	6.710267E-03	7.888082E-04
3.978263E+03	6.758616E-03	7.942212E-04
3.988208E+03	6.782416E-03	7.967472E-04
3.998154E+03	6.781522E-03	7.963718E-04
4.008100E+03	6.757439E-03	7.932750E-04
4.018045E+03	6.712000E-03	7.876746E-04
4.027991E+03	6.648144E-03	7.799178E-04
4.037937E+03	6.569693E-03	7.704551E-04
4.047882E+03	6.480504E-03	7.597405E-04
4.057828E+03	6.383975E-03	7.481734E-04
4.067774E+03	6.284587E-03	7.362796E-04
4.077719E+03	6.185441E-03	7.244226E-04
4.087665E+03	6.090355E-03	7.130494E-04
4.097611E+03	6.001886E-03	7.024589E-04
4.107556E+03	5.922346E-03	6.929207E-04
4.117502E+03	5.853541E-03	6.846450E-04
4.127448E+03	5.796746E-03	6.777797E-04
4.137393E+03	5.752737E-03	6.724139E-04
4.147339E+03	5.721556E-03	6.685514E-04
4.157285E+03	5.703518E-03	6.662272E-04
4.167230E+03	5.697539E-03	6.653135E-04
4.177176E+03	5.702629E-03	6.656932E-04
4.187122E+03	5.717861E-03	6.672570E-04
4.197067E+03	5.740874E-03	6.697284E-04
4.207013E+03	5.770126E-03	6.729266E-04
4.216959E+03	5.803403E-03	6.765930E-04
4.226904E+03	5.838117E-03	6.804252E-04
4.236850E+03	5.871781E-03	6.841339E-04
4.246796E+03	5.901906E-03	6.874288E-04
4.256741E+03	5.926285E-03	6.900536E-04
4.266687E+03	5.942234E-03	6.916967E-04
4.276632E+03	5.948230E-03	6.921815E-04
4.286578E+03	5.942312E-03	6.912811E-04
4.296524E+03	5.923707E-03	6.889070E-04
4.306469E+03	5.892087E-03	6.850223E-04
4.316415E+03	5.847837E-03	6.796731E-04
4.326361E+03	5.791899E-03	6.729704E-04
4.336306E+03	5.726323E-03	6.651532E-04
4.346252E+03	5.653628E-03	6.565154E-04
4.356198E+03	5.576519E-03	6.473714E-04
4.366143E+03	5.499150E-03	6.382038E-04
4.376089E+03	5.424886E-03	6.294031E-04
4.386035E+03	5.358265E-03	6.214951E-04
4.395980E+03	5.303398E-03	6.149560E-04
4.405926E+03	5.264587E-03	6.102830E-04
4.415872E+03	5.245885E-03	6.079445E-04
4.425817E+03	5.251733E-03	6.084528E-04
4.435763E+03	5.285909E-03	6.122434E-04
4.445709E+03	5.352249E-03	6.197575E-04
4.455654E+03	5.454342E-03	6.314078E-04
4.465600E+03	5.596094E-03	6.476429E-04
4.475546E+03	5.781225E-03	6.688898E-04
4.485491E+03	6.013241E-03	6.955500E-04
4.495437E+03	6.295809E-03	7.280437E-04
4.505383E+03	6.632036E-03	7.667256E-04
4.515328E+03	7.023820E-03	8.118104E-04
4.525274E+03	7.472802E-03	8.634833E-04
4.535220E+03	7.977401E-03	9.215570E-04
4.545165E+03	8.534451E-03	9.856614E-04
4.555111E+03	9.136665E-03	1.054951E-03
4.565057E+03	9.772827E-03	1.128128E-03
4.575002E+03	1.042717E-02	1.203370E-03
4.584948E+03	1.107936E-02	1.278331E-03
4.594894E+03	1.170541E-02	1.350243E-03
4.604839E+03	1.227774E-02	1.415930E-03
4.614785E+03	1.276926E-02	1.472272E-03
4.624730E+03	1.315520E-02	1.516424E-03
4.634676E+03	1.341486E-02	1.546004E-03
4.644622E+03	1.353621E-02	1.559639E-03
4.654567E+03	1.351587E-02	1.556951E-03
4.664513E+03	1.335957E-02	1.538610E-03
4.674459E+03	1.308066E-02	1.506163E-03
4.684404E+03	1.269950E-02	1.461964E-03
4.694350E+03	1.223848E-02	1.408594E-03
4.704296E+03	1.172203E-02	1.348874E-03
4.714241E+03	1.117291E-02	1.285423E-03
4.724187E+03	1.061228E-02	1.220678E-03
4.734133E+03	1.005679E-02	1.156553E-03
4.744078E+03	9.520138E-03	1.094623E-03
4.754024E+03	9.013115E-03	1.036127E-03
4.763970E+03	8.542450E-03	9.818342E-04
4.773915E+03	8.112881E-03	9.322878E-04
4.783861E+03	7.727540E-03	8.878440E-04
4.793807E+03	7.387107E-03	8.485778E-04
4.803752E+03	7.091726E-03	8.145028E-04
4.813698E+03	6.840274E-03	7.854867E-04
4.823644E+03	6.631370E-03	7.613683E-04
4.833589E+03	6.463039E-03	7.419179E-04
4.843535E+03	6.332897E-03	7.268596E-04
4.853481E+03	6.238715E-03	7.159353E-04
4.863426E+03	6.177973E-03	7.088538E-04
4.873372E+03	6.147992E-03	7.053059E-04
4.883318E+03	6.145632E-03	7.049296E-04
4.893263E+03	6.167648E-03	7.073516E-04
4.903209E+03	6.209862E-03	7.120917E-04
4.913155E+03	6.267880E-03	7.186448E-04
4.923100E+03	6.336003E-03	7.263573E-04
4.933046E+03	6.408484E-03	7.345699E-04
4.942991E+03	6.479034E-03	7.425618E-04
4.952937E+03	6.542083E-03	7.496949E-04
4.962883E+03	6.592108E-03	7.553369E-04
4.972828E+03	6.625281E-03	7.590497E-04
4.982774E+03	6.639187E-03	7.605574E-04
4.992720E+03	6.633048E-03	7.597718E-04
5.002665E+03	6.608333E-03	7.568618E-04
5.012611E+03	6.567374E-03	7.520952E-04
5.022557E+03	6.514263E-03	7.459412E-04
5.032502E+03	6.453097E-03	7.388689E-04
5.042448E+03	6.388668E-03	7.314276E-04
5.052394E+03	6.325495E-03	7.241345E-04
5.062339E+03	6.267723E-03	7.174637E-04
5.072285E+03	6.218931E-03	7.118250E-04
5.082231E+03	6.182081E-03	7.075570E-04
5.092176E+03	6.159310E-03	7.049040E-04
5.102122E+03	6.152572E-03	7.040891E-04
5.112068E+03	6.162792E-03	7.052181E-04
5.122013E+03	6.190558E-03	7.083579E-04
5.131959E+03	6.236074E-03	7.135316E-04
5.141905E+03	6.299248E-03	7.207285E-04
5.151850E+03	6.379798E-03	7.299160E-04
5.161796E+03	6.477266E-03	7.410419E-04
5.171742E+03	6.591081E-03	7.540408E-04
5.181687E+03	6.720679E-03	7.688482E-04
5.191633E+03	6.864859E-03	7.853269E-04
5.201579E+03	7.022666E-03	8.033677E-04
5.211524E+03	7.192865E-03	8.228297E-04
5.221470E+03	7.373531E-03	8.434929E-04
5.231416E+03	7.562476E-03	8.651072E-04
5.241361E+03	7.757057E-03	8.873710E-04
5.251307E+03	7.954138E-03	9.099256E-04
5.261253E+03	8.150356E-03	9.323869E-04
5.271198E+03	8.341415E-03	9.542637E-04
5.281144E+03	8.523579E-03	9.751289E-04
5.291089E+03	8.692526E-03	9.944885E-04
5.301035E+03	8.844314E-03	1.011892E-03
5.310981E+03	8.975611E-03	1.026957E-03
5.320926E+03	9.083264E-03	1.039324E-03
5.330872E+03	9.165067E-03	1.048741E-03
5.340818E+03	9.219664E-03	1.055051E-03
5.350763E+03	9.246851E-03	1.058231E-03
5.360709E+03	9.246665E-03	1.058284E-03
5.370655E+03	9.221100E-03	1.055439E-03
5.380600E+03	9.171601E-03	1.049860E-03
5.390546E+03	9.101256E-03	1.041899E-03
5.400492E+03	9.012930E-03	1.031884E-03
5.410437E+03	8.910074E-03	1.020210E-03
5.420383E+03	8.795650E-03	1.007214E-03
5.430329E+03	8.672570E-03	9.932300E-04
5.440274E+03	8.543497E-03	9.785614E-04
5.450220E+03	8.410042E-03	9.633928E-04
5.460166E+03	8.273231E-03	9.478409E-04
5.470111E+03	8.133364E-03	9.319398E-04
5.480057E+03	7.989553E-03	9.155873E-04
5.490003E+03	7.839749E-03	8.985481E-04
5.499948E+03	7.681247E-03	8.805113E-04
5.509894E+03	7.510947E-03	8.611208E-04
5.519840E+03	7.325437E-03	8.399846E-04
5.529785E+03	7.121529E-03	8.167356E-04
5.539731E+03	6.897188E-03	7.911391E-04
5.549677E+03	6.652145E-03	7.631625E-04
5.559622E+03	6.387132E-03	7.328883E-04
5.569568E+03	6.105663E-03	7.007181E-04
5.579514E+03	5.812230E-03	6.671659E-04
5.589459E+03	5.513028E-03	6.329417E-04
5.599405E+03	5.214720E-03	5.988098E-04
5.609351E+03	4.924292E-03	5.655721E-04
5.619296E+03	4.648123E-03	5.339614E-04
5.629242E+03	4.391713E-03	5.046103E-04
5.639187E+03	4.159493E-03	4.780290E-04
5.649133E+03	3.954725E-03	4.545939E-04
5.659079E+03	3.779927E-03	4.345961E-04
5.669024E+03	3.636790E-03	4.182324E-04
5.678970E+03	3.526531E-03	4.056445E-04
5.688916E+03	3.450112E-03	3.969459E-04
5.698861E+03	3.408359E-03	3.922340E-04
5.708807E+03	3.402410E-03	3.916427E-04
5.718753E+03	3.433233E-03	3.952862E-04
5.728698E+03	3.502272E-03	4.033340E-04
5.738644E+03	3.610740E-03	4.159289E-04
5.748590E+03	3.760115E-03	4.332450E-04
5.758535E+03	3.951236E-03	4.553826E-04
5.768481E+03	4.184654E-03	4.824089E-04
5.778427E+03	4.459486E-03	5.142264E-04
5.788372E+03	4.773703E-03	5.506051E-04
5.798318E+03	5.122961E-03	5.910475E-04
5.808264E+03	5.500591E-03	6.347877E-04
5.818209E+03	5.897277E-03	6.807535E-04
5.828155E+03	6.301046E-03	7.275644E-04
5.838101E+03	6.697787E-03	7.735918E-04
5.848046E+03	7.071213E-03	8.169535E-04
5.857992E+03	7.404938E-03	8.557540E-04
5.867938E+03	7.682558E-03	8.880935E-04
5.877883E+03	7.889718E-03	9.123065E-04
5.887829E+03	8.015557E-03	9.271299E-04
5.897775E+03	8.053379E-03	9.317806E-04
5.907720E+03	8.002030E-03	9.261162E-04
5.917666E+03	7.865957E-03	9.106420E-04
5.927612E+03	7.654905E-03	8.864777E-04
5.937557E+03	7.382311E-03	8.551715E-04
5.947503E+03	7.064377E-03	8.185940E-04
5.957449E+03	6.718420E-03	7.787476E-04
5.967394E+03	6.360947E-03	7.375426E-04
5.977340E+03	6.006994E-03	6.967215E-04
5.987285E+03	5.669329E-03	6.577657E-04
5.997231E+03	5.357681E-03	6.218060E-04
6.007177E+03	5.079132E-03	5.896670E-04
6.017122E+03	4.838263E-03	5.618845E-04
6.027068E+03	4.637125E-03	5.387004E-04
6.037014E+03	4.476093E-03	5.201629E-04
6.046959E+03	4.353813E-03	5.061189E-04
6.056905E+03	4.268021E-03	4.963096E-04
6.066851E+03	4.215341E-03	4.903462E-04
6.076796E+03	4.192356E-03	4.878350E-04
6.086742E+03	4.194781E-03	4.882807E-04
6.096688E+03	4.218318E-03	4.911856E-04
6.106633E+03	4.258668E-03	4.960515E-04
6.116579E+03	4.311336E-03	5.023568E-04
6.126525E+03	4.372132E-03	5.096143E-04
6.136470E+03	4.436835E-03	5.173330E-04
6.146416E+03	4.501662E-03	5.250722E-04
6.156362E+03	4.562982E-03	5.324079E-04
6.166307E+03	4.617195E-03	5.389199E-04
6.176253E+03	4.661528E-03	5.442834E-04
6.186199E+03	4.692934E-03	5.481412E-04
6.196144E+03	4.708929E-03	5.502017E-04
6.206090E+03	4.707703E-03	5.502513E-04
6.216036E+03	4.687472E-03	5.480793E-04
6.225981E+03	4.647937E-03	5.436483E-04
6.235927E+03	4.589116E-03	5.369581E-04
6.245873E+03	4.512866E-03	5.282234E-04
6.255818E+03	4.421669E-03	5.177329E-04
6.265764E+03	4.319431E-03	5.059421E-04
6.275710E+03	4.210671E-03	4.933788E-04
6.285655E+03	4.100716E-03	4.806670E-04
6.295601E+03	3.994597E-03	4.683960E-04
6.305546E+03	3.897320E-03	4.571537E-04
6.315492E+03	3.813476E-03	4.474799E-04
6.325438E+03	3.746854E-03	4.398208E-04
6.335383E+03	3.700458E-03	4.345315E-04
6.345329E+03	3.676509E-03	4.318755E-04
6.355275E+03	3.676416E-03	4.320210E-04
6.365220E+03	3.701119E-03	4.350816E-04
6.375166E+03	3.750864E-03	4.410895E-04
6.385112E+03	3.825283E-03	4.500044E-04
6.395057E+03	3.923221E-03	4.616939E-04
6.405003E+03	4.043018E-03	4.759652E-04
6.414949E+03	4.181679E-03	4.924686E-04
6.424894E+03	4.335448E-03	5.107641E-04
6.434840E+03	4.499441E-03	5.302779E-04
6.444786E+03	4.667282E-03	5.502598E-04
6.454731E+03	4.831878E-03	5.698736E-04
6.464677E+03	4.985205E-03	5.881722E-04
6.474623E+03	5.118785E-03	6.041535E-04
6.484568E+03	5.224207E-03	6.168220E-04
6.494514E+03	5.293745E-03	6.252614E-04
6.504460E+03	5.321038E-03	6.287154E-04
6.514405E+03	5.301847E-03	6.266774E-04
6.524351E+03	5.233976E-03	6.188819E-04
6.534297E+03	5.118299E-03	6.054257E-04
6.544242E+03	4.958244E-03	5.867084E-04
6.554188E+03	4.759188E-03	5.633605E-04
6.564134E+03	4.528284E-03	5.362240E-04
6.574079E+03	4.273669E-03	5.062588E-04
6.584025E+03	4.003813E-03	4.744654E-04
6.593971E+03	3.727036E-03	4.418280E-04
6.603916E+03	3.450656E-03	4.092137E-04
6.613862E+03	3.181343E-03	3.774139E-04
6.623808E+03	2.924329E-03	3.470502E-04
6.633753E+03	2.683405E-03	3.185744E-04
6.643699E+03	2.461401E-03	2.923248E-04
6.653644E+03	2.259854E-03	2.684861E-04
6.663590E+03	2.079226E-03	2.471164E-04
6.673536E+03	1.919458E-03	2.282109E-04
6.683481E+03	1.779792E-03	2.116826E-04
6.693427E+03	1.659001E-03	1.973878E-04
6.703373E+03	1.555821E-03	1.851787E-04
6.713318E+03	1.468809E-03	1.748856E-04
6.723264E+03	1.396513E-03	1.663378E-04
6.733210E+03	1.337656E-03	1.593851E-04
6.743155E+03	1.290999E-03	1.538813E-04
6.753101E+03	1.255629E-03	1.497195E-04
6.763047E+03	1.230622E-03	1.467905E-04
6.772992E+03	1.215263E-03	1.450106E-04
6.782938E+03	1.208996E-03	1.443147E-04
6.792884E+03	1.211303E-03	1.446419E-04
6.802829E+03	1.221808E-03	1.459486E-04
6.812775E+03	1.240122E-03	1.481892E-04
6.822721E+03	1.265947E-03	1.513293E-04
6.832666E+03	1.298920E-03	1.553262E-04
6.842612E+03	1.338723E-03	1.601428E-04
6.852558E+03	1.384919E-03	1.657278E-04
6.862503E+03	1.437072E-03	1.720298E-04
6.872449E+03	1.494621E-03	1.789822E-04
6.882395E+03	1.556809E-03	1.864951E-04
6.892340E+03	1.622965E-03	1.944887E-04
6.902286E+03	1.692092E-03	2.028439E-04
6.912232E+03	1.763168E-03	2.114386E-04
6.922177E+03	1.835143E-03	2.201469E-04
6.932123E+03	1.906844E-03	2.288283E-04
6.942069E+03	1.977233E-03	2.373581E-04
6.952014E+03	2.045339E-03	2.456193E-04
6.961960E+03	2.110339E-03	2.535130E-04
6.971906E+03	2.171747E-03	2.609803E-04
6.981851E+03	2.229491E-03	2.680121E-04
6.991797E+03	2.283761E-03	2.746308E-04
7.001742E+03	2.335172E-03	2.809099E-04
7.011688E+03	2.384715E-03	2.869680E-04
7.021634E+03	2.433530E-03	2.929425E-04
7.031579E+03	2.482790E-03	2.989745E-04
7.041525E+03	2.533713E-03	3.052106E-04
7.051471E+03	2.587390E-03	3.117824E-04
7.061416E+03	2.644765E-03	3.188041E-04
7.071362E+03	2.706422E-03	3.263467E-04
7.081308E+03	2.772461E-03	3.344226E-04
7.091253E+03	2.842928E-03	3.430378E-04
7.101199E+03	2.917312E-03	3.521313E-04
7.111145E+03	2.994896E-03	3.616169E-04
7.121090E+03	3.074823E-03	3.713914E-04
7.131036E+03	3.155911E-03	3.813124E-04
7.140982E+03	3.236961E-03	3.912349E-04
7.150927E+03	3.316730E-03	4.010087E-04
7.160873E+03	3.393982E-03	4.104841E-04
7.170819E+03	3.467620E-03	4.195281E-04
7.180764E+03	3.536338E-03	4.279821E-04
7.190710E+03	3.599306E-03	4.357449E-04
7.200656E+03	3.655501E-03	4.426923E-04
7.210601E+03	3.704001E-03	4.487114E-04
7.220547E+03	3.744285E-03	4.537383E-04
7.230493E+03	3.775628E-03	4.576842E-04
7.240438E+03	3.797403E-03	4.604717E-04
7.250384E+03	3.809411E-03	4.620759E-04
7.260330E+03	3.811277E-03	4.624499E-04
7.270275E+03	3.802793E-03	4.615675E-04
7.280221E+03	3.784290E-03	4.594675E-04
7.290167E+03	3.755950E-03	4.561709E-04
7.300112E+03	3.718604E-03	4.517775E-04
7.310058E+03	3.673353E-03	4.464201E-04
7.320004E+03	3.621581E-03	4.402662E-04
7.329949E+03	3.565317E-03	4.335616E-04
7.339895E+03	3.506417E-03	4.265316E-04
7.349840E+03	3.447118E-03	4.194484E-04
7.359786E+03	3.389462E-03	4.125601E-04
7.369732E+03	3.335120E-03	4.060706E-04
7.379677E+03	3.285535E-03	4.001560E-04
7.389623E+03	3.241527E-03	3.949168E-04
7.399569E+03	3.203257E-03	3.903731E-04
7.409514E+03	3.170503E-03	3.864987E-04
7.419460E+03	3.142349E-03	3.831824E-04
7.429406E+03	3.117632E-03	3.802829E-04
7.439351E+03	3.094790E-03	3.776100E-04
7.449297E+03	3.072006E-03	3.749421E-04
7.459243E+03	3.047622E-03	3.720766E-04
7.469188E+03	3.019936E-03	3.688060E-04
7.479134E+03	2.987700E-03	3.649770E-04
7.489080E+03	2.949888E-03	3.604640E-04
7.499025E+03	2.906046E-03	3.552109E-04
7.508971E+03	2.856342E-03	3.492374E-04
7.518917E+03	2.801403E-03	3.426199E-04
7.528862E+03	2.742282E-03	3.354865E-04
7.538808E+03	2.680518E-03	3.280251E-04
7.548754E+03	2.617905E-03	3.204550E-04
7.558699E+03	2.556406E-03	3.130167E-04
7.568645E+03	2.497854E-03	3.059345E-04
7.578591E+03	2.443837E-03	2.994037E-04
7.588536E+03	2.395767E-03	2.935975E-04
7.598482E+03	2.354735E-03	2.886505E-04
7.608428E+03	2.321547E-03	2.846621E-04
7.618373E+03	2.296490E-03	2.816684E-04
7.628319E+03	2.279529E-03	2.796660E-04
7.638265E+03	2.270256E-03	2.786055E-04
7.648210E+03	2.267975E-03	2.784025E-04
7.658156E+03	2.271545E-03	2.789174E-04
7.668101E+03	2.279690E-03	2.799942E-04
7.678047E+03	2.290716E-03	2.814251E-04
7.687993E+03	2.303041E-03	2.830162E-04
7.697938E+03	2.314799E-03	2.845380E-04
7.707884E+03	2.324184E-03	2.857685E-04
7.717830E+03	2.329541E-03	2.865039E-04
