#wls	flux	fluxerr
1.591305E+03	7.664432E-04	8.412889E-05
1.631088E+03	7.519879E-04	8.246448E-05
1.670870E+03	7.381513E-04	8.086920E-05
1.710653E+03	7.248170E-04	7.933017E-05
1.750436E+03	7.121220E-04	7.786226E-05
1.790218E+03	7.000747E-04	7.646626E-05
1.830001E+03	6.886831E-04	7.514289E-05
1.869784E+03	6.779573E-04	7.389307E-05
1.909566E+03	6.680181E-04	7.272979E-05
1.949349E+03	6.587609E-04	7.164144E-05
1.989131E+03	6.503056E-04	7.064086E-05
2.028914E+03	6.426600E-04	6.972862E-05
2.068697E+03	6.358345E-04	6.890561E-05
2.108479E+03	6.298420E-04	6.817291E-05
2.148262E+03	6.246984E-04	6.753197E-05
2.188045E+03	6.205211E-04	6.699513E-05
2.227827E+03	6.172316E-04	6.655356E-05
2.267610E+03	6.150472E-04	6.623031E-05
2.307392E+03	6.138983E-04	6.601742E-05
2.347175E+03	6.138189E-04	6.591809E-05
2.386958E+03	6.149407E-04	6.594598E-05
2.426740E+03	6.173095E-04	6.610542E-05
2.466523E+03	6.209788E-04	6.640155E-05
2.506306E+03	6.261019E-04	6.685009E-05
2.546088E+03	6.327529E-04	6.745821E-05
2.585871E+03	6.410171E-04	6.823421E-05
2.625653E+03	6.509960E-04	6.918803E-05
2.665436E+03	6.629854E-04	7.035010E-05
2.705219E+03	6.770325E-04	7.172434E-05
2.745001E+03	6.934775E-04	7.334557E-05
2.784784E+03	7.123210E-04	7.521249E-05
2.824567E+03	7.339570E-04	7.736522E-05
2.864349E+03	7.587210E-04	7.983745E-05
2.904132E+03	7.868012E-04	8.264704E-05
2.943914E+03	8.187083E-04	8.584557E-05
2.983697E+03	8.548124E-04	8.946942E-05
2.993643E+03	8.645210E-04	9.044434E-05
3.003588E+03	8.745559E-04	9.145233E-05
3.013534E+03	8.849248E-04	9.249414E-05
3.023480E+03	8.955358E-04	9.356012E-05
3.033425E+03	9.065974E-04	9.467201E-05
3.043371E+03	9.179168E-04	9.580961E-05
3.053317E+03	9.294996E-04	9.697346E-05
3.063262E+03	9.415617E-04	9.818603E-05
3.073208E+03	9.539050E-04	9.942662E-05
3.083154E+03	9.667472E-04	1.007178E-04
3.093099E+03	9.798886E-04	1.020388E-04
3.103045E+03	9.933382E-04	1.033905E-04
3.112991E+03	1.007319E-03	1.047959E-04
3.122936E+03	1.021734E-03	1.062451E-04
3.132882E+03	1.036488E-03	1.077278E-04
3.142828E+03	1.051699E-03	1.092564E-04
3.152773E+03	1.067489E-03	1.108435E-04
3.162719E+03	1.083651E-03	1.124675E-04
3.172665E+03	1.100306E-03	1.141409E-04
3.182610E+03	1.117467E-03	1.158650E-04
3.192556E+03	1.135149E-03	1.176410E-04
3.202502E+03	1.153247E-03	1.194584E-04
3.212447E+03	1.172008E-03	1.213424E-04
3.222393E+03	1.191330E-03	1.232824E-04
3.232339E+03	1.211229E-03	1.252800E-04
3.242284E+03	1.231599E-03	1.273242E-04
3.252230E+03	1.252695E-03	1.294411E-04
3.262175E+03	1.274415E-03	1.316202E-04
3.272121E+03	1.296650E-03	1.338501E-04
3.282067E+03	1.319665E-03	1.361580E-04
3.292012E+03	1.343354E-03	1.385330E-04
3.301958E+03	1.367736E-03	1.409767E-04
3.311904E+03	1.392828E-03	1.434909E-04
3.321849E+03	1.418650E-03	1.460776E-04
3.331795E+03	1.445222E-03	1.487387E-04
3.341741E+03	1.472564E-03	1.514760E-04
3.351686E+03	1.500699E-03	1.542919E-04
3.361632E+03	1.529784E-03	1.572024E-04
3.371578E+03	1.559572E-03	1.601819E-04
3.381523E+03	1.590363E-03	1.632610E-04
3.391469E+03	1.622046E-03	1.664283E-04
3.401415E+03	1.654648E-03	1.696865E-04
3.411360E+03	1.688198E-03	1.730382E-04
3.421306E+03	1.722875E-03	1.765016E-04
3.431252E+03	1.758418E-03	1.800500E-04
3.441197E+03	1.795159E-03	1.837171E-04
3.451143E+03	1.832987E-03	1.874913E-04
3.461089E+03	1.871940E-03	1.913765E-04
3.471034E+03	1.912218E-03	1.953927E-04
3.480980E+03	1.953709E-03	1.995284E-04
3.490926E+03	1.996460E-03	2.037882E-04
3.500871E+03	2.040515E-03	2.081764E-04
3.510817E+03	2.085924E-03	2.126978E-04
3.520763E+03	2.132904E-03	2.173743E-04
3.530708E+03	2.181339E-03	2.221939E-04
3.540654E+03	2.231455E-03	2.271793E-04
3.550600E+03	2.282956E-03	2.323002E-04
3.560545E+03	2.336240E-03	2.375969E-04
3.570491E+03	2.391365E-03	2.430748E-04
3.580436E+03	2.448017E-03	2.487019E-04
3.590382E+03	2.506608E-03	2.545196E-04
3.600328E+03	2.567189E-03	2.605330E-04
3.610273E+03	2.629428E-03	2.667079E-04
3.620219E+03	2.693746E-03	2.730868E-04
3.630165E+03	2.760190E-03	2.796741E-04
3.640110E+03	2.828606E-03	2.864539E-04
3.650056E+03	2.899032E-03	2.934297E-04
3.660002E+03	2.971508E-03	3.006052E-04
3.669947E+03	3.046286E-03	3.080056E-04
3.679893E+03	3.123207E-03	3.156145E-04
3.689839E+03	3.202544E-03	3.234591E-04
3.699784E+03	3.284146E-03	3.315238E-04
3.709730E+03	3.368082E-03	3.398151E-04
3.719676E+03	3.454661E-03	3.483639E-04
3.729621E+03	3.543750E-03	3.571562E-04
3.739567E+03	3.635441E-03	3.662012E-04
3.749513E+03	3.730073E-03	3.755324E-04
3.759458E+03	3.827503E-03	3.851350E-04
3.769404E+03	3.928062E-03	3.950417E-04
3.779350E+03	4.031308E-03	4.052078E-04
3.789295E+03	4.138025E-03	4.157117E-04
3.799241E+03	4.247423E-03	4.264732E-04
3.809187E+03	4.359928E-03	4.375350E-04
3.819132E+03	4.475106E-03	4.488529E-04
3.829078E+03	4.592961E-03	4.604270E-04
3.839024E+03	4.712838E-03	4.721912E-04
3.848969E+03	4.834224E-03	4.840939E-04
3.858915E+03	4.956468E-03	4.960697E-04
3.868861E+03	5.079073E-03	5.080688E-04
3.878806E+03	5.200818E-03	5.199691E-04
3.888752E+03	5.320637E-03	5.316642E-04
3.898698E+03	5.437350E-03	5.430367E-04
3.908643E+03	5.550001E-03	5.539917E-04
3.918589E+03	5.656968E-03	5.643680E-04
3.928534E+03	5.756932E-03	5.740352E-04
3.938480E+03	5.848625E-03	5.828680E-04
3.948426E+03	5.930885E-03	5.907519E-04
3.958371E+03	6.003039E-03	5.976217E-04
3.968317E+03	6.063656E-03	6.033366E-04
3.978263E+03	6.112879E-03	6.079125E-04
3.988208E+03	6.150163E-03	6.112972E-04
3.998154E+03	6.175283E-03	6.134703E-04
4.008100E+03	6.189294E-03	6.145385E-04
4.018045E+03	6.192597E-03	6.145433E-04
4.027991E+03	6.185858E-03	6.135526E-04
4.037937E+03	6.170906E-03	6.117491E-04
4.047882E+03	6.148491E-03	6.092087E-04
4.057828E+03	6.120422E-03	6.061115E-04
4.067774E+03	6.088215E-03	6.026085E-04
4.077719E+03	6.053393E-03	5.988511E-04
4.087665E+03	6.017122E-03	5.949550E-04
4.097611E+03	5.981318E-03	5.911096E-04
4.107556E+03	5.946605E-03	5.873767E-04
4.117502E+03	5.914005E-03	5.838570E-04
4.127448E+03	5.884614E-03	5.806583E-04
4.137393E+03	5.859041E-03	5.778402E-04
4.147339E+03	5.837409E-03	5.754143E-04
4.157285E+03	5.820182E-03	5.734257E-04
4.167230E+03	5.807071E-03	5.718453E-04
4.177176E+03	5.797881E-03	5.706532E-04
4.187122E+03	5.792511E-03	5.698392E-04
4.197067E+03	5.790185E-03	5.693264E-04
4.207013E+03	5.790531E-03	5.690776E-04
4.216959E+03	5.792329E-03	5.689729E-04
4.226904E+03	5.795324E-03	5.689868E-04
4.236850E+03	5.798509E-03	5.690206E-04
4.246796E+03	5.801136E-03	5.690007E-04
4.256741E+03	5.802557E-03	5.688639E-04
4.266687E+03	5.802223E-03	5.685565E-04
4.276632E+03	5.799750E-03	5.680412E-04
4.286578E+03	5.794945E-03	5.672996E-04
4.296524E+03	5.787844E-03	5.663353E-04
4.306469E+03	5.778479E-03	5.651519E-04
4.316415E+03	5.767627E-03	5.638257E-04
4.326361E+03	5.756069E-03	5.624334E-04
4.336306E+03	5.744856E-03	5.610777E-04
4.346252E+03	5.735045E-03	5.598616E-04
4.356198E+03	5.728183E-03	5.589360E-04
4.366143E+03	5.726428E-03	5.585110E-04
4.376089E+03	5.730975E-03	5.587025E-04
4.386035E+03	5.744233E-03	5.597445E-04
4.395980E+03	5.768237E-03	5.618340E-04
4.405926E+03	5.804601E-03	5.651269E-04
4.415872E+03	5.855817E-03	5.698642E-04
4.425817E+03	5.923899E-03	5.762397E-04
4.435763E+03	6.010320E-03	5.843949E-04
4.445709E+03	6.117097E-03	5.945236E-04
4.455654E+03	6.246096E-03	6.068046E-04
4.465600E+03	6.398485E-03	6.213486E-04
4.475546E+03	6.575121E-03	6.382364E-04
4.485491E+03	6.777176E-03	6.575790E-04
4.495437E+03	7.004376E-03	6.793467E-04
4.505383E+03	7.256811E-03	7.035459E-04
4.515328E+03	7.532809E-03	7.300116E-04
4.525274E+03	7.830573E-03	7.585676E-04
4.535220E+03	8.147056E-03	7.889164E-04
4.545165E+03	8.477794E-03	8.206244E-04
4.555111E+03	8.818052E-03	8.532323E-04
4.565057E+03	9.160784E-03	8.860578E-04
4.575002E+03	9.498505E-03	9.183774E-04
4.584948E+03	9.823248E-03	9.494222E-04
4.594894E+03	1.012631E-02	9.783528E-04
4.604839E+03	1.039858E-02	1.004292E-03
4.614785E+03	1.063209E-02	1.026475E-03
4.624730E+03	1.081916E-02	1.044165E-03
4.634676E+03	1.095430E-02	1.056836E-03
4.644622E+03	1.103315E-02	1.064075E-03
4.654567E+03	1.105427E-02	1.065746E-03
4.664513E+03	1.101767E-02	1.061859E-03
4.674459E+03	1.092633E-02	1.052704E-03
4.684404E+03	1.078404E-02	1.038653E-03
4.694350E+03	1.059760E-02	1.020365E-03
4.704296E+03	1.037423E-02	9.985388E-04
4.714241E+03	1.012142E-02	9.738985E-04
4.724187E+03	9.847239E-03	9.472223E-04
4.734133E+03	9.559531E-03	9.192661E-04
4.744078E+03	9.265919E-03	8.907637E-04
4.754024E+03	8.972653E-03	8.623157E-04
4.763970E+03	8.685399E-03	8.344662E-04
4.773915E+03	8.408868E-03	8.076669E-04
4.783861E+03	8.147084E-03	7.823029E-04
4.793807E+03	7.902613E-03	7.586187E-04
4.803752E+03	7.677472E-03	7.368065E-04
4.813698E+03	7.472941E-03	7.169873E-04
4.823644E+03	7.289877E-03	6.992412E-04
4.833589E+03	7.128119E-03	6.835512E-04
4.843535E+03	6.987285E-03	6.698786E-04
4.853481E+03	6.866594E-03	6.581472E-04
4.863426E+03	6.765157E-03	6.482699E-04
4.873372E+03	6.681168E-03	6.400724E-04
4.883318E+03	6.613429E-03	6.334388E-04
4.893263E+03	6.559952E-03	6.281774E-04
4.903209E+03	6.519010E-03	6.241220E-04
4.913155E+03	6.488193E-03	6.210410E-04
4.923100E+03	6.465858E-03	6.187767E-04
4.933046E+03	6.449813E-03	6.171188E-04
4.942991E+03	6.438340E-03	6.159025E-04
4.952937E+03	6.429336E-03	6.149266E-04
4.962883E+03	6.421691E-03	6.140848E-04
4.972828E+03	6.414023E-03	6.132450E-04
4.982774E+03	6.405670E-03	6.123437E-04
4.992720E+03	6.395779E-03	6.112996E-04
5.002665E+03	6.384606E-03	6.101373E-04
5.012611E+03	6.372382E-03	6.088787E-04
5.022557E+03	6.359272E-03	6.075401E-04
5.032502E+03	6.346454E-03	6.062335E-04
5.042448E+03	6.334728E-03	6.050358E-04
5.052394E+03	6.325382E-03	6.040697E-04
5.062339E+03	6.319399E-03	6.034292E-04
5.072285E+03	6.317944E-03	6.032251E-04
5.082231E+03	6.322293E-03	6.035796E-04
5.092176E+03	6.333076E-03	6.045525E-04
5.102122E+03	6.351698E-03	6.062777E-04
5.112068E+03	6.378319E-03	6.087704E-04
5.122013E+03	6.414009E-03	6.121327E-04
5.131959E+03	6.458576E-03	6.163463E-04
5.141905E+03	6.512535E-03	6.214603E-04
5.151850E+03	6.575684E-03	6.274551E-04
5.161796E+03	6.647979E-03	6.343270E-04
5.171742E+03	6.728827E-03	6.420194E-04
5.181687E+03	6.817822E-03	6.504934E-04
5.191633E+03	6.913974E-03	6.596552E-04
5.201579E+03	7.016303E-03	6.694112E-04
5.211524E+03	7.123828E-03	6.796683E-04
5.221470E+03	7.235198E-03	6.902976E-04
5.231416E+03	7.348692E-03	7.011355E-04
5.241361E+03	7.462838E-03	7.120417E-04
5.251307E+03	7.575623E-03	7.228246E-04
5.261253E+03	7.685158E-03	7.333043E-04
5.271198E+03	7.789724E-03	7.433169E-04
5.281144E+03	7.887393E-03	7.526788E-04
5.291089E+03	7.976081E-03	7.611911E-04
5.301035E+03	8.054262E-03	7.687085E-04
5.310981E+03	8.120159E-03	7.750614E-04
5.320926E+03	8.172643E-03	7.801418E-04
5.330872E+03	8.210664E-03	7.838495E-04
5.340818E+03	8.233229E-03	7.860894E-04
5.350763E+03	8.239883E-03	7.868175E-04
5.360709E+03	8.230948E-03	7.860644E-04
5.370655E+03	8.206136E-03	7.838018E-04
5.380600E+03	8.165863E-03	7.800690E-04
5.390546E+03	8.111223E-03	7.749696E-04
5.400492E+03	8.042566E-03	7.685361E-04
5.410437E+03	7.960773E-03	7.608520E-04
5.420383E+03	7.867124E-03	7.520385E-04
5.430329E+03	7.761996E-03	7.421309E-04
5.440274E+03	7.646175E-03	7.312033E-04
5.450220E+03	7.520780E-03	7.193616E-04
5.460166E+03	7.386009E-03	7.066240E-04
5.470111E+03	7.242602E-03	6.930603E-04
5.480057E+03	7.091029E-03	6.787144E-04
5.490003E+03	6.931737E-03	6.636281E-04
5.499948E+03	6.765005E-03	6.478273E-04
5.509894E+03	6.591569E-03	6.313813E-04
5.519840E+03	6.412123E-03	6.143558E-04
5.529785E+03	6.227529E-03	5.968324E-04
5.539731E+03	6.038901E-03	5.789171E-04
5.549677E+03	5.847442E-03	5.607244E-04
5.559622E+03	5.655076E-03	5.424381E-04
5.569568E+03	5.463321E-03	5.242035E-04
5.579514E+03	5.274351E-03	5.062285E-04
5.589459E+03	5.090287E-03	4.887169E-04
5.599405E+03	4.913425E-03	4.718889E-04
5.609351E+03	4.745620E-03	4.559234E-04
5.619296E+03	4.589040E-03	4.410289E-04
5.629242E+03	4.445559E-03	4.273864E-04
5.639187E+03	4.316858E-03	4.151586E-04
5.649133E+03	4.204408E-03	4.044881E-04
5.659079E+03	4.109464E-03	3.954972E-04
5.669024E+03	4.033073E-03	3.882883E-04
5.678970E+03	3.976089E-03	3.829456E-04
5.688916E+03	3.939299E-03	3.795466E-04
5.698861E+03	3.923004E-03	3.781225E-04
5.708807E+03	3.927779E-03	3.787311E-04
5.718753E+03	3.953607E-03	3.813730E-04
5.728698E+03	4.000713E-03	3.860724E-04
5.738644E+03	4.068777E-03	3.928009E-04
5.748590E+03	4.157307E-03	4.015137E-04
5.758535E+03	4.265463E-03	4.121318E-04
5.768481E+03	4.392097E-03	4.245471E-04
5.778427E+03	4.535325E-03	4.385797E-04
5.788372E+03	4.692795E-03	4.540042E-04
5.798318E+03	4.861523E-03	4.705340E-04
5.808264E+03	5.037877E-03	4.878187E-04
5.818209E+03	5.217743E-03	5.054613E-04
5.828155E+03	5.396200E-03	5.229852E-04
5.838101E+03	5.568072E-03	5.398889E-04
5.848046E+03	5.728176E-03	5.556686E-04
5.857992E+03	5.871126E-03	5.698002E-04
5.867938E+03	5.992063E-03	5.818098E-04
5.877883E+03	6.087024E-03	5.913097E-04
5.887829E+03	6.152695E-03	5.979740E-04
5.897775E+03	6.187127E-03	6.016092E-04
5.907720E+03	6.189904E-03	6.021706E-04
5.917666E+03	6.161624E-03	5.997118E-04
5.927612E+03	6.104536E-03	5.944473E-04
5.937557E+03	6.021681E-03	5.866690E-04
5.947503E+03	5.917137E-03	5.767708E-04
5.957449E+03	5.795718E-03	5.652186E-04
5.967394E+03	5.662201E-03	5.524762E-04
5.977340E+03	5.521649E-03	5.390355E-04
5.987285E+03	5.378533E-03	5.253323E-04
5.997231E+03	5.237181E-03	5.117887E-04
6.007177E+03	5.101012E-03	4.987393E-04
6.017122E+03	4.973066E-03	4.864821E-04
6.027068E+03	4.855407E-03	4.752200E-04
6.037014E+03	4.749697E-03	4.651174E-04
6.046959E+03	4.656702E-03	4.562510E-04
6.056905E+03	4.576886E-03	4.486682E-04
6.066851E+03	4.509965E-03	4.423429E-04
6.076796E+03	4.455494E-03	4.372336E-04
6.086742E+03	4.412557E-03	4.332521E-04
6.096688E+03	4.379840E-03	4.302712E-04
6.106633E+03	4.355949E-03	4.281553E-04
6.116579E+03	4.339581E-03	4.267777E-04
6.126525E+03	4.328729E-03	4.259421E-04
6.136470E+03	4.322078E-03	4.255198E-04
6.146416E+03	4.317721E-03	4.253236E-04
6.156362E+03	4.314177E-03	4.252080E-04
6.166307E+03	4.309839E-03	4.250145E-04
6.176253E+03	4.303506E-03	4.246245E-04
6.186199E+03	4.294066E-03	4.239279E-04
6.196144E+03	4.280537E-03	4.228269E-04
6.206090E+03	4.262462E-03	4.212760E-04
6.216036E+03	4.239579E-03	4.192482E-04
6.225981E+03	4.211825E-03	4.167367E-04
6.235927E+03	4.179704E-03	4.137903E-04
6.245873E+03	4.143901E-03	4.104762E-04
6.255818E+03	4.105374E-03	4.068887E-04
6.265764E+03	4.065186E-03	4.031328E-04
6.275710E+03	4.024799E-03	3.993530E-04
6.285655E+03	3.985650E-03	3.956922E-04
6.295601E+03	3.949089E-03	3.922845E-04
6.305546E+03	3.916760E-03	3.892938E-04
6.315492E+03	3.889744E-03	3.868281E-04
6.325438E+03	3.869295E-03	3.850133E-04
6.335383E+03	3.856336E-03	3.839421E-04
6.345329E+03	3.851533E-03	3.836823E-04
6.355275E+03	3.855152E-03	3.842618E-04
6.365220E+03	3.867361E-03	3.856987E-04
6.375166E+03	3.887991E-03	3.879775E-04
6.385112E+03	3.916175E-03	3.910132E-04
6.395057E+03	3.951011E-03	3.947169E-04
6.405003E+03	3.991111E-03	3.989509E-04
6.414949E+03	4.034714E-03	4.035402E-04
6.424894E+03	4.079597E-03	4.082627E-04
6.434840E+03	4.123584E-03	4.129008E-04
6.444786E+03	4.163909E-03	4.171772E-04
6.454731E+03	4.197650E-03	4.207983E-04
6.464677E+03	4.222221E-03	4.235037E-04
6.474623E+03	4.234776E-03	4.250060E-04
6.484568E+03	4.232716E-03	4.250423E-04
6.494514E+03	4.214220E-03	4.234269E-04
6.504460E+03	4.177630E-03	4.199905E-04
6.514405E+03	4.121943E-03	4.146288E-04
6.524351E+03	4.047239E-03	4.073468E-04
6.534297E+03	3.953975E-03	3.981871E-04
6.544242E+03	3.843441E-03	3.872765E-04
6.554188E+03	3.717561E-03	3.748060E-04
6.564134E+03	3.578773E-03	3.610188E-04
6.574079E+03	3.429978E-03	3.462056E-04
6.584025E+03	3.273969E-03	3.306467E-04
6.593971E+03	3.113894E-03	3.146589E-04
6.603916E+03	2.952775E-03	2.985472E-04
6.613862E+03	2.793222E-03	2.825752E-04
6.623808E+03	2.637625E-03	2.669853E-04
6.633753E+03	2.488001E-03	2.519825E-04
6.643699E+03	2.346041E-03	2.377391E-04
6.653644E+03	2.212825E-03	2.243660E-04
6.663590E+03	2.089348E-03	2.119655E-04
6.673536E+03	1.976066E-03	2.005857E-04
6.683481E+03	1.873283E-03	1.902593E-04
6.693427E+03	1.780904E-03	1.809783E-04
6.703373E+03	1.698884E-03	1.727399E-04
6.713318E+03	1.626884E-03	1.655114E-04
6.723264E+03	1.564534E-03	1.592571E-04
6.733210E+03	1.511463E-03	1.539405E-04
6.743155E+03	1.467177E-03	1.495131E-04
6.753101E+03	1.431233E-03	1.459311E-04
6.763047E+03	1.403198E-03	1.431518E-04
6.772992E+03	1.382700E-03	1.411386E-04
6.782938E+03	1.369311E-03	1.398490E-04
6.792884E+03	1.362710E-03	1.392515E-04
6.802829E+03	1.362478E-03	1.393042E-04
6.812775E+03	1.368379E-03	1.399842E-04
6.822721E+03	1.380065E-03	1.412570E-04
6.832666E+03	1.397281E-03	1.430972E-04
6.842612E+03	1.419686E-03	1.454708E-04
6.852558E+03	1.446971E-03	1.483471E-04
6.862503E+03	1.478815E-03	1.516939E-04
6.872449E+03	1.514924E-03	1.554819E-04
6.882395E+03	1.554893E-03	1.596701E-04
6.892340E+03	1.598391E-03	1.642252E-04
6.902286E+03	1.644921E-03	1.690965E-04
6.912232E+03	1.694173E-03	1.742528E-04
6.922177E+03	1.745737E-03	1.796521E-04
6.932123E+03	1.799102E-03	1.852424E-04
6.942069E+03	1.853993E-03	1.909955E-04
6.952014E+03	1.910008E-03	1.968702E-04
6.961960E+03	1.966906E-03	2.028419E-04
6.971906E+03	2.024326E-03	2.088734E-04
6.981851E+03	2.082217E-03	2.149594E-04
6.991797E+03	2.140411E-03	2.210828E-04
7.001742E+03	2.198940E-03	2.272466E-04
7.011688E+03	2.257756E-03	2.334463E-04
7.021634E+03	2.316856E-03	2.396814E-04
7.031579E+03	2.376553E-03	2.459841E-04
7.041525E+03	2.436733E-03	2.523431E-04
7.051471E+03	2.497565E-03	2.587756E-04
7.061416E+03	2.559191E-03	2.652966E-04
7.071362E+03	2.621547E-03	2.718995E-04
7.081308E+03	2.684580E-03	2.785787E-04
7.091253E+03	2.748157E-03	2.853208E-04
7.101199E+03	2.812153E-03	2.921127E-04
7.111145E+03	2.876091E-03	2.989047E-04
7.121090E+03	2.939767E-03	3.056759E-04
7.131036E+03	3.002539E-03	3.123592E-04
7.140982E+03	3.064073E-03	3.189197E-04
7.150927E+03	3.123704E-03	3.252880E-04
7.160873E+03	3.180830E-03	3.314009E-04
7.170819E+03	3.234831E-03	3.371935E-04
7.180764E+03	3.285093E-03	3.426012E-04
7.190710E+03	3.331026E-03	3.475619E-04
7.200656E+03	3.372081E-03	3.520174E-04
7.210601E+03	3.407765E-03	3.559157E-04
7.220547E+03	3.437664E-03	3.592125E-04
7.230493E+03	3.461449E-03	3.618726E-04
7.240438E+03	3.478784E-03	3.638599E-04
7.250384E+03	3.489775E-03	3.651846E-04
7.260330E+03	3.494318E-03	3.658346E-04
7.270275E+03	3.492425E-03	3.658104E-04
7.280221E+03	3.484569E-03	3.651606E-04
7.290167E+03	3.470891E-03	3.638990E-04
7.300112E+03	3.451972E-03	3.620858E-04
7.310058E+03	3.428370E-03	3.597787E-04
7.320004E+03	3.400712E-03	3.570428E-04
7.329949E+03	3.369660E-03	3.539472E-04
7.339895E+03	3.335786E-03	3.505513E-04
7.349840E+03	3.299854E-03	3.469352E-04
7.359786E+03	3.262472E-03	3.431626E-04
7.369732E+03	3.224175E-03	3.392895E-04
7.379677E+03	3.185294E-03	3.353507E-04
7.389623E+03	3.146262E-03	3.313918E-04
7.399569E+03	3.107292E-03	3.274350E-04
7.409514E+03	3.068382E-03	3.234803E-04
7.419460E+03	3.029731E-03	3.195488E-04
7.429406E+03	2.990956E-03	3.156000E-04
7.439351E+03	2.952207E-03	3.116498E-04
7.449297E+03	2.913114E-03	3.076590E-04
7.459243E+03	2.873594E-03	3.036190E-04
7.469188E+03	2.833401E-03	2.995036E-04
7.479134E+03	2.792528E-03	2.953121E-04
7.489080E+03	2.750856E-03	2.910319E-04
7.499025E+03	2.708533E-03	2.866784E-04
7.508971E+03	2.665708E-03	2.822674E-04
7.518917E+03	2.622529E-03	2.778145E-04
7.528862E+03	2.579397E-03	2.733622E-04
7.538808E+03	2.536598E-03	2.689408E-04
7.548754E+03	2.494627E-03	2.646029E-04
7.558699E+03	2.453820E-03	2.603845E-04
7.568645E+03	2.414584E-03	2.563286E-04
7.578591E+03	2.377440E-03	2.524909E-04
7.588536E+03	2.342447E-03	2.488781E-04
7.598482E+03	2.309978E-03	2.455300E-04
7.608428E+03	2.280149E-03	2.424594E-04
7.618373E+03	2.252892E-03	2.396595E-04
7.628319E+03	2.228186E-03	2.371282E-04
7.638265E+03	2.205671E-03	2.348276E-04
7.648210E+03	2.185259E-03	2.327486E-04
7.658156E+03	2.166396E-03	2.308325E-04
7.668101E+03	2.148600E-03	2.290282E-04
7.678047E+03	2.131331E-03	2.272780E-04
7.687993E+03	2.114079E-03	2.255280E-04
7.697938E+03	2.096181E-03	2.237071E-04
7.707884E+03	2.077125E-03	2.217607E-04
7.717830E+03	2.056296E-03	2.196230E-04
