#wls	flux	fluxerr
1.581028E+03	2.807791E-17	3.073980E-18
1.620553E+03	2.917853E-17	3.182516E-18
1.660079E+03	3.023959E-17	3.285527E-18
1.699605E+03	3.124905E-17	3.381718E-18
1.739130E+03	3.219872E-17	3.470234E-18
1.778656E+03	3.305921E-17	3.547961E-18
1.818182E+03	3.378564E-17	3.610190E-18
1.857708E+03	3.432567E-17	3.651504E-18
1.897233E+03	3.461377E-17	3.665206E-18
1.936759E+03	3.459895E-17	3.646275E-18
1.976285E+03	3.426865E-17	3.593842E-18
2.015810E+03	3.368890E-17	3.515290E-18
2.055336E+03	3.307832E-17	3.433720E-18
2.094862E+03	3.278309E-17	3.384943E-18
2.134387E+03	3.321061E-17	3.410277E-18
2.173913E+03	3.466428E-17	3.539445E-18
2.213439E+03	3.724929E-17	3.781277E-18
2.252964E+03	4.087097E-17	4.124085E-18
2.292490E+03	4.530716E-17	4.543542E-18
2.332016E+03	5.031775E-17	5.014002E-18
2.371542E+03	5.571081E-17	5.515140E-18
2.411067E+03	6.137476E-17	6.034990E-18
2.450593E+03	6.725975E-17	6.567879E-18
2.490119E+03	7.335562E-17	7.112093E-18
2.529644E+03	7.967552E-17	7.668164E-18
2.569170E+03	8.624434E-17	8.237687E-18
2.608696E+03	9.309142E-17	8.822579E-18
2.648221E+03	1.002466E-16	9.424691E-18
2.687747E+03	1.077253E-16	1.004440E-17
2.727273E+03	1.155519E-16	1.068284E-17
2.766798E+03	1.237346E-16	1.133955E-17
2.806324E+03	1.322642E-16	1.201240E-17
2.845850E+03	1.411396E-16	1.270004E-17
2.885375E+03	1.503694E-16	1.340189E-17
2.924901E+03	1.600198E-16	1.412244E-17
2.964427E+03	1.701676E-16	1.486680E-17
2.974308E+03	1.727950E-16	1.505750E-17
2.984190E+03	1.754595E-16	1.525008E-17
2.994071E+03	1.781651E-16	1.544482E-17
3.003953E+03	1.809122E-16	1.564174E-17
3.013834E+03	1.837029E-16	1.584098E-17
3.023715E+03	1.865444E-16	1.604311E-17
3.033597E+03	1.894456E-16	1.624886E-17
3.043478E+03	1.923880E-16	1.645661E-17
3.053360E+03	1.954084E-16	1.666943E-17
3.063241E+03	1.984986E-16	1.688658E-17
3.073123E+03	2.016641E-16	1.710847E-17
3.083004E+03	2.048971E-16	1.733436E-17
3.092885E+03	2.082033E-16	1.756470E-17
3.102767E+03	2.115753E-16	1.779878E-17
3.112648E+03	2.150144E-16	1.803667E-17
3.122530E+03	2.185224E-16	1.827845E-17
3.132411E+03	2.220920E-16	1.852346E-17
3.142292E+03	2.257294E-16	1.877215E-17
3.152174E+03	2.294321E-16	1.902426E-17
3.162055E+03	2.331974E-16	1.927952E-17
3.171937E+03	2.370275E-16	1.953803E-17
3.181818E+03	2.409198E-16	1.979953E-17
3.191700E+03	2.448764E-16	2.006414E-17
3.201581E+03	2.488950E-16	2.033161E-17
3.211462E+03	2.529733E-16	2.060169E-17
3.221344E+03	2.571135E-16	2.087450E-17
3.231225E+03	2.613178E-16	2.115017E-17
3.241107E+03	2.655794E-16	2.142809E-17
3.250988E+03	2.698962E-16	2.170803E-17
3.260870E+03	2.742749E-16	2.199047E-17
3.270751E+03	2.787088E-16	2.227483E-17
3.280632E+03	2.832002E-16	2.256123E-17
3.290514E+03	2.877469E-16	2.284944E-17
3.300395E+03	2.923424E-16	2.313889E-17
3.310277E+03	2.969889E-16	2.342971E-17
3.320158E+03	3.016886E-16	2.372201E-17
3.330040E+03	3.064306E-16	2.401489E-17
3.339921E+03	3.112172E-16	2.430848E-17
3.349802E+03	3.160461E-16	2.460256E-17
3.359684E+03	3.209153E-16	2.489692E-17
3.369565E+03	3.258139E-16	2.519069E-17
3.379447E+03	3.307485E-16	2.548433E-17
3.389328E+03	3.357083E-16	2.577697E-17
3.399209E+03	3.406869E-16	2.606810E-17
3.409091E+03	3.456866E-16	2.635785E-17
3.418972E+03	3.506926E-16	2.664508E-17
3.428854E+03	3.557027E-16	2.692961E-17
3.438735E+03	3.607109E-16	2.721097E-17
3.448617E+03	3.657068E-16	2.748837E-17
3.458498E+03	3.706803E-16	2.776105E-17
3.468379E+03	3.756211E-16	2.802825E-17
3.478261E+03	3.805070E-16	2.828834E-17
3.488142E+03	3.853323E-16	2.854093E-17
3.498024E+03	3.900794E-16	2.878477E-17
3.507905E+03	3.947225E-16	2.901801E-17
3.517787E+03	3.992404E-16	2.923918E-17
3.527668E+03	4.036166E-16	2.944717E-17
3.537549E+03	4.078224E-16	2.964002E-17
3.547431E+03	4.118340E-16	2.981613E-17
3.557312E+03	4.156321E-16	2.997426E-17
3.567194E+03	4.191938E-16	3.011296E-17
3.577075E+03	4.225167E-16	3.023224E-17
3.586957E+03	4.255907E-16	3.033159E-17
3.596838E+03	4.284217E-16	3.041164E-17
3.606719E+03	4.310039E-16	3.047217E-17
3.616601E+03	4.333396E-16	3.051357E-17
3.626482E+03	4.354350E-16	3.053647E-17
3.636364E+03	4.372886E-16	3.054100E-17
3.646245E+03	4.389107E-16	3.052805E-17
3.656126E+03	4.402999E-16	3.049776E-17
3.666008E+03	4.414587E-16	3.045049E-17
3.675889E+03	4.423975E-16	3.038716E-17
3.685771E+03	4.431190E-16	3.030815E-17
3.695652E+03	4.436295E-16	3.021409E-17
3.705534E+03	4.439319E-16	3.010535E-17
3.715415E+03	4.440327E-16	2.998258E-17
3.725296E+03	4.439384E-16	2.984639E-17
3.735178E+03	4.436483E-16	2.969690E-17
3.745059E+03	4.431761E-16	2.953523E-17
3.754941E+03	4.425249E-16	2.936173E-17
3.764822E+03	4.416975E-16	2.917677E-17
3.774704E+03	4.407043E-16	2.898118E-17
3.784585E+03	4.395482E-16	2.877532E-17
3.794466E+03	4.382360E-16	2.855978E-17
3.804348E+03	4.367708E-16	2.833492E-17
3.814229E+03	4.351627E-16	2.810153E-17
3.824111E+03	4.334151E-16	2.785997E-17
3.833992E+03	4.315348E-16	2.761081E-17
3.843874E+03	4.295287E-16	2.735462E-17
3.853755E+03	4.274004E-16	2.709174E-17
3.863636E+03	4.251567E-16	2.682275E-17
3.873518E+03	4.228049E-16	2.654819E-17
3.883399E+03	4.203521E-16	2.626863E-17
3.893281E+03	4.177992E-16	2.598421E-17
3.903162E+03	4.151599E-16	2.569591E-17
3.913043E+03	4.124323E-16	2.540368E-17
3.922925E+03	4.096305E-16	2.510848E-17
3.932806E+03	4.067559E-16	2.481048E-17
3.942688E+03	4.038168E-16	2.451025E-17
3.952569E+03	4.008180E-16	2.420817E-17
3.962451E+03	3.977712E-16	2.390498E-17
3.972332E+03	3.946757E-16	2.360071E-17
3.982213E+03	3.915462E-16	2.329629E-17
3.992095E+03	3.883825E-16	2.299174E-17
4.001976E+03	3.851966E-16	2.268782E-17
4.011858E+03	3.819945E-16	2.238491E-17
4.021739E+03	3.787855E-16	2.208357E-17
4.031621E+03	3.755699E-16	2.178385E-17
4.041502E+03	3.723627E-16	2.148661E-17
4.051383E+03	3.691675E-16	2.119207E-17
4.061265E+03	3.659904E-16	2.090059E-17
4.071146E+03	3.628407E-16	2.061268E-17
4.081028E+03	3.597244E-16	2.032866E-17
4.090909E+03	3.566477E-16	2.004887E-17
4.100791E+03	3.536220E-16	1.977390E-17
4.110672E+03	3.506476E-16	1.950375E-17
4.120553E+03	3.477353E-16	1.923899E-17
4.130435E+03	3.448907E-16	1.897985E-17
4.140316E+03	3.421188E-16	1.872659E-17
4.150198E+03	3.394299E-16	1.847968E-17
4.160079E+03	3.368259E-16	1.823919E-17
4.169960E+03	3.343166E-16	1.800555E-17
4.179842E+03	3.319034E-16	1.777879E-17
4.189723E+03	3.295981E-16	1.755945E-17
4.199605E+03	3.274042E-16	1.734762E-17
4.209486E+03	3.253277E-16	1.714355E-17
4.219368E+03	3.233743E-16	1.694743E-17
4.229249E+03	3.215520E-16	1.675959E-17
4.239130E+03	3.198660E-16	1.658019E-17
4.249012E+03	3.183238E-16	1.640951E-17
4.258893E+03	3.169276E-16	1.624755E-17
4.268775E+03	3.156896E-16	1.609482E-17
4.278656E+03	3.146092E-16	1.595116E-17
4.288538E+03	3.136931E-16	1.581679E-17
4.298419E+03	3.129479E-16	1.569192E-17
4.308300E+03	3.123726E-16	1.557637E-17
4.318182E+03	3.119733E-16	1.547031E-17
4.328063E+03	3.117487E-16	1.537354E-17
4.337945E+03	3.116972E-16	1.528587E-17
4.347826E+03	3.118195E-16	1.520719E-17
4.357708E+03	3.121134E-16	1.513728E-17
4.367589E+03	3.125764E-16	1.507589E-17
4.377470E+03	3.132055E-16	1.502275E-17
4.387352E+03	3.139993E-16	1.497766E-17
4.397233E+03	3.149513E-16	1.494020E-17
4.407115E+03	3.160568E-16	1.491004E-17
4.416996E+03	3.173188E-16	1.488719E-17
4.426877E+03	3.187270E-16	1.487107E-17
4.436759E+03	3.202810E-16	1.486156E-17
4.446640E+03	3.219751E-16	1.485829E-17
4.456522E+03	3.238083E-16	1.486113E-17
4.466403E+03	3.257743E-16	1.486971E-17
4.476285E+03	3.278719E-16	1.488388E-17
4.486166E+03	3.300941E-16	1.490324E-17
4.496047E+03	3.324365E-16	1.492753E-17
4.505929E+03	3.348972E-16	1.495659E-17
4.515810E+03	3.374683E-16	1.499001E-17
4.525692E+03	3.401505E-16	1.502776E-17
4.535573E+03	3.429327E-16	1.506929E-17
4.545455E+03	3.458121E-16	1.511443E-17
4.555336E+03	3.487827E-16	1.516289E-17
4.565217E+03	3.518384E-16	1.521435E-17
4.575099E+03	3.549727E-16	1.526851E-17
4.584980E+03	3.581786E-16	1.532504E-17
4.594862E+03	3.614429E-16	1.538336E-17
4.604743E+03	3.647609E-16	1.544326E-17
4.614625E+03	3.681244E-16	1.550440E-17
4.624506E+03	3.715156E-16	1.556602E-17
4.634387E+03	3.749285E-16	1.562790E-17
4.644269E+03	3.783501E-16	1.568951E-17
4.654150E+03	3.817771E-16	1.575075E-17
4.664032E+03	3.852060E-16	1.581151E-17
4.673913E+03	3.886297E-16	1.587152E-17
4.683794E+03	3.920445E-16	1.593068E-17
4.693676E+03	3.954360E-16	1.598846E-17
4.703557E+03	3.988004E-16	1.604475E-17
4.713439E+03	4.021264E-16	1.609915E-17
4.723320E+03	4.054066E-16	1.615143E-17
4.733202E+03	4.086298E-16	1.620121E-17
4.743083E+03	4.117888E-16	1.624828E-17
4.752964E+03	4.148767E-16	1.629244E-17
4.762846E+03	4.178759E-16	1.633310E-17
4.772727E+03	4.207843E-16	1.637025E-17
4.782609E+03	4.235892E-16	1.640349E-17
4.792490E+03	4.262902E-16	1.643290E-17
4.802372E+03	4.288692E-16	1.645789E-17
4.812253E+03	4.313335E-16	1.647884E-17
4.822134E+03	4.336776E-16	1.649562E-17
4.832016E+03	4.358973E-16	1.650818E-17
4.841897E+03	4.379971E-16	1.651680E-17
4.851779E+03	4.399795E-16	1.652160E-17
4.861660E+03	4.418476E-16	1.652277E-17
4.871542E+03	4.436015E-16	1.652036E-17
4.881423E+03	4.452500E-16	1.651474E-17
4.891304E+03	4.467989E-16	1.650617E-17
4.901186E+03	4.482460E-16	1.649461E-17
4.911067E+03	4.496102E-16	1.648078E-17
4.920949E+03	4.508862E-16	1.646452E-17
4.930830E+03	4.520895E-16	1.644643E-17
4.940711E+03	4.532234E-16	1.642663E-17
4.950593E+03	4.542954E-16	1.640543E-17
4.960474E+03	4.553089E-16	1.638296E-17
4.970356E+03	4.562800E-16	1.635980E-17
4.980237E+03	4.572078E-16	1.633594E-17
4.990119E+03	4.580995E-16	1.631164E-17
5.000000E+03	4.589667E-16	1.628730E-17
5.009881E+03	4.598163E-16	1.626318E-17
5.019763E+03	4.606463E-16	1.623921E-17
5.029644E+03	4.614718E-16	1.621590E-17
5.039526E+03	4.622900E-16	1.619315E-17
5.049407E+03	4.631108E-16	1.617132E-17
5.059289E+03	4.639396E-16	1.615057E-17
5.069170E+03	4.647811E-16	1.613106E-17
5.079051E+03	4.656350E-16	1.611277E-17
5.088933E+03	4.665054E-16	1.609583E-17
5.098814E+03	4.673956E-16	1.608034E-17
5.108696E+03	4.683085E-16	1.606640E-17
5.118577E+03	4.692465E-16	1.605408E-17
5.128458E+03	4.702117E-16	1.604344E-17
5.138340E+03	4.712056E-16	1.603452E-17
5.148221E+03	4.722247E-16	1.602720E-17
5.158103E+03	4.732697E-16	1.602148E-17
5.167984E+03	4.743454E-16	1.601754E-17
5.177866E+03	4.754469E-16	1.601519E-17
5.187747E+03	4.765738E-16	1.601442E-17
5.197628E+03	4.777205E-16	1.601504E-17
5.207510E+03	4.788949E-16	1.601732E-17
5.217391E+03	4.800860E-16	1.602088E-17
5.227273E+03	4.812965E-16	1.602581E-17
5.237154E+03	4.825241E-16	1.603205E-17
5.247036E+03	4.837567E-16	1.603920E-17
5.256917E+03	4.850008E-16	1.604747E-17
5.266798E+03	4.862484E-16	1.605662E-17
5.276680E+03	4.874962E-16	1.606653E-17
5.286561E+03	4.887402E-16	1.607709E-17
5.296443E+03	4.899767E-16	1.608819E-17
5.306324E+03	4.911965E-16	1.609954E-17
5.316206E+03	4.923999E-16	1.611117E-17
5.326087E+03	4.935778E-16	1.612279E-17
5.335968E+03	4.947302E-16	1.613442E-17
5.345850E+03	4.958478E-16	1.614575E-17
5.355731E+03	4.969263E-16	1.615663E-17
5.365613E+03	4.979559E-16	1.616672E-17
5.375494E+03	4.989414E-16	1.617614E-17
5.385375E+03	4.998579E-16	1.618407E-17
5.395257E+03	5.007009E-16	1.619033E-17
5.405138E+03	5.014711E-16	1.619494E-17
5.415020E+03	5.021701E-16	1.619791E-17
5.424901E+03	5.027852E-16	1.619882E-17
5.434783E+03	5.033144E-16	1.619758E-17
5.444664E+03	5.037568E-16	1.619415E-17
5.454545E+03	5.041124E-16	1.618849E-17
5.464427E+03	5.043824E-16	1.618065E-17
5.474308E+03	5.045640E-16	1.617049E-17
5.484190E+03	5.046554E-16	1.615795E-17
5.494071E+03	5.046715E-16	1.614348E-17
5.503953E+03	5.046076E-16	1.612692E-17
5.513834E+03	5.044701E-16	1.610845E-17
5.523715E+03	5.042668E-16	1.608830E-17
5.533597E+03	5.040109E-16	1.606687E-17
5.543478E+03	5.037012E-16	1.604412E-17
5.553360E+03	5.033525E-16	1.602049E-17
5.563241E+03	5.029746E-16	1.599628E-17
5.573123E+03	5.025725E-16	1.597163E-17
5.583004E+03	5.021614E-16	1.594701E-17
5.592885E+03	5.017462E-16	1.592255E-17
5.602767E+03	5.013416E-16	1.589872E-17
5.612648E+03	5.009461E-16	1.587545E-17
5.622530E+03	5.005785E-16	1.585333E-17
5.632411E+03	5.002463E-16	1.583257E-17
5.642292E+03	4.999450E-16	1.581303E-17
5.652174E+03	4.996902E-16	1.579518E-17
5.662055E+03	4.994802E-16	1.577897E-17
5.671937E+03	4.993225E-16	1.576463E-17
5.681818E+03	4.992121E-16	1.575199E-17
5.691700E+03	4.991480E-16	1.574101E-17
5.701581E+03	4.991324E-16	1.573177E-17
5.711462E+03	4.991611E-16	1.572412E-17
5.721344E+03	4.992220E-16	1.571769E-17
5.731225E+03	4.993129E-16	1.571241E-17
5.741107E+03	4.994296E-16	1.570815E-17
5.750988E+03	4.995502E-16	1.570422E-17
5.760870E+03	4.996679E-16	1.570043E-17
5.770751E+03	4.997748E-16	1.569653E-17
5.780632E+03	4.998510E-16	1.569190E-17
5.790514E+03	4.998866E-16	1.568625E-17
5.800395E+03	4.998659E-16	1.567911E-17
5.810277E+03	4.997728E-16	1.566998E-17
5.820158E+03	4.995852E-16	1.565818E-17
5.830040E+03	4.992982E-16	1.564359E-17
5.839921E+03	4.988961E-16	1.562573E-17
5.849802E+03	4.983578E-16	1.560396E-17
5.859684E+03	4.976746E-16	1.557804E-17
5.869565E+03	4.968331E-16	1.554756E-17
5.879447E+03	4.958270E-16	1.551235E-17
5.889328E+03	4.946336E-16	1.547172E-17
5.899209E+03	4.932613E-16	1.542598E-17
5.909091E+03	4.916965E-16	1.537470E-17
5.918972E+03	4.899336E-16	1.531774E-17
5.928854E+03	4.879744E-16	1.525518E-17
5.938735E+03	4.858170E-16	1.518699E-17
5.948617E+03	4.834610E-16	1.511316E-17
5.958498E+03	4.809083E-16	1.503378E-17
5.968379E+03	4.781742E-16	1.494936E-17
5.978261E+03	4.752643E-16	1.486006E-17
5.988142E+03	4.721796E-16	1.476596E-17
5.998024E+03	4.689409E-16	1.466770E-17
6.007905E+03	4.655582E-16	1.456562E-17
6.017787E+03	4.620435E-16	1.446010E-17
6.027668E+03	4.584213E-16	1.435192E-17
6.037549E+03	4.546943E-16	1.424117E-17
6.047431E+03	4.508893E-16	1.412870E-17
6.057312E+03	4.470225E-16	1.401501E-17
6.067194E+03	4.431110E-16	1.390066E-17
6.077075E+03	4.391726E-16	1.378621E-17
6.086957E+03	4.352202E-16	1.367205E-17
6.096838E+03	4.312786E-16	1.355899E-17
6.106719E+03	4.273617E-16	1.344744E-17
6.116601E+03	4.235060E-16	1.333854E-17
6.126482E+03	4.197200E-16	1.323249E-17
6.136364E+03	4.160416E-16	1.313045E-17
6.146245E+03	4.124820E-16	1.303273E-17
6.156126E+03	4.090642E-16	1.294001E-17
6.166008E+03	4.058157E-16	1.285315E-17
6.175889E+03	4.027523E-16	1.277260E-17
6.185771E+03	3.998939E-16	1.269898E-17
6.195652E+03	3.972649E-16	1.263306E-17
6.205534E+03	3.948713E-16	1.257501E-17
6.215415E+03	3.927398E-16	1.252569E-17
6.225296E+03	3.908786E-16	1.248534E-17
6.235178E+03	3.893051E-16	1.245453E-17
6.245059E+03	3.880236E-16	1.243342E-17
6.254941E+03	3.870532E-16	1.242264E-17
6.264822E+03	3.864002E-16	1.242239E-17
6.274704E+03	3.860741E-16	1.243303E-17
6.284585E+03	3.860774E-16	1.245465E-17
6.294466E+03	3.864220E-16	1.248766E-17
6.304348E+03	3.871009E-16	1.253190E-17
6.314229E+03	3.881229E-16	1.258767E-17
6.324111E+03	3.894896E-16	1.265507E-17
6.333992E+03	3.911834E-16	1.273358E-17
6.343874E+03	3.932030E-16	1.282318E-17
6.353755E+03	3.955215E-16	1.292305E-17
6.363636E+03	3.981344E-16	1.303308E-17
6.373518E+03	4.010114E-16	1.315233E-17
6.383399E+03	4.041450E-16	1.328057E-17
6.393281E+03	4.075079E-16	1.341694E-17
6.403162E+03	4.110770E-16	1.356073E-17
6.413043E+03	4.148412E-16	1.371158E-17
6.422925E+03	4.187750E-16	1.386869E-17
6.432806E+03	4.228451E-16	1.403097E-17
6.442688E+03	4.270367E-16	1.419795E-17
6.452569E+03	4.313277E-16	1.436890E-17
6.462451E+03	4.356813E-16	1.454261E-17
6.472332E+03	4.400875E-16	1.471876E-17
6.482213E+03	4.445078E-16	1.489605E-17
6.492095E+03	4.489173E-16	1.507364E-17
6.501976E+03	4.532980E-16	1.525092E-17
6.511858E+03	4.576174E-16	1.542679E-17
6.521739E+03	4.618503E-16	1.560038E-17
6.531621E+03	4.659795E-16	1.577109E-17
6.541502E+03	4.699655E-16	1.593754E-17
6.551383E+03	4.738001E-16	1.609944E-17
6.561265E+03	4.774529E-16	1.625571E-17
6.571146E+03	4.808945E-16	1.640532E-17
6.581028E+03	4.841207E-16	1.654808E-17
6.590909E+03	4.870968E-16	1.668275E-17
6.600791E+03	4.898223E-16	1.680929E-17
6.610672E+03	4.922660E-16	1.692655E-17
6.620553E+03	4.944323E-16	1.703462E-17
6.630435E+03	4.963025E-16	1.713278E-17
6.640316E+03	4.978599E-16	1.722039E-17
6.650198E+03	4.991156E-16	1.729776E-17
6.660079E+03	5.000571E-16	1.736439E-17
6.669960E+03	5.006830E-16	1.742014E-17
6.679842E+03	5.009935E-16	1.746497E-17
6.689723E+03	5.009913E-16	1.749888E-17
6.699605E+03	5.006894E-16	1.752228E-17
6.709486E+03	5.000766E-16	1.753469E-17
6.719368E+03	4.991784E-16	1.753696E-17
6.729249E+03	4.979955E-16	1.752905E-17
6.739130E+03	4.965388E-16	1.751128E-17
6.749012E+03	4.948294E-16	1.748434E-17
6.758893E+03	4.928717E-16	1.744834E-17
6.768775E+03	4.906799E-16	1.740374E-17
6.778656E+03	4.882692E-16	1.735104E-17
6.788538E+03	4.856642E-16	1.729107E-17
6.798419E+03	4.828735E-16	1.722410E-17
6.808300E+03	4.799166E-16	1.715080E-17
6.818182E+03	4.768131E-16	1.707186E-17
6.828063E+03	4.735913E-16	1.698825E-17
6.837945E+03	4.702699E-16	1.690065E-17
6.847826E+03	4.668500E-16	1.680907E-17
6.857708E+03	4.633662E-16	1.671477E-17
6.867589E+03	4.598268E-16	1.661803E-17
6.877470E+03	4.562556E-16	1.651973E-17
6.887352E+03	4.526587E-16	1.642008E-17
6.897233E+03	4.490492E-16	1.631958E-17
6.907115E+03	4.454479E-16	1.621898E-17
6.916996E+03	4.418571E-16	1.611840E-17
6.926877E+03	4.382951E-16	1.601851E-17
6.936759E+03	4.347620E-16	1.591935E-17
6.946640E+03	4.312655E-16	1.582121E-17
6.956522E+03	4.278204E-16	1.572466E-17
6.966403E+03	4.244241E-16	1.562963E-17
6.976285E+03	4.210812E-16	1.553633E-17
6.986166E+03	4.178039E-16	1.544521E-17
6.996047E+03	4.145871E-16	1.535614E-17
7.005929E+03	4.114414E-16	1.526953E-17
7.015810E+03	4.083602E-16	1.518517E-17
7.025692E+03	4.053530E-16	1.510344E-17
7.035573E+03	4.024121E-16	1.502409E-17
7.045455E+03	3.995380E-16	1.494718E-17
7.055336E+03	3.967383E-16	1.487301E-17
7.065217E+03	3.940125E-16	1.480161E-17
7.075099E+03	3.913513E-16	1.473266E-17
7.084980E+03	3.887535E-16	1.466615E-17
7.094862E+03	3.862336E-16	1.460266E-17
7.104743E+03	3.837655E-16	1.454124E-17
7.114625E+03	3.813712E-16	1.448275E-17
7.124506E+03	3.790244E-16	1.442624E-17
7.134387E+03	3.767465E-16	1.437255E-17
7.144269E+03	3.745188E-16	1.432099E-17
7.154150E+03	3.723464E-16	1.427181E-17
7.164032E+03	3.702264E-16	1.422491E-17
7.173913E+03	3.681473E-16	1.417990E-17
7.183794E+03	3.661141E-16	1.413698E-17
7.193676E+03	3.641232E-16	1.409607E-17
7.203557E+03	3.621632E-16	1.405674E-17
7.213439E+03	3.602383E-16	1.401918E-17
7.223320E+03	3.583450E-16	1.398330E-17
7.233202E+03	3.564794E-16	1.394895E-17
7.243083E+03	3.546297E-16	1.391571E-17
7.252964E+03	3.528001E-16	1.388376E-17
7.262846E+03	3.509865E-16	1.385298E-17
7.272727E+03	3.491773E-16	1.382290E-17
7.282609E+03	3.473685E-16	1.379340E-17
7.292490E+03	3.455640E-16	1.376466E-17
7.302372E+03	3.437523E-16	1.373621E-17
7.312253E+03	3.419373E-16	1.370823E-17
7.322134E+03	3.401074E-16	1.368027E-17
7.332016E+03	3.382669E-16	1.365251E-17
7.341897E+03	3.364122E-16	1.362480E-17
7.351779E+03	3.345398E-16	1.359701E-17
7.361660E+03	3.326543E-16	1.356932E-17
7.371542E+03	3.307445E-16	1.354129E-17
7.381423E+03	3.288153E-16	1.351310E-17
7.391304E+03	3.268639E-16	1.348465E-17
7.401186E+03	3.248875E-16	1.345579E-17
7.411067E+03	3.228836E-16	1.342643E-17
7.420949E+03	3.208422E-16	1.339614E-17
7.430830E+03	3.187768E-16	1.336545E-17
7.440711E+03	3.166699E-16	1.333357E-17
7.450593E+03	3.145357E-16	1.330104E-17
7.460474E+03	3.123571E-16	1.326706E-17
7.470356E+03	3.101411E-16	1.323187E-17
7.480237E+03	3.078869E-16	1.319536E-17
7.490119E+03	3.055865E-16	1.315712E-17
7.500000E+03	3.032477E-16	1.311741E-17
7.509881E+03	3.008634E-16	1.307585E-17
7.519763E+03	2.984343E-16	1.303240E-17
7.529644E+03	2.959695E-16	1.298738E-17
7.539526E+03	2.934631E-16	1.294045E-17
7.549407E+03	2.909170E-16	1.289164E-17
7.559289E+03	2.883343E-16	1.284101E-17
7.569170E+03	2.857260E-16	1.278898E-17
7.579051E+03	2.830814E-16	1.273500E-17
7.588933E+03	2.804194E-16	1.267986E-17
7.598814E+03	2.777371E-16	1.262337E-17
7.608696E+03	2.750388E-16	1.256567E-17
7.618577E+03	2.723291E-16	1.250693E-17
7.628458E+03	2.696125E-16	1.244728E-17
7.638340E+03	2.668933E-16	1.238690E-17
7.648221E+03	2.641829E-16	1.232626E-17
7.658103E+03	2.614851E-16	1.226552E-17
7.667984E+03	2.587898E-16	1.220416E-17
