#wls	flux	fluxerr
1.581028E+03	3.330265E-17	2.865208E-18
1.620553E+03	3.464146E-17	2.966814E-18
1.660079E+03	3.593676E-17	3.063292E-18
1.699605E+03	3.718150E-17	3.154047E-18
1.739130E+03	3.835721E-17	3.237537E-18
1.778656E+03	3.943941E-17	3.311746E-18
1.818182E+03	4.036553E-17	3.371529E-18
1.857708E+03	4.107487E-17	3.412011E-18
1.897233E+03	4.149067E-17	3.427115E-18
1.936759E+03	4.154855E-17	3.411946E-18
1.976285E+03	4.122625E-17	3.365190E-18
2.015810E+03	4.061062E-17	3.294459E-18
2.055336E+03	3.995169E-17	3.220363E-18
2.094862E+03	3.967364E-17	3.176953E-18
2.134387E+03	4.025936E-17	3.202036E-18
2.173913E+03	4.207792E-17	3.323322E-18
2.213439E+03	4.523847E-17	3.547240E-18
2.252964E+03	4.960284E-17	3.860613E-18
2.292490E+03	5.489348E-17	4.239719E-18
2.332016E+03	6.081720E-17	4.660212E-18
2.371542E+03	6.715768E-17	5.104237E-18
2.411067E+03	7.378265E-17	5.560769E-18
2.450593E+03	8.063253E-17	6.024518E-18
2.490119E+03	8.769698E-17	6.493973E-18
2.529644E+03	9.498999E-17	6.969409E-18
2.569170E+03	1.025483E-16	7.452695E-18
2.608696E+03	1.104057E-16	7.945364E-18
2.648221E+03	1.185919E-16	8.448528E-18
2.687747E+03	1.271385E-16	8.963319E-18
2.727273E+03	1.360597E-16	9.489523E-18
2.766798E+03	1.453602E-16	1.002619E-17
2.806324E+03	1.550302E-16	1.057135E-17
2.845850E+03	1.650499E-16	1.112234E-17
2.885375E+03	1.754382E-16	1.167910E-17
2.924901E+03	1.862489E-16	1.224377E-17
2.964427E+03	1.975704E-16	1.282056E-17
2.974308E+03	2.004900E-16	1.296704E-17
2.984190E+03	2.034537E-16	1.311492E-17
2.994071E+03	2.064512E-16	1.326350E-17
3.003953E+03	2.094974E-16	1.341369E-17
3.013834E+03	2.125903E-16	1.356534E-17
3.023715E+03	2.157329E-16	1.371859E-17
3.033597E+03	2.189352E-16	1.387404E-17
3.043478E+03	2.221860E-16	1.403092E-17
3.053360E+03	2.255126E-16	1.419093E-17
3.063241E+03	2.289204E-16	1.435433E-17
3.073123E+03	2.324007E-16	1.452052E-17
3.083004E+03	2.359544E-16	1.468950E-17
3.092885E+03	2.395829E-16	1.486129E-17
3.102767E+03	2.432827E-16	1.503562E-17
3.112648E+03	2.470455E-16	1.521192E-17
3.122530E+03	2.508828E-16	1.539083E-17
3.132411E+03	2.547817E-16	1.557152E-17
3.142292E+03	2.587490E-16	1.575434E-17
3.152174E+03	2.627818E-16	1.593906E-17
3.162055E+03	2.668774E-16	1.612546E-17
3.171937E+03	2.710329E-16	1.631331E-17
3.181818E+03	2.752557E-16	1.650300E-17
3.191700E+03	2.795381E-16	1.669402E-17
3.201581E+03	2.838778E-16	1.688617E-17
3.211462E+03	2.882772E-16	1.707954E-17
3.221344E+03	2.927387E-16	1.727423E-17
3.231225E+03	2.972552E-16	1.746976E-17
3.241107E+03	3.018292E-16	1.766623E-17
3.250988E+03	3.064585E-16	1.786345E-17
3.260870E+03	3.111456E-16	1.806153E-17
3.270751E+03	3.158837E-16	1.826001E-17
3.280632E+03	3.206704E-16	1.845871E-17
3.290514E+03	3.255134E-16	1.865802E-17
3.300395E+03	3.304009E-16	1.885722E-17
3.310277E+03	3.353356E-16	1.905642E-17
3.320158E+03	3.403203E-16	1.925573E-17
3.330040E+03	3.453432E-16	1.945444E-17
3.339921E+03	3.504120E-16	1.965294E-17
3.349802E+03	3.555151E-16	1.985054E-17
3.359684E+03	3.606505E-16	2.004710E-17
3.369565E+03	3.658210E-16	2.024273E-17
3.379447E+03	3.710199E-16	2.043702E-17
3.389328E+03	3.762453E-16	2.062985E-17
3.399209E+03	3.814860E-16	2.082057E-17
3.409091E+03	3.867447E-16	2.100930E-17
3.418972E+03	3.920149E-16	2.119568E-17
3.428854E+03	3.972857E-16	2.137909E-17
3.438735E+03	4.025553E-16	2.155944E-17
3.448617E+03	4.078128E-16	2.173614E-17
3.458498E+03	4.130521E-16	2.190886E-17
3.468379E+03	4.182672E-16	2.207728E-17
3.478261E+03	4.234428E-16	2.224063E-17
3.488142E+03	4.285646E-16	2.239818E-17
3.498024E+03	4.336129E-16	2.254893E-17
3.507905E+03	4.385649E-16	2.269176E-17
3.517787E+03	4.433976E-16	2.282557E-17
3.527668E+03	4.480885E-16	2.294927E-17
3.537549E+03	4.526117E-16	2.306166E-17
3.547431E+03	4.569403E-16	2.316152E-17
3.557312E+03	4.610589E-16	2.324821E-17
3.567194E+03	4.649375E-16	2.332039E-17
3.577075E+03	4.685612E-16	2.337751E-17
3.586957E+03	4.719312E-16	2.341984E-17
3.596838E+03	4.750418E-16	2.344729E-17
3.606719E+03	4.778951E-16	2.346019E-17
3.616601E+03	4.804935E-16	2.345884E-17
3.626482E+03	4.828443E-16	2.344382E-17
3.636364E+03	4.849495E-16	2.341544E-17
3.646245E+03	4.868085E-16	2.337385E-17
3.656126E+03	4.884357E-16	2.331997E-17
3.666008E+03	4.898260E-16	2.325373E-17
3.675889E+03	4.909910E-16	2.317588E-17
3.685771E+03	4.919332E-16	2.308674E-17
3.695652E+03	4.926598E-16	2.298683E-17
3.705534E+03	4.931743E-16	2.287649E-17
3.715415E+03	4.934794E-16	2.275604E-17
3.725296E+03	4.935867E-16	2.262618E-17
3.735178E+03	4.935000E-16	2.248726E-17
3.745059E+03	4.932255E-16	2.233973E-17
3.754941E+03	4.927640E-16	2.218380E-17
3.764822E+03	4.921299E-16	2.202027E-17
3.774704E+03	4.913235E-16	2.184931E-17
3.784585E+03	4.903559E-16	2.167157E-17
3.794466E+03	4.892272E-16	2.148719E-17
3.804348E+03	4.879525E-16	2.129698E-17
3.814229E+03	4.865288E-16	2.110095E-17
3.824111E+03	4.849708E-16	2.089986E-17
3.833992E+03	4.832835E-16	2.069405E-17
3.843874E+03	4.814701E-16	2.048378E-17
3.853755E+03	4.795396E-16	2.026955E-17
3.863636E+03	4.775001E-16	2.005181E-17
3.873518E+03	4.753594E-16	1.983098E-17
3.883399E+03	4.731224E-16	1.960738E-17
3.893281E+03	4.707943E-16	1.938130E-17
3.903162E+03	4.683868E-16	1.915332E-17
3.913043E+03	4.659083E-16	1.892386E-17
3.922925E+03	4.633576E-16	1.869293E-17
3.932806E+03	4.607503E-16	1.846125E-17
3.942688E+03	4.580916E-16	1.822908E-17
3.952569E+03	4.553909E-16	1.799684E-17
3.962451E+03	4.526496E-16	1.776465E-17
3.972332E+03	4.498775E-16	1.753292E-17
3.982213E+03	4.470869E-16	1.730218E-17
3.992095E+03	4.442803E-16	1.707255E-17
4.001976E+03	4.414670E-16	1.684442E-17
4.011858E+03	4.386528E-16	1.661801E-17
4.021739E+03	4.358471E-16	1.639371E-17
4.031621E+03	4.330558E-16	1.617174E-17
4.041502E+03	4.302882E-16	1.595243E-17
4.051383E+03	4.275501E-16	1.573602E-17
4.061265E+03	4.248476E-16	1.552270E-17
4.071146E+03	4.221897E-16	1.531278E-17
4.081028E+03	4.195853E-16	1.510658E-17
4.090909E+03	4.170370E-16	1.490414E-17
4.100791E+03	4.145567E-16	1.470586E-17
4.110672E+03	4.121466E-16	1.451179E-17
4.120553E+03	4.098154E-16	1.432217E-17
4.130435E+03	4.075713E-16	1.413725E-17
4.140316E+03	4.054193E-16	1.395715E-17
4.150198E+03	4.033643E-16	1.378198E-17
4.160079E+03	4.014142E-16	1.361194E-17
4.169960E+03	3.995734E-16	1.344712E-17
4.179842E+03	3.978495E-16	1.328770E-17
4.189723E+03	3.962495E-16	1.313385E-17
4.199605E+03	3.947773E-16	1.298561E-17
4.209486E+03	3.934339E-16	1.284293E-17
4.219368E+03	3.922317E-16	1.270614E-17
4.229249E+03	3.911711E-16	1.257517E-17
4.239130E+03	3.902583E-16	1.245013E-17
4.249012E+03	3.894931E-16	1.233092E-17
4.258893E+03	3.888843E-16	1.221773E-17
4.268775E+03	3.884344E-16	1.211056E-17
4.278656E+03	3.881457E-16	1.200937E-17
4.288538E+03	3.880231E-16	1.191424E-17
4.298419E+03	3.880684E-16	1.182512E-17
4.308300E+03	3.882924E-16	1.174226E-17
4.318182E+03	3.886932E-16	1.166549E-17
4.328063E+03	3.892750E-16	1.159485E-17
4.337945E+03	3.900414E-16	1.153037E-17
4.347826E+03	3.909899E-16	1.147187E-17
4.357708E+03	3.921236E-16	1.141936E-17
4.367589E+03	3.934422E-16	1.137275E-17
4.377470E+03	3.949407E-16	1.133180E-17
4.387352E+03	3.966215E-16	1.129649E-17
4.397233E+03	3.984767E-16	1.126649E-17
4.407115E+03	4.005015E-16	1.124156E-17
4.416996E+03	4.026873E-16	1.122137E-17
4.426877E+03	4.050349E-16	1.120587E-17
4.436759E+03	4.075388E-16	1.119481E-17
4.446640E+03	4.101861E-16	1.118777E-17
4.456522E+03	4.129773E-16	1.118470E-17
4.466403E+03	4.159030E-16	1.118527E-17
4.476285E+03	4.189563E-16	1.118925E-17
4.486166E+03	4.221345E-16	1.119652E-17
4.496047E+03	4.254308E-16	1.120684E-17
4.505929E+03	4.288352E-16	1.121992E-17
4.515810E+03	4.323409E-16	1.123554E-17
4.525692E+03	4.359446E-16	1.125359E-17
4.535573E+03	4.396396E-16	1.127388E-17
4.545455E+03	4.434116E-16	1.129601E-17
4.555336E+03	4.472608E-16	1.131999E-17
4.565217E+03	4.511801E-16	1.134562E-17
4.575099E+03	4.551545E-16	1.137253E-17
4.584980E+03	4.591802E-16	1.140062E-17
4.594862E+03	4.632494E-16	1.142971E-17
4.604743E+03	4.673499E-16	1.145952E-17
4.614625E+03	4.714813E-16	1.149004E-17
4.624506E+03	4.756309E-16	1.152100E-17
4.634387E+03	4.797936E-16	1.155230E-17
4.644269E+03	4.839602E-16	1.158374E-17
4.654150E+03	4.881250E-16	1.161523E-17
4.664032E+03	4.922737E-16	1.164647E-17
4.673913E+03	4.964043E-16	1.167745E-17
4.683794E+03	5.005014E-16	1.170785E-17
4.693676E+03	5.045671E-16	1.173778E-17
4.703557E+03	5.085810E-16	1.176683E-17
4.713439E+03	5.125357E-16	1.179486E-17
4.723320E+03	5.164282E-16	1.182189E-17
4.733202E+03	5.202421E-16	1.184760E-17
4.743083E+03	5.239746E-16	1.187199E-17
4.752964E+03	5.276046E-16	1.189466E-17
4.762846E+03	5.311298E-16	1.191563E-17
4.772727E+03	5.345394E-16	1.193474E-17
4.782609E+03	5.378181E-16	1.195172E-17
4.792490E+03	5.409614E-16	1.196655E-17
4.802372E+03	5.439658E-16	1.197925E-17
4.812253E+03	5.468183E-16	1.198959E-17
4.822134E+03	5.495246E-16	1.199780E-17
4.832016E+03	5.520918E-16	1.200409E-17
4.841897E+03	5.545137E-16	1.200841E-17
4.851779E+03	5.568002E-16	1.201100E-17
4.861660E+03	5.589576E-16	1.201200E-17
4.871542E+03	5.609928E-16	1.201158E-17
4.881423E+03	5.629131E-16	1.200988E-17
4.891304E+03	5.647214E-16	1.200698E-17
4.901186E+03	5.664313E-16	1.200316E-17
4.911067E+03	5.680459E-16	1.199848E-17
4.920949E+03	5.695739E-16	1.199312E-17
4.930830E+03	5.710238E-16	1.198724E-17
4.940711E+03	5.724040E-16	1.198102E-17
4.950593E+03	5.737229E-16	1.197461E-17
4.960474E+03	5.749883E-16	1.196815E-17
4.970356E+03	5.762026E-16	1.196169E-17
4.980237E+03	5.773728E-16	1.195535E-17
4.990119E+03	5.785057E-16	1.194925E-17
5.000000E+03	5.796074E-16	1.194350E-17
5.009881E+03	5.806836E-16	1.193820E-17
5.019763E+03	5.817393E-16	1.193343E-17
5.029644E+03	5.827679E-16	1.192904E-17
5.039526E+03	5.837842E-16	1.192532E-17
5.049407E+03	5.847915E-16	1.192232E-17
5.059289E+03	5.857812E-16	1.191985E-17
5.069170E+03	5.867555E-16	1.191793E-17
5.079051E+03	5.877212E-16	1.191669E-17
5.088933E+03	5.886796E-16	1.191615E-17
5.098814E+03	5.896196E-16	1.191608E-17
5.108696E+03	5.905472E-16	1.191657E-17
5.118577E+03	5.914675E-16	1.191774E-17
5.128458E+03	5.923689E-16	1.191934E-17
5.138340E+03	5.932502E-16	1.192134E-17
5.148221E+03	5.941105E-16	1.192372E-17
5.158103E+03	5.949545E-16	1.192657E-17
5.167984E+03	5.957750E-16	1.192976E-17
5.177866E+03	5.965711E-16	1.193325E-17
5.187747E+03	5.973357E-16	1.193692E-17
5.197628E+03	5.980734E-16	1.194086E-17
5.207510E+03	5.987835E-16	1.194506E-17
5.217391E+03	5.994594E-16	1.194940E-17
5.227273E+03	6.001063E-16	1.195398E-17
5.237154E+03	6.007180E-16	1.195870E-17
5.247036E+03	6.012945E-16	1.196356E-17
5.256917E+03	6.018415E-16	1.196869E-17
5.266798E+03	6.023533E-16	1.197398E-17
5.276680E+03	6.028303E-16	1.197946E-17
5.286561E+03	6.032726E-16	1.198514E-17
5.296443E+03	6.036807E-16	1.199105E-17
5.306324E+03	6.040548E-16	1.199719E-17
5.316206E+03	6.043947E-16	1.200359E-17
5.326087E+03	6.047006E-16	1.201026E-17
5.335968E+03	6.049658E-16	1.201706E-17
5.345850E+03	6.051919E-16	1.202397E-17
5.355731E+03	6.053866E-16	1.203109E-17
5.365613E+03	6.055405E-16	1.203817E-17
5.375494E+03	6.056492E-16	1.204508E-17
5.385375E+03	6.057023E-16	1.205155E-17
5.395257E+03	6.057018E-16	1.205757E-17
5.405138E+03	6.056318E-16	1.206277E-17
5.415020E+03	6.055016E-16	1.206727E-17
5.424901E+03	6.052905E-16	1.207062E-17
5.434783E+03	6.050033E-16	1.207285E-17
5.444664E+03	6.046396E-16	1.207391E-17
5.454545E+03	6.041941E-16	1.207364E-17
5.464427E+03	6.036687E-16	1.207203E-17
5.474308E+03	6.030600E-16	1.206897E-17
5.484190E+03	6.023725E-16	1.206449E-17
5.494071E+03	6.016112E-16	1.205867E-17
5.503953E+03	6.007826E-16	1.205158E-17
5.513834E+03	5.998876E-16	1.204320E-17
5.523715E+03	5.989342E-16	1.203366E-17
5.533597E+03	5.979311E-16	1.202309E-17
5.543478E+03	5.968876E-16	1.201166E-17
5.553360E+03	5.958071E-16	1.199939E-17
5.563241E+03	5.946992E-16	1.198645E-17
5.573123E+03	5.935798E-16	1.197314E-17
5.583004E+03	5.924523E-16	1.195951E-17
5.592885E+03	5.913196E-16	1.194558E-17
5.602767E+03	5.902027E-16	1.193177E-17
5.612648E+03	5.891095E-16	1.191822E-17
5.622530E+03	5.880345E-16	1.190481E-17
5.632411E+03	5.869900E-16	1.189177E-17
5.642292E+03	5.859870E-16	1.187931E-17
5.652174E+03	5.850229E-16	1.186738E-17
5.662055E+03	5.841000E-16	1.185602E-17
5.671937E+03	5.832253E-16	1.184537E-17
5.681818E+03	5.823922E-16	1.183529E-17
5.691700E+03	5.816109E-16	1.182598E-17
5.701581E+03	5.808658E-16	1.181714E-17
5.711462E+03	5.801578E-16	1.180879E-17
5.721344E+03	5.794809E-16	1.180081E-17
5.731225E+03	5.788336E-16	1.179318E-17
5.741107E+03	5.782007E-16	1.178559E-17
5.750988E+03	5.775784E-16	1.177798E-17
5.760870E+03	5.769556E-16	1.177013E-17
5.770751E+03	5.763141E-16	1.176169E-17
5.780632E+03	5.756538E-16	1.175267E-17
5.790514E+03	5.749549E-16	1.174267E-17
5.800395E+03	5.742103E-16	1.173159E-17
5.810277E+03	5.733996E-16	1.171900E-17
5.820158E+03	5.725152E-16	1.170479E-17
5.830040E+03	5.715433E-16	1.168869E-17
5.839921E+03	5.704705E-16	1.167045E-17
5.849802E+03	5.692905E-16	1.164996E-17
5.859684E+03	5.679779E-16	1.162674E-17
5.869565E+03	5.665346E-16	1.160084E-17
5.879447E+03	5.649505E-16	1.157209E-17
5.889328E+03	5.632165E-16	1.154034E-17
5.899209E+03	5.613184E-16	1.150531E-17
5.909091E+03	5.592566E-16	1.146705E-17
5.918972E+03	5.570332E-16	1.142563E-17
5.928854E+03	5.546321E-16	1.138075E-17
5.938735E+03	5.520651E-16	1.133269E-17
5.948617E+03	5.493260E-16	1.128135E-17
5.958498E+03	5.464237E-16	1.122693E-17
5.968379E+03	5.433489E-16	1.116929E-17
5.978261E+03	5.401201E-16	1.110883E-17
5.988142E+03	5.367448E-16	1.104573E-17
5.998024E+03	5.332250E-16	1.098007E-17
6.007905E+03	5.295708E-16	1.091207E-17
6.017787E+03	5.258006E-16	1.084215E-17
6.027668E+03	5.219207E-16	1.077045E-17
6.037549E+03	5.179518E-16	1.069744E-17
6.047431E+03	5.139027E-16	1.062331E-17
6.057312E+03	5.097963E-16	1.054856E-17
6.067194E+03	5.056565E-16	1.047371E-17
6.077075E+03	5.014950E-16	1.039901E-17
6.086957E+03	4.973377E-16	1.032504E-17
6.096838E+03	4.932172E-16	1.025247E-17
6.106719E+03	4.891542E-16	1.018177E-17
6.116601E+03	4.851753E-16	1.011347E-17
6.126482E+03	4.812947E-16	1.004781E-17
6.136364E+03	4.775346E-16	9.985221E-18
6.146245E+03	4.739138E-16	9.926064E-18
6.156126E+03	4.704574E-16	9.870834E-18
6.166008E+03	4.671962E-16	9.820150E-18
6.175889E+03	4.641474E-16	9.774354E-18
6.185771E+03	4.613331E-16	9.733895E-18
6.195652E+03	4.587800E-16	9.699331E-18
6.205534E+03	4.565130E-16	9.671181E-18
6.215415E+03	4.545484E-16	9.649795E-18
6.225296E+03	4.529002E-16	9.635478E-18
6.235178E+03	4.515991E-16	9.628897E-18
6.245059E+03	4.506416E-16	9.629997E-18
6.254941E+03	4.500603E-16	9.639495E-18
6.264822E+03	4.498532E-16	9.657381E-18
6.274704E+03	4.500292E-16	9.683874E-18
6.284585E+03	4.506079E-16	9.719437E-18
6.294466E+03	4.515875E-16	9.764073E-18
6.304348E+03	4.529711E-16	9.817889E-18
6.314229E+03	4.547597E-16	9.880955E-18
6.324111E+03	4.569597E-16	9.953461E-18
6.333992E+03	4.595555E-16	1.003512E-17
6.343874E+03	4.625226E-16	1.012544E-17
6.353755E+03	4.658413E-16	1.022404E-17
6.363636E+03	4.694897E-16	1.033049E-17
6.373518E+03	4.734441E-16	1.044431E-17
6.383399E+03	4.776712E-16	1.056480E-17
6.393281E+03	4.821430E-16	1.069139E-17
6.403162E+03	4.868295E-16	1.082344E-17
6.413043E+03	4.917061E-16	1.096043E-17
6.422925E+03	4.967397E-16	1.110165E-17
6.432806E+03	5.018947E-16	1.124633E-17
6.442688E+03	5.071506E-16	1.139401E-17
6.452569E+03	5.124617E-16	1.154369E-17
6.462451E+03	5.178052E-16	1.169486E-17
6.472332E+03	5.231416E-16	1.184662E-17
6.482213E+03	5.284474E-16	1.199845E-17
6.492095E+03	5.336823E-16	1.214941E-17
6.501976E+03	5.388145E-16	1.229877E-17
6.511858E+03	5.438123E-16	1.244580E-17
6.521739E+03	5.486538E-16	1.258995E-17
6.531621E+03	5.532913E-16	1.273012E-17
6.541502E+03	5.577139E-16	1.286601E-17
6.551383E+03	5.618857E-16	1.299676E-17
6.561265E+03	5.657808E-16	1.312175E-17
6.571146E+03	5.693854E-16	1.324059E-17
6.581028E+03	5.726592E-16	1.335230E-17
6.590909E+03	5.756031E-16	1.345685E-17
6.600791E+03	5.781924E-16	1.355360E-17
6.610672E+03	5.804150E-16	1.364216E-17
6.620553E+03	5.822717E-16	1.372246E-17
6.630435E+03	5.837461E-16	1.379404E-17
6.640316E+03	5.848344E-16	1.385672E-17
6.650198E+03	5.855355E-16	1.391037E-17
6.660079E+03	5.858613E-16	1.395519E-17
6.669960E+03	5.858057E-16	1.399095E-17
6.679842E+03	5.853751E-16	1.401772E-17
6.689723E+03	5.845884E-16	1.403587E-17
6.699605E+03	5.834460E-16	1.404532E-17
6.709486E+03	5.819601E-16	1.404630E-17
6.719368E+03	5.801549E-16	1.403932E-17
6.729249E+03	5.780245E-16	1.402417E-17
6.739130E+03	5.756059E-16	1.400167E-17
6.749012E+03	5.729157E-16	1.397219E-17
6.758893E+03	5.699509E-16	1.393558E-17
6.768775E+03	5.667497E-16	1.389273E-17
6.778656E+03	5.633198E-16	1.384379E-17
6.788538E+03	5.596791E-16	1.378916E-17
6.798419E+03	5.558473E-16	1.372929E-17
6.808300E+03	5.518471E-16	1.366470E-17
6.818182E+03	5.477104E-16	1.359617E-17
6.828063E+03	5.434382E-16	1.352370E-17
6.837945E+03	5.390708E-16	1.344827E-17
6.847826E+03	5.346073E-16	1.336986E-17
6.857708E+03	5.300859E-16	1.328942E-17
6.867589E+03	5.255035E-16	1.320686E-17
6.877470E+03	5.208957E-16	1.312308E-17
6.887352E+03	5.162571E-16	1.303795E-17
6.897233E+03	5.116112E-16	1.295209E-17
6.907115E+03	5.069699E-16	1.286579E-17
6.916996E+03	5.023346E-16	1.277911E-17
6.926877E+03	4.977347E-16	1.269282E-17
6.936759E+03	4.931597E-16	1.260666E-17
6.946640E+03	4.886175E-16	1.252087E-17
6.956522E+03	4.841248E-16	1.243589E-17
6.966403E+03	4.796874E-16	1.235190E-17
6.976285E+03	4.753014E-16	1.226882E-17
6.986166E+03	4.709712E-16	1.218679E-17
6.996047E+03	4.667100E-16	1.210619E-17
7.005929E+03	4.625118E-16	1.202688E-17
7.015810E+03	4.583790E-16	1.194897E-17
7.025692E+03	4.543139E-16	1.187254E-17
7.035573E+03	4.503273E-16	1.179790E-17
7.045455E+03	4.464021E-16	1.172464E-17
7.055336E+03	4.425573E-16	1.165330E-17
7.065217E+03	4.387753E-16	1.158343E-17
7.075099E+03	4.350653E-16	1.151532E-17
7.084980E+03	4.314272E-16	1.144900E-17
7.094862E+03	4.278607E-16	1.138448E-17
7.104743E+03	4.243563E-16	1.132156E-17
7.114625E+03	4.209220E-16	1.126047E-17
7.124506E+03	4.175572E-16	1.120124E-17
7.134387E+03	4.142517E-16	1.114362E-17
7.144269E+03	4.110044E-16	1.108761E-17
7.154150E+03	4.078229E-16	1.103346E-17
7.164032E+03	4.046968E-16	1.098091E-17
7.173913E+03	4.016247E-16	1.092995E-17
7.183794E+03	3.986138E-16	1.088081E-17
7.193676E+03	3.956535E-16	1.083324E-17
7.203557E+03	3.927421E-16	1.078721E-17
7.213439E+03	3.898951E-16	1.074318E-17
7.223320E+03	3.870844E-16	1.070042E-17
7.233202E+03	3.843341E-16	1.065960E-17
7.243083E+03	3.816247E-16	1.062022E-17
7.252964E+03	3.789710E-16	1.058273E-17
7.262846E+03	3.763625E-16	1.054685E-17
7.272727E+03	3.738048E-16	1.051277E-17
7.282609E+03	3.713043E-16	1.048071E-17
7.292490E+03	3.688495E-16	1.045036E-17
7.302372E+03	3.664632E-16	1.042240E-17
7.312253E+03	3.641338E-16	1.039653E-17
7.322134E+03	3.618582E-16	1.037271E-17
7.332016E+03	3.596671E-16	1.035183E-17
7.341897E+03	3.575314E-16	1.033310E-17
7.351779E+03	3.554729E-16	1.031718E-17
7.361660E+03	3.534878E-16	1.030401E-17
7.371542E+03	3.515552E-16	1.029299E-17
7.381423E+03	3.496627E-16	1.028382E-17
7.391304E+03	3.478060E-16	1.027637E-17
7.401186E+03	3.459724E-16	1.027029E-17
7.411067E+03	3.441574E-16	1.026548E-17
7.420949E+03	3.423482E-16	1.026155E-17
7.430830E+03	3.405316E-16	1.025811E-17
7.440711E+03	3.387031E-16	1.025500E-17
7.450593E+03	3.368575E-16	1.025200E-17
7.460474E+03	3.349820E-16	1.024868E-17
7.470356E+03	3.330801E-16	1.024509E-17
7.480237E+03	3.311309E-16	1.024053E-17
7.490119E+03	3.291465E-16	1.023531E-17
7.500000E+03	3.271151E-16	1.022900E-17
7.509881E+03	3.250248E-16	1.022116E-17
7.519763E+03	3.228809E-16	1.021189E-17
7.529644E+03	3.206731E-16	1.020078E-17
7.539526E+03	3.184077E-16	1.018796E-17
7.549407E+03	3.160839E-16	1.017334E-17
7.559289E+03	3.136943E-16	1.015659E-17
7.569170E+03	3.112497E-16	1.013799E-17
7.579051E+03	3.087458E-16	1.011732E-17
7.588933E+03	3.061947E-16	1.009491E-17
7.598814E+03	3.036010E-16	1.007084E-17
7.608696E+03	3.009614E-16	1.004493E-17
7.618577E+03	2.982891E-16	1.001756E-17
7.628458E+03	2.955892E-16	9.988841E-18
7.638340E+03	2.928669E-16	9.958891E-18
7.648221E+03	2.901273E-16	9.927834E-18
7.658103E+03	2.873754E-16	9.895796E-18
7.667984E+03	2.846164E-16	9.862908E-18
