#wls	flux	fluxerr
1.581028E+03	1.804211E-18	0.000000E+00
1.620553E+03	1.839353E-18	0.000000E+00
1.660079E+03	1.868517E-18	0.000000E+00
1.699605E+03	1.891624E-18	0.000000E+00
1.739130E+03	1.908512E-18	0.000000E+00
1.778656E+03	1.917378E-18	0.000000E+00
1.818182E+03	1.916064E-18	0.000000E+00
1.857708E+03	1.902747E-18	0.000000E+00
1.897233E+03	1.874195E-18	0.000000E+00
1.936759E+03	1.829270E-18	0.000000E+00
1.976285E+03	1.768101E-18	0.000000E+00
2.015810E+03	1.695949E-18	0.000000E+00
2.055336E+03	1.623821E-18	0.000000E+00
2.094862E+03	1.569208E-18	0.000000E+00
2.134387E+03	1.549654E-18	0.000000E+00
2.173913E+03	1.576002E-18	0.000000E+00
2.213439E+03	1.649193E-18	0.000000E+00
2.252964E+03	1.760101E-18	0.000000E+00
2.292490E+03	1.896284E-18	0.000000E+00
2.332016E+03	2.045262E-18	0.000000E+00
2.371542E+03	2.198512E-18	0.000000E+00
2.411067E+03	2.351209E-18	0.000000E+00
2.450593E+03	2.500987E-18	0.000000E+00
2.490119E+03	2.647225E-18	0.000000E+00
2.529644E+03	2.791475E-18	0.000000E+00
2.569170E+03	2.934181E-18	0.000000E+00
2.608696E+03	3.076728E-18	0.000000E+00
2.648221E+03	3.220520E-18	0.000000E+00
2.687747E+03	3.366914E-18	0.000000E+00
2.727273E+03	3.517644E-18	0.000000E+00
2.766798E+03	3.673924E-18	0.000000E+00
2.806324E+03	3.836405E-18	0.000000E+00
2.845850E+03	4.007576E-18	0.000000E+00
2.885375E+03	4.187486E-18	0.000000E+00
2.924901E+03	4.378563E-18	0.000000E+00
2.964427E+03	4.581246E-18	0.000000E+00
2.974308E+03	4.633979E-18	0.000000E+00
2.984190E+03	4.687753E-18	0.000000E+00
2.994071E+03	4.742572E-18	0.000000E+00
3.003953E+03	4.797959E-18	0.000000E+00
3.013834E+03	4.855010E-18	0.000000E+00
3.023715E+03	4.912798E-18	0.000000E+00
3.033597E+03	4.971958E-18	0.000000E+00
3.043478E+03	5.031645E-18	0.000000E+00
3.053360E+03	5.093620E-18	0.000000E+00
3.063241E+03	5.157294E-18	0.000000E+00
3.073123E+03	5.222600E-18	0.000000E+00
3.083004E+03	5.289469E-18	0.000000E+00
3.092885E+03	5.357839E-18	0.000000E+00
3.102767E+03	5.427657E-18	0.000000E+00
3.112648E+03	5.499394E-18	0.000000E+00
3.122530E+03	5.572474E-18	0.000000E+00
3.132411E+03	5.646864E-18	0.000000E+00
3.142292E+03	5.723043E-18	0.000000E+00
3.152174E+03	5.800454E-18	0.000000E+00
3.162055E+03	5.879596E-18	0.000000E+00
3.171937E+03	5.959903E-18	0.000000E+00
3.181818E+03	6.041885E-18	0.000000E+00
3.191700E+03	6.125518E-18	0.000000E+00
3.201581E+03	6.210253E-18	0.000000E+00
3.211462E+03	6.296599E-18	0.000000E+00
3.221344E+03	6.385081E-18	0.000000E+00
3.231225E+03	6.474617E-18	0.000000E+00
3.241107E+03	6.565725E-18	0.000000E+00
3.250988E+03	6.658397E-18	0.000000E+00
3.260870E+03	6.752628E-18	0.000000E+00
3.270751E+03	6.848954E-18	0.000000E+00
3.280632E+03	6.946833E-18	0.000000E+00
3.290514E+03	7.046249E-18	0.000000E+00
3.300395E+03	7.147761E-18	0.000000E+00
3.310277E+03	7.250812E-18	0.000000E+00
3.320158E+03	7.355956E-18	0.000000E+00
3.330040E+03	7.463193E-18	0.000000E+00
3.339921E+03	7.571979E-18	0.000000E+00
3.349802E+03	7.682866E-18	0.000000E+00
3.359684E+03	7.795859E-18	0.000000E+00
3.369565E+03	7.911519E-18	0.000000E+00
3.379447E+03	8.028751E-18	0.000000E+00
3.389328E+03	8.148660E-18	0.000000E+00
3.399209E+03	8.270155E-18	0.000000E+00
3.409091E+03	8.394904E-18	0.000000E+00
3.418972E+03	8.521813E-18	0.000000E+00
3.428854E+03	8.650881E-18	0.000000E+00
3.438735E+03	8.782689E-18	0.000000E+00
3.448617E+03	8.917235E-18	0.000000E+00
3.458498E+03	9.054541E-18	0.000000E+00
3.468379E+03	9.194061E-18	0.000000E+00
3.478261E+03	9.336916E-18	0.000000E+00
3.488142E+03	9.482568E-18	0.000000E+00
3.498024E+03	9.631588E-18	0.000000E+00
3.507905E+03	9.783433E-18	0.000000E+00
3.517787E+03	9.938117E-18	0.000000E+00
3.527668E+03	1.009621E-17	0.000000E+00
3.537549E+03	1.025772E-17	0.000000E+00
3.547431E+03	1.042269E-17	0.000000E+00
3.557312E+03	1.059111E-17	0.000000E+00
3.567194E+03	1.076243E-17	0.000000E+00
3.577075E+03	1.093838E-17	0.000000E+00
3.586957E+03	1.111727E-17	0.000000E+00
3.596838E+03	1.130024E-17	0.000000E+00
3.606719E+03	1.148732E-17	0.000000E+00
3.616601E+03	1.167795E-17	0.000000E+00
3.626482E+03	1.187271E-17	0.000000E+00
3.636364E+03	1.207163E-17	0.000000E+00
3.646245E+03	1.227528E-17	0.000000E+00
3.656126E+03	1.248256E-17	0.000000E+00
3.666008E+03	1.269461E-17	0.000000E+00
3.675889E+03	1.291088E-17	0.000000E+00
3.685771E+03	1.313253E-17	0.000000E+00
3.695652E+03	1.335787E-17	0.000000E+00
3.705534E+03	1.358862E-17	0.000000E+00
3.715415E+03	1.382423E-17	0.000000E+00
3.725296E+03	1.406472E-17	0.000000E+00
3.735178E+03	1.431012E-17	0.000000E+00
3.745059E+03	1.456042E-17	0.000000E+00
3.754941E+03	1.481624E-17	0.000000E+00
3.764822E+03	1.507758E-17	0.000000E+00
3.774704E+03	1.534389E-17	0.000000E+00
3.784585E+03	1.561577E-17	0.000000E+00
3.794466E+03	1.589380E-17	0.000000E+00
3.804348E+03	1.617685E-17	0.000000E+00
3.814229E+03	1.646553E-17	0.000000E+00
3.824111E+03	1.676042E-17	0.000000E+00
3.833992E+03	1.706153E-17	0.000000E+00
3.843874E+03	1.736775E-17	0.000000E+00
3.853755E+03	1.768080E-17	0.000000E+00
3.863636E+03	1.799957E-17	0.000000E+00
3.873518E+03	1.832464E-17	0.000000E+00
3.883399E+03	1.865546E-17	0.000000E+00
3.893281E+03	1.899319E-17	0.000000E+00
3.903162E+03	1.933729E-17	0.000000E+00
3.913043E+03	1.968776E-17	0.000000E+00
3.922925E+03	2.004405E-17	0.000000E+00
3.932806E+03	2.040733E-17	0.000000E+00
3.942688E+03	2.077761E-17	0.000000E+00
3.952569E+03	2.115376E-17	0.000000E+00
3.962451E+03	2.153695E-17	0.000000E+00
3.972332E+03	2.192662E-17	0.000000E+00
3.982213E+03	2.232278E-17	0.000000E+00
3.992095E+03	2.272545E-17	0.000000E+00
4.001976E+03	2.313465E-17	0.000000E+00
4.011858E+03	2.355096E-17	0.000000E+00
4.021739E+03	2.397324E-17	0.000000E+00
4.031621E+03	2.440267E-17	0.000000E+00
4.041502E+03	2.483810E-17	0.000000E+00
4.051383E+03	2.528011E-17	0.000000E+00
4.061265E+03	2.572872E-17	0.000000E+00
4.071146E+03	2.618337E-17	0.000000E+00
4.081028E+03	2.664404E-17	0.000000E+00
4.090909E+03	2.711136E-17	0.000000E+00
4.100791E+03	2.758414E-17	0.000000E+00
4.110672E+03	2.806240E-17	0.000000E+00
4.120553E+03	2.854673E-17	0.000000E+00
4.130435E+03	2.903654E-17	0.000000E+00
4.140316E+03	2.953126E-17	0.000000E+00
4.150198E+03	3.003149E-17	0.000000E+00
4.160079E+03	3.053603E-17	0.000000E+00
4.169960E+03	3.104548E-17	0.000000E+00
4.179842E+03	3.155925E-17	0.000000E+00
4.189723E+03	3.207617E-17	0.000000E+00
4.199605E+03	3.259740E-17	0.000000E+00
4.209486E+03	3.312118E-17	0.000000E+00
4.219368E+03	3.364809E-17	0.000000E+00
4.229249E+03	3.417752E-17	0.000000E+00
4.239130E+03	3.470888E-17	0.000000E+00
4.249012E+03	3.524157E-17	0.000000E+00
4.258893E+03	3.577498E-17	0.000000E+00
4.268775E+03	3.630850E-17	0.000000E+00
4.278656E+03	3.684212E-17	0.000000E+00
4.288538E+03	3.737523E-17	0.000000E+00
4.298419E+03	3.790661E-17	0.000000E+00
4.308300E+03	3.843567E-17	0.000000E+00
4.318182E+03	3.896236E-17	0.000000E+00
4.328063E+03	3.948547E-17	0.000000E+00
4.337945E+03	4.000438E-17	0.000000E+00
4.347826E+03	4.051847E-17	0.000000E+00
4.357708E+03	4.102712E-17	0.000000E+00
4.367589E+03	4.153029E-17	0.000000E+00
4.377470E+03	4.202616E-17	0.000000E+00
4.387352E+03	4.251529E-17	0.000000E+00
4.397233E+03	4.299706E-17	0.000000E+00
4.407115E+03	4.347023E-17	0.000000E+00
4.416996E+03	4.393597E-17	0.000000E+00
4.426877E+03	4.439305E-17	0.000000E+00
4.436759E+03	4.484143E-17	0.000000E+00
4.446640E+03	4.528168E-17	0.000000E+00
4.456522E+03	4.571258E-17	0.000000E+00
4.466403E+03	4.613529E-17	0.000000E+00
4.476285E+03	4.654979E-17	0.000000E+00
4.486166E+03	4.695544E-17	0.000000E+00
4.496047E+03	4.735341E-17	0.000000E+00
4.505929E+03	4.774249E-17	0.000000E+00
4.515810E+03	4.812385E-17	0.000000E+00
4.525692E+03	4.849687E-17	0.000000E+00
4.535573E+03	4.886210E-17	0.000000E+00
4.545455E+03	4.922017E-17	0.000000E+00
4.555336E+03	4.956980E-17	0.000000E+00
4.565217E+03	4.991282E-17	0.000000E+00
4.575099E+03	5.024799E-17	0.000000E+00
4.584980E+03	5.057589E-17	0.000000E+00
4.594862E+03	5.089650E-17	0.000000E+00
4.604743E+03	5.120982E-17	0.000000E+00
4.614625E+03	5.151582E-17	0.000000E+00
4.624506E+03	5.181448E-17	0.000000E+00
4.634387E+03	5.210519E-17	0.000000E+00
4.644269E+03	5.238914E-17	0.000000E+00
4.654150E+03	5.266511E-17	0.000000E+00
4.664032E+03	5.293308E-17	0.000000E+00
4.673913E+03	5.319303E-17	0.000000E+00
4.683794E+03	5.344497E-17	0.000000E+00
4.693676E+03	5.368886E-17	0.000000E+00
4.703557E+03	5.392472E-17	0.000000E+00
4.713439E+03	5.415252E-17	0.000000E+00
4.723320E+03	5.437225E-17	0.000000E+00
4.733202E+03	5.458393E-17	0.000000E+00
4.743083E+03	5.478752E-17	0.000000E+00
4.752964E+03	5.498426E-17	0.000000E+00
4.762846E+03	5.517354E-17	0.000000E+00
4.772727E+03	5.535595E-17	0.000000E+00
4.782609E+03	5.553150E-17	0.000000E+00
4.792490E+03	5.570143E-17	0.000000E+00
4.802372E+03	5.586573E-17	0.000000E+00
4.812253E+03	5.602440E-17	0.000000E+00
4.822134E+03	5.617807E-17	0.000000E+00
4.832016E+03	5.632736E-17	0.000000E+00
4.841897E+03	5.647227E-17	0.000000E+00
4.851779E+03	5.661404E-17	0.000000E+00
4.861660E+03	5.675145E-17	0.000000E+00
4.871542E+03	5.688574E-17	0.000000E+00
4.881423E+03	5.701754E-17	0.000000E+00
4.891304E+03	5.714624E-17	0.000000E+00
4.901186E+03	5.727248E-17	0.000000E+00
4.911067E+03	5.739626E-17	0.000000E+00
4.920949E+03	5.751821E-17	0.000000E+00
4.930830E+03	5.763836E-17	0.000000E+00
4.940711E+03	5.775609E-17	0.000000E+00
4.950593E+03	5.787267E-17	0.000000E+00
4.960474E+03	5.798809E-17	0.000000E+00
4.970356E+03	5.810177E-17	0.000000E+00
4.980237E+03	5.821434E-17	0.000000E+00
4.990119E+03	5.832581E-17	0.000000E+00
5.000000E+03	5.843684E-17	0.000000E+00
5.009881E+03	5.854680E-17	0.000000E+00
5.019763E+03	5.865572E-17	0.000000E+00
5.029644E+03	5.876487E-17	0.000000E+00
5.039526E+03	5.887301E-17	0.000000E+00
5.049407E+03	5.898079E-17	0.000000E+00
5.059289E+03	5.908824E-17	0.000000E+00
5.069170E+03	5.919599E-17	0.000000E+00
5.079051E+03	5.930282E-17	0.000000E+00
5.088933E+03	5.940999E-17	0.000000E+00
5.098814E+03	5.951754E-17	0.000000E+00
5.108696E+03	5.962485E-17	0.000000E+00
5.118577E+03	5.973195E-17	0.000000E+00
5.128458E+03	5.983948E-17	0.000000E+00
5.138340E+03	5.994747E-17	0.000000E+00
5.148221E+03	6.005531E-17	0.000000E+00
5.158103E+03	6.016365E-17	0.000000E+00
5.167984E+03	6.027252E-17	0.000000E+00
5.177866E+03	6.038131E-17	0.000000E+00
5.187747E+03	6.049004E-17	0.000000E+00
5.197628E+03	6.059936E-17	0.000000E+00
5.207510E+03	6.070929E-17	0.000000E+00
5.217391E+03	6.081861E-17	0.000000E+00
5.227273E+03	6.092858E-17	0.000000E+00
5.237154E+03	6.103861E-17	0.000000E+00
5.247036E+03	6.114872E-17	0.000000E+00
5.256917E+03	6.125891E-17	0.000000E+00
5.266798E+03	6.136860E-17	0.000000E+00
5.276680E+03	6.147780E-17	0.000000E+00
5.286561E+03	6.158651E-17	0.000000E+00
5.296443E+03	6.169479E-17	0.000000E+00
5.306324E+03	6.180199E-17	0.000000E+00
5.316206E+03	6.190815E-17	0.000000E+00
5.326087E+03	6.201265E-17	0.000000E+00
5.335968E+03	6.211550E-17	0.000000E+00
5.345850E+03	6.221546E-17	0.000000E+00
5.355731E+03	6.231316E-17	0.000000E+00
5.365613E+03	6.240736E-17	0.000000E+00
5.375494E+03	6.249806E-17	0.000000E+00
5.385375E+03	6.258401E-17	0.000000E+00
5.395257E+03	6.266457E-17	0.000000E+00
5.405138E+03	6.273910E-17	0.000000E+00
5.415020E+03	6.280762E-17	0.000000E+00
5.424901E+03	6.287011E-17	0.000000E+00
5.434783E+03	6.292595E-17	0.000000E+00
5.444664E+03	6.297576E-17	0.000000E+00
5.454545E+03	6.302081E-17	0.000000E+00
5.464427E+03	6.306047E-17	0.000000E+00
5.474308E+03	6.309666E-17	0.000000E+00
5.484190E+03	6.313000E-17	0.000000E+00
5.494071E+03	6.316050E-17	0.000000E+00
5.503953E+03	6.319010E-17	0.000000E+00
5.513834E+03	6.321749E-17	0.000000E+00
5.523715E+03	6.324527E-17	0.000000E+00
5.533597E+03	6.327214E-17	0.000000E+00
5.543478E+03	6.329938E-17	0.000000E+00
5.553360E+03	6.332702E-17	0.000000E+00
5.563241E+03	6.335571E-17	0.000000E+00
5.573123E+03	6.338543E-17	0.000000E+00
5.583004E+03	6.341620E-17	0.000000E+00
5.592885E+03	6.344801E-17	0.000000E+00
5.602767E+03	6.348218E-17	0.000000E+00
5.612648E+03	6.351741E-17	0.000000E+00
5.622530E+03	6.355435E-17	0.000000E+00
5.632411E+03	6.359364E-17	0.000000E+00
5.642292E+03	6.363465E-17	0.000000E+00
5.652174E+03	6.367804E-17	0.000000E+00
5.662055E+03	6.372314E-17	0.000000E+00
5.671937E+03	6.377061E-17	0.000000E+00
5.681818E+03	6.382046E-17	0.000000E+00
5.691700E+03	6.387268E-17	0.000000E+00
5.701581E+03	6.392727E-17	0.000000E+00
5.711462E+03	6.398359E-17	0.000000E+00
5.721344E+03	6.404293E-17	0.000000E+00
5.731225E+03	6.410464E-17	0.000000E+00
5.741107E+03	6.416806E-17	0.000000E+00
5.750988E+03	6.423450E-17	0.000000E+00
5.760870E+03	6.430263E-17	0.000000E+00
5.770751E+03	6.437312E-17	0.000000E+00
5.780632E+03	6.444595E-17	0.000000E+00
5.790514E+03	6.452112E-17	0.000000E+00
5.800395E+03	6.459862E-17	0.000000E+00
5.810277E+03	6.467777E-17	0.000000E+00
5.820158E+03	6.475855E-17	0.000000E+00
5.830040E+03	6.484164E-17	0.000000E+00
5.839921E+03	6.492633E-17	0.000000E+00
5.849802E+03	6.501263E-17	0.000000E+00
5.859684E+03	6.509982E-17	0.000000E+00
5.869565E+03	6.518925E-17	0.000000E+00
5.879447E+03	6.527955E-17	0.000000E+00
5.889328E+03	6.537069E-17	0.000000E+00
5.899209E+03	6.546265E-17	0.000000E+00
5.909091E+03	6.555473E-17	0.000000E+00
5.918972E+03	6.564757E-17	0.000000E+00
5.928854E+03	6.574115E-17	0.000000E+00
5.938735E+03	6.583339E-17	0.000000E+00
5.948617E+03	6.592630E-17	0.000000E+00
5.958498E+03	6.601780E-17	0.000000E+00
5.968379E+03	6.610853E-17	0.000000E+00
5.978261E+03	6.619844E-17	0.000000E+00
5.988142E+03	6.628614E-17	0.000000E+00
5.998024E+03	6.637224E-17	0.000000E+00
6.007905E+03	6.645533E-17	0.000000E+00
6.017787E+03	6.653603E-17	0.000000E+00
6.027668E+03	6.661361E-17	0.000000E+00
6.037549E+03	6.668801E-17	0.000000E+00
6.047431E+03	6.675777E-17	0.000000E+00
6.057312E+03	6.682422E-17	0.000000E+00
6.067194E+03	6.688590E-17	0.000000E+00
6.077075E+03	6.694344E-17	0.000000E+00
6.086957E+03	6.699538E-17	0.000000E+00
6.096838E+03	6.704232E-17	0.000000E+00
6.106719E+03	6.708491E-17	0.000000E+00
6.116601E+03	6.712166E-17	0.000000E+00
6.126482E+03	6.715319E-17	0.000000E+00
6.136364E+03	6.717943E-17	0.000000E+00
6.146245E+03	6.720030E-17	0.000000E+00
6.156126E+03	6.721501E-17	0.000000E+00
6.166008E+03	6.722560E-17	0.000000E+00
6.175889E+03	6.722986E-17	0.000000E+00
6.185771E+03	6.722985E-17	0.000000E+00
6.195652E+03	6.722476E-17	0.000000E+00
6.205534E+03	6.721453E-17	0.000000E+00
6.215415E+03	6.719977E-17	0.000000E+00
6.225296E+03	6.718043E-17	0.000000E+00
6.235178E+03	6.715642E-17	0.000000E+00
6.245059E+03	6.712766E-17	0.000000E+00
6.254941E+03	6.709407E-17	0.000000E+00
6.264822E+03	6.705702E-17	0.000000E+00
6.274704E+03	6.701427E-17	0.000000E+00
6.284585E+03	6.696790E-17	0.000000E+00
6.294466E+03	6.691713E-17	0.000000E+00
6.304348E+03	6.686116E-17	0.000000E+00
6.314229E+03	6.680063E-17	0.000000E+00
6.324111E+03	6.673547E-17	0.000000E+00
6.333992E+03	6.666562E-17	0.000000E+00
6.343874E+03	6.659027E-17	0.000000E+00
6.353755E+03	6.651009E-17	0.000000E+00
6.363636E+03	6.642500E-17	0.000000E+00
6.373518E+03	6.633420E-17	0.000000E+00
6.383399E+03	6.623763E-17	0.000000E+00
6.393281E+03	6.613595E-17	0.000000E+00
6.403162E+03	6.602836E-17	0.000000E+00
6.413043E+03	6.591553E-17	0.000000E+00
6.422925E+03	6.579668E-17	0.000000E+00
6.432806E+03	6.567246E-17	0.000000E+00
6.442688E+03	6.554209E-17	0.000000E+00
6.452569E+03	6.540699E-17	0.000000E+00
6.462451E+03	6.526634E-17	0.000000E+00
6.472332E+03	6.512087E-17	0.000000E+00
6.482213E+03	6.497050E-17	0.000000E+00
6.492095E+03	6.481593E-17	0.000000E+00
6.501976E+03	6.465638E-17	0.000000E+00
6.511858E+03	6.449330E-17	0.000000E+00
6.521739E+03	6.432663E-17	0.000000E+00
6.531621E+03	6.415635E-17	0.000000E+00
6.541502E+03	6.398318E-17	0.000000E+00
6.551383E+03	6.380707E-17	0.000000E+00
6.561265E+03	6.362874E-17	0.000000E+00
6.571146E+03	6.344743E-17	0.000000E+00
6.581028E+03	6.326461E-17	0.000000E+00
6.590909E+03	6.307952E-17	0.000000E+00
6.600791E+03	6.289286E-17	0.000000E+00
6.610672E+03	6.270540E-17	0.000000E+00
6.620553E+03	6.251635E-17	0.000000E+00
6.630435E+03	6.232646E-17	0.000000E+00
6.640316E+03	6.213572E-17	0.000000E+00
6.650198E+03	6.194488E-17	0.000000E+00
6.660079E+03	6.175317E-17	0.000000E+00
6.669960E+03	6.156135E-17	0.000000E+00
6.679842E+03	6.136941E-17	0.000000E+00
6.689723E+03	6.117736E-17	0.000000E+00
6.699605E+03	6.098519E-17	0.000000E+00
6.709486E+03	6.079366E-17	0.000000E+00
6.719368E+03	6.060278E-17	0.000000E+00
6.729249E+03	6.041254E-17	0.000000E+00
6.739130E+03	6.022221E-17	0.000000E+00
6.749012E+03	6.003329E-17	0.000000E+00
6.758893E+03	5.984506E-17	0.000000E+00
6.768775E+03	5.965750E-17	0.000000E+00
6.778656E+03	5.947065E-17	0.000000E+00
6.788538E+03	5.928526E-17	0.000000E+00
6.798419E+03	5.910133E-17	0.000000E+00
6.808300E+03	5.891741E-17	0.000000E+00
6.818182E+03	5.873572E-17	0.000000E+00
6.828063E+03	5.855481E-17	0.000000E+00
6.837945E+03	5.837544E-17	0.000000E+00
6.847826E+03	5.819761E-17	0.000000E+00
6.857708E+03	5.802061E-17	0.000000E+00
6.867589E+03	5.784593E-17	0.000000E+00
6.877470E+03	5.767212E-17	0.000000E+00
6.887352E+03	5.749920E-17	0.000000E+00
6.897233E+03	5.732866E-17	0.000000E+00
6.907115E+03	5.715905E-17	0.000000E+00
6.916996E+03	5.699113E-17	0.000000E+00
6.926877E+03	5.682420E-17	0.000000E+00
6.936759E+03	5.665972E-17	0.000000E+00
6.946640E+03	5.649628E-17	0.000000E+00
6.956522E+03	5.633388E-17	0.000000E+00
6.966403E+03	5.617330E-17	0.000000E+00
6.976285E+03	5.601455E-17	0.000000E+00
6.986166E+03	5.585621E-17	0.000000E+00
6.996047E+03	5.570049E-17	0.000000E+00
7.005929E+03	5.554523E-17	0.000000E+00
7.015810E+03	5.539192E-17	0.000000E+00
7.025692E+03	5.523913E-17	0.000000E+00
7.035573E+03	5.508834E-17	0.000000E+00
7.045455E+03	5.493814E-17	0.000000E+00
7.055336E+03	5.478929E-17	0.000000E+00
7.065217E+03	5.464110E-17	0.000000E+00
7.075099E+03	5.449431E-17	0.000000E+00
7.084980E+03	5.434825E-17	0.000000E+00
7.094862E+03	5.420296E-17	0.000000E+00
7.104743E+03	5.405846E-17	0.000000E+00
7.114625E+03	5.391410E-17	0.000000E+00
7.124506E+03	5.377062E-17	0.000000E+00
7.134387E+03	5.362735E-17	0.000000E+00
7.144269E+03	5.348432E-17	0.000000E+00
7.154150E+03	5.334090E-17	0.000000E+00
7.164032E+03	5.319781E-17	0.000000E+00
7.173913E+03	5.305441E-17	0.000000E+00
7.183794E+03	5.291005E-17	0.000000E+00
7.193676E+03	5.276548E-17	0.000000E+00
7.203557E+03	5.262004E-17	0.000000E+00
7.213439E+03	5.247312E-17	0.000000E+00
7.223320E+03	5.232407E-17	0.000000E+00
7.233202E+03	5.217434E-17	0.000000E+00
7.243083E+03	5.202192E-17	0.000000E+00
7.252964E+03	5.186757E-17	0.000000E+00
7.262846E+03	5.171068E-17	0.000000E+00
7.272727E+03	5.155064E-17	0.000000E+00
7.282609E+03	5.138753E-17	0.000000E+00
7.292490E+03	5.122141E-17	0.000000E+00
7.302372E+03	5.105104E-17	0.000000E+00
7.312253E+03	5.087716E-17	0.000000E+00
7.322134E+03	5.069853E-17	0.000000E+00
7.332016E+03	5.051655E-17	0.000000E+00
7.341897E+03	5.033001E-17	0.000000E+00
7.351779E+03	5.013898E-17	0.000000E+00
7.361660E+03	4.994422E-17	0.000000E+00
7.371542E+03	4.974582E-17	0.000000E+00
7.381423E+03	4.954386E-17	0.000000E+00
7.391304E+03	4.933844E-17	0.000000E+00
7.401186E+03	4.913093E-17	0.000000E+00
7.411067E+03	4.892076E-17	0.000000E+00
7.420949E+03	4.870801E-17	0.000000E+00
7.430830E+03	4.849406E-17	0.000000E+00
7.440711E+03	4.827895E-17	0.000000E+00
7.450593E+03	4.806276E-17	0.000000E+00
7.460474E+03	4.784618E-17	0.000000E+00
7.470356E+03	4.762865E-17	0.000000E+00
7.480237E+03	4.741147E-17	0.000000E+00
7.490119E+03	4.719406E-17	0.000000E+00
7.500000E+03	4.697775E-17	0.000000E+00
7.509881E+03	4.676131E-17	0.000000E+00
7.519763E+03	4.654604E-17	0.000000E+00
7.529644E+03	4.633199E-17	0.000000E+00
7.539526E+03	4.611917E-17	0.000000E+00
7.549407E+03	4.590764E-17	0.000000E+00
7.559289E+03	4.569742E-17	0.000000E+00
7.569170E+03	4.548853E-17	0.000000E+00
7.579051E+03	4.528225E-17	0.000000E+00
7.588933E+03	4.507675E-17	0.000000E+00
7.598814E+03	4.487390E-17	0.000000E+00
7.608696E+03	4.467310E-17	0.000000E+00
7.618577E+03	4.447378E-17	0.000000E+00
7.628458E+03	4.427654E-17	0.000000E+00
7.638340E+03	4.408203E-17	0.000000E+00
7.648221E+03	4.388905E-17	0.000000E+00
7.658103E+03	4.369881E-17	0.000000E+00
7.667984E+03	4.351013E-17	0.000000E+00
