#wls	flux	fluxerr
1.586090E+03	5.133385E-16	0.000000E+00
1.625742E+03	4.073228E-16	0.000000E+00
1.665394E+03	3.187219E-16	0.000000E+00
1.705047E+03	2.458105E-16	0.000000E+00
1.744699E+03	1.867932E-16	0.000000E+00
1.784351E+03	1.398385E-16	0.000000E+00
1.824003E+03	1.031123E-16	0.000000E+00
1.863656E+03	7.494754E-17	0.000000E+00
1.903308E+03	5.378196E-17	0.000000E+00
1.942960E+03	3.822369E-17	0.000000E+00
1.982612E+03	2.705798E-17	0.000000E+00
2.022265E+03	1.925342E-17	0.000000E+00
2.061917E+03	1.394840E-17	0.000000E+00
2.101569E+03	1.044409E-17	0.000000E+00
2.141221E+03	8.206394E-18	0.000000E+00
2.180874E+03	6.858607E-18	0.000000E+00
2.220526E+03	6.161322E-18	0.000000E+00
2.260178E+03	5.982588E-18	0.000000E+00
2.299830E+03	6.276176E-18	0.000000E+00
2.339483E+03	7.069654E-18	0.000000E+00
2.379135E+03	8.458491E-18	0.000000E+00
2.418787E+03	1.060191E-17	0.000000E+00
2.458439E+03	1.371505E-17	0.000000E+00
2.498092E+03	1.804588E-17	0.000000E+00
2.537744E+03	2.384586E-17	0.000000E+00
2.577396E+03	3.132779E-17	0.000000E+00
2.617048E+03	4.060789E-17	0.000000E+00
2.656701E+03	5.159387E-17	0.000000E+00
2.696353E+03	6.391000E-17	0.000000E+00
2.736005E+03	7.693914E-17	0.000000E+00
2.775657E+03	8.992463E-17	0.000000E+00
2.815310E+03	1.020722E-16	0.000000E+00
2.854962E+03	1.126336E-16	0.000000E+00
2.894614E+03	1.209562E-16	0.000000E+00
2.934266E+03	1.265585E-16	0.000000E+00
2.973919E+03	1.291523E-16	0.000000E+00
2.983832E+03	1.293231E-16	0.000000E+00
2.993745E+03	1.293013E-16	0.000000E+00
3.003658E+03	1.290889E-16	0.000000E+00
3.013571E+03	1.286948E-16	0.000000E+00
3.023484E+03	1.281197E-16	0.000000E+00
3.033397E+03	1.273690E-16	0.000000E+00
3.043310E+03	1.264486E-16	0.000000E+00
3.053223E+03	1.253659E-16	0.000000E+00
3.063136E+03	1.241268E-16	0.000000E+00
3.073049E+03	1.227425E-16	0.000000E+00
3.082962E+03	1.212146E-16	0.000000E+00
3.092875E+03	1.195526E-16	0.000000E+00
3.102789E+03	1.177615E-16	0.000000E+00
3.112702E+03	1.158556E-16	0.000000E+00
3.122615E+03	1.138357E-16	0.000000E+00
3.132528E+03	1.117118E-16	0.000000E+00
3.142441E+03	1.094937E-16	0.000000E+00
3.152354E+03	1.071890E-16	0.000000E+00
3.162267E+03	1.048013E-16	0.000000E+00
3.172180E+03	1.023441E-16	0.000000E+00
3.182093E+03	9.982094E-17	0.000000E+00
3.192006E+03	9.724121E-17	0.000000E+00
3.201919E+03	9.461043E-17	0.000000E+00
3.211832E+03	9.193763E-17	0.000000E+00
3.221745E+03	8.923005E-17	0.000000E+00
3.231658E+03	8.649495E-17	0.000000E+00
3.241571E+03	8.373817E-17	0.000000E+00
3.251484E+03	8.096870E-17	0.000000E+00
3.261398E+03	7.819407E-17	0.000000E+00
3.271311E+03	7.542073E-17	0.000000E+00
3.281224E+03	7.265793E-17	0.000000E+00
3.291137E+03	6.991273E-17	0.000000E+00
3.301050E+03	6.719460E-17	0.000000E+00
3.310963E+03	6.451113E-17	0.000000E+00
3.320876E+03	6.187112E-17	0.000000E+00
3.330789E+03	5.928355E-17	0.000000E+00
3.340702E+03	5.675736E-17	0.000000E+00
3.350615E+03	5.430138E-17	0.000000E+00
3.360528E+03	5.192344E-17	0.000000E+00
3.370441E+03	4.963252E-17	0.000000E+00
3.380354E+03	4.743483E-17	0.000000E+00
3.390267E+03	4.533858E-17	0.000000E+00
3.400180E+03	4.334837E-17	0.000000E+00
3.410093E+03	4.146919E-17	0.000000E+00
3.420007E+03	3.970510E-17	0.000000E+00
3.429920E+03	3.805869E-17	0.000000E+00
3.439833E+03	3.653285E-17	0.000000E+00
3.449746E+03	3.512888E-17	0.000000E+00
3.459659E+03	3.384776E-17	0.000000E+00
3.469572E+03	3.269067E-17	0.000000E+00
3.479485E+03	3.165827E-17	0.000000E+00
3.489398E+03	3.075213E-17	0.000000E+00
3.499311E+03	2.997237E-17	0.000000E+00
3.509224E+03	2.932094E-17	0.000000E+00
3.519137E+03	2.879936E-17	0.000000E+00
3.529050E+03	2.840987E-17	0.000000E+00
3.538963E+03	2.815450E-17	0.000000E+00
3.548876E+03	2.803615E-17	0.000000E+00
3.558789E+03	2.805894E-17	0.000000E+00
3.568702E+03	2.822618E-17	0.000000E+00
3.578616E+03	2.854313E-17	0.000000E+00
3.588529E+03	2.901482E-17	0.000000E+00
3.598442E+03	2.964641E-17	0.000000E+00
3.608355E+03	3.044362E-17	0.000000E+00
3.618268E+03	3.141259E-17	0.000000E+00
3.628181E+03	3.255851E-17	0.000000E+00
3.638094E+03	3.388721E-17	0.000000E+00
3.648007E+03	3.540208E-17	0.000000E+00
3.657920E+03	3.710619E-17	0.000000E+00
3.667833E+03	3.900050E-17	0.000000E+00
3.677746E+03	4.108397E-17	0.000000E+00
3.687659E+03	4.335187E-17	0.000000E+00
3.697572E+03	4.579710E-17	0.000000E+00
3.707485E+03	4.840858E-17	0.000000E+00
3.717398E+03	5.117188E-17	0.000000E+00
3.727311E+03	5.406836E-17	0.000000E+00
3.737225E+03	5.707631E-17	0.000000E+00
3.747138E+03	6.017026E-17	0.000000E+00
3.757051E+03	6.332205E-17	0.000000E+00
3.766964E+03	6.650343E-17	0.000000E+00
3.776877E+03	6.968193E-17	0.000000E+00
3.786790E+03	7.282732E-17	0.000000E+00
3.796703E+03	7.591019E-17	0.000000E+00
3.806616E+03	7.890030E-17	0.000000E+00
3.816529E+03	8.177099E-17	0.000000E+00
3.826442E+03	8.449889E-17	0.000000E+00
3.836355E+03	8.706296E-17	0.000000E+00
3.846268E+03	8.944519E-17	0.000000E+00
3.856181E+03	9.162984E-17	0.000000E+00
3.866094E+03	9.360571E-17	0.000000E+00
3.876007E+03	9.536335E-17	0.000000E+00
3.885920E+03	9.689564E-17	0.000000E+00
3.895834E+03	9.819722E-17	0.000000E+00
3.905747E+03	9.926414E-17	0.000000E+00
3.915660E+03	1.000944E-16	0.000000E+00
3.925573E+03	1.006860E-16	0.000000E+00
3.935486E+03	1.010366E-16	0.000000E+00
3.945399E+03	1.011473E-16	0.000000E+00
3.955312E+03	1.010173E-16	0.000000E+00
3.965225E+03	1.006488E-16	0.000000E+00
3.975138E+03	1.000445E-16	0.000000E+00
3.985051E+03	9.920864E-17	0.000000E+00
3.994964E+03	9.815056E-17	0.000000E+00
4.004877E+03	9.688022E-17	0.000000E+00
4.014790E+03	9.541281E-17	0.000000E+00
4.024703E+03	9.376649E-17	0.000000E+00
4.034616E+03	9.196315E-17	0.000000E+00
4.044529E+03	9.002826E-17	0.000000E+00
4.054443E+03	8.799125E-17	0.000000E+00
4.064356E+03	8.588236E-17	0.000000E+00
4.074269E+03	8.373438E-17	0.000000E+00
4.084182E+03	8.158226E-17	0.000000E+00
4.094095E+03	7.945782E-17	0.000000E+00
4.104008E+03	7.739396E-17	0.000000E+00
4.113921E+03	7.542080E-17	0.000000E+00
4.123834E+03	7.356572E-17	0.000000E+00
4.133747E+03	7.185281E-17	0.000000E+00
4.143660E+03	7.030233E-17	0.000000E+00
4.153573E+03	6.893045E-17	0.000000E+00
4.163486E+03	6.774907E-17	0.000000E+00
4.173399E+03	6.676584E-17	0.000000E+00
4.183312E+03	6.598408E-17	0.000000E+00
4.193225E+03	6.540247E-17	0.000000E+00
4.203138E+03	6.501621E-17	0.000000E+00
4.213052E+03	6.481725E-17	0.000000E+00
4.222965E+03	6.479349E-17	0.000000E+00
4.232878E+03	6.492823E-17	0.000000E+00
4.242791E+03	6.520361E-17	0.000000E+00
4.252704E+03	6.559866E-17	0.000000E+00
4.262617E+03	6.609038E-17	0.000000E+00
4.272530E+03	6.665429E-17	0.000000E+00
4.282443E+03	6.726459E-17	0.000000E+00
4.292356E+03	6.789709E-17	0.000000E+00
4.302269E+03	6.852589E-17	0.000000E+00
4.312182E+03	6.912865E-17	0.000000E+00
4.322095E+03	6.968359E-17	0.000000E+00
4.332008E+03	7.017173E-17	0.000000E+00
4.341921E+03	7.057605E-17	0.000000E+00
4.351834E+03	7.088287E-17	0.000000E+00
4.361747E+03	7.108094E-17	0.000000E+00
4.371661E+03	7.116325E-17	0.000000E+00
4.381574E+03	7.112446E-17	0.000000E+00
4.391487E+03	7.096225E-17	0.000000E+00
4.401400E+03	7.067816E-17	0.000000E+00
4.411313E+03	7.027497E-17	0.000000E+00
4.421226E+03	6.975843E-17	0.000000E+00
4.431139E+03	6.913675E-17	0.000000E+00
4.441052E+03	6.841804E-17	0.000000E+00
4.450965E+03	6.761349E-17	0.000000E+00
4.460878E+03	6.673479E-17	0.000000E+00
4.470791E+03	6.579367E-17	0.000000E+00
4.480704E+03	6.480285E-17	0.000000E+00
4.490617E+03	6.377513E-17	0.000000E+00
4.500530E+03	6.272319E-17	0.000000E+00
4.510443E+03	6.165922E-17	0.000000E+00
4.520356E+03	6.059428E-17	0.000000E+00
4.530270E+03	5.953862E-17	0.000000E+00
4.540183E+03	5.850316E-17	0.000000E+00
4.550096E+03	5.749559E-17	0.000000E+00
4.560009E+03	5.652293E-17	0.000000E+00
4.569922E+03	5.559224E-17	0.000000E+00
4.579835E+03	5.470884E-17	0.000000E+00
4.589748E+03	5.387549E-17	0.000000E+00
4.599661E+03	5.309727E-17	0.000000E+00
4.609574E+03	5.237483E-17	0.000000E+00
4.619487E+03	5.171160E-17	0.000000E+00
4.629400E+03	5.110918E-17	0.000000E+00
4.639313E+03	5.056912E-17	0.000000E+00
4.649226E+03	5.009324E-17	0.000000E+00
4.659139E+03	4.968367E-17	0.000000E+00
4.669052E+03	4.934390E-17	0.000000E+00
4.678965E+03	4.907646E-17	0.000000E+00
4.688879E+03	4.888475E-17	0.000000E+00
4.698792E+03	4.877305E-17	0.000000E+00
4.708705E+03	4.874446E-17	0.000000E+00
4.718618E+03	4.880466E-17	0.000000E+00
4.728531E+03	4.895640E-17	0.000000E+00
4.738444E+03	4.920473E-17	0.000000E+00
4.748357E+03	4.955347E-17	0.000000E+00
4.758270E+03	5.000493E-17	0.000000E+00
4.768183E+03	5.056245E-17	0.000000E+00
4.778096E+03	5.122873E-17	0.000000E+00
4.788009E+03	5.200422E-17	0.000000E+00
4.797922E+03	5.289017E-17	0.000000E+00
4.807835E+03	5.388651E-17	0.000000E+00
4.817748E+03	5.499175E-17	0.000000E+00
4.827661E+03	5.620406E-17	0.000000E+00
4.837574E+03	5.752111E-17	0.000000E+00
4.847488E+03	5.893842E-17	0.000000E+00
4.857401E+03	6.045147E-17	0.000000E+00
4.867314E+03	6.205259E-17	0.000000E+00
4.877227E+03	6.373436E-17	0.000000E+00
4.887140E+03	6.548723E-17	0.000000E+00
4.897053E+03	6.729918E-17	0.000000E+00
4.906966E+03	6.915768E-17	0.000000E+00
4.916879E+03	7.104699E-17	0.000000E+00
4.926792E+03	7.295095E-17	0.000000E+00
4.936705E+03	7.485026E-17	0.000000E+00
4.946618E+03	7.672495E-17	0.000000E+00
4.956531E+03	7.855324E-17	0.000000E+00
4.966444E+03	8.031516E-17	0.000000E+00
4.976357E+03	8.198746E-17	0.000000E+00
4.986270E+03	8.354914E-17	0.000000E+00
4.996183E+03	8.498133E-17	0.000000E+00
5.006097E+03	8.626535E-17	0.000000E+00
5.016010E+03	8.738582E-17	0.000000E+00
5.025923E+03	8.833044E-17	0.000000E+00
5.035836E+03	8.909027E-17	0.000000E+00
5.045749E+03	8.965922E-17	0.000000E+00
5.055662E+03	9.003595E-17	0.000000E+00
5.065575E+03	9.022397E-17	0.000000E+00
5.075488E+03	9.022783E-17	0.000000E+00
5.085401E+03	9.005933E-17	0.000000E+00
5.095314E+03	8.972891E-17	0.000000E+00
5.105227E+03	8.925427E-17	0.000000E+00
5.115140E+03	8.865254E-17	0.000000E+00
5.125053E+03	8.794326E-17	0.000000E+00
5.134966E+03	8.714664E-17	0.000000E+00
5.144879E+03	8.628217E-17	0.000000E+00
5.154792E+03	8.536960E-17	0.000000E+00
5.164706E+03	8.442657E-17	0.000000E+00
5.174619E+03	8.347178E-17	0.000000E+00
5.184532E+03	8.251753E-17	0.000000E+00
5.194445E+03	8.157760E-17	0.000000E+00
5.204358E+03	8.066275E-17	0.000000E+00
5.214271E+03	7.978173E-17	0.000000E+00
5.224184E+03	7.894005E-17	0.000000E+00
5.234097E+03	7.814417E-17	0.000000E+00
5.244010E+03	7.739784E-17	0.000000E+00
5.253923E+03	7.670473E-17	0.000000E+00
5.263836E+03	7.606698E-17	0.000000E+00
5.273749E+03	7.548776E-17	0.000000E+00
5.283662E+03	7.496727E-17	0.000000E+00
5.293575E+03	7.450662E-17	0.000000E+00
5.303488E+03	7.410529E-17	0.000000E+00
5.313401E+03	7.376332E-17	0.000000E+00
5.323315E+03	7.347668E-17	0.000000E+00
5.333228E+03	7.324312E-17	0.000000E+00
5.343141E+03	7.305781E-17	0.000000E+00
5.353054E+03	7.291488E-17	0.000000E+00
5.362967E+03	7.280620E-17	0.000000E+00
5.372880E+03	7.272459E-17	0.000000E+00
5.382793E+03	7.266274E-17	0.000000E+00
5.392706E+03	7.261062E-17	0.000000E+00
5.402619E+03	7.256168E-17	0.000000E+00
5.412532E+03	7.250790E-17	0.000000E+00
5.422445E+03	7.244367E-17	0.000000E+00
5.432358E+03	7.236783E-17	0.000000E+00
5.442271E+03	7.227693E-17	0.000000E+00
5.452184E+03	7.217080E-17	0.000000E+00
5.462097E+03	7.204788E-17	0.000000E+00
5.472010E+03	7.190851E-17	0.000000E+00
5.481924E+03	7.174881E-17	0.000000E+00
5.491837E+03	7.156648E-17	0.000000E+00
5.501750E+03	7.135708E-17	0.000000E+00
5.511663E+03	7.111759E-17	0.000000E+00
5.521576E+03	7.084174E-17	0.000000E+00
5.531489E+03	7.052432E-17	0.000000E+00
5.541402E+03	7.015950E-17	0.000000E+00
5.551315E+03	6.974298E-17	0.000000E+00
5.561228E+03	6.926888E-17	0.000000E+00
5.571141E+03	6.873319E-17	0.000000E+00
5.581054E+03	6.813261E-17	0.000000E+00
5.590967E+03	6.746377E-17	0.000000E+00
5.600880E+03	6.672444E-17	0.000000E+00
5.610793E+03	6.591152E-17	0.000000E+00
5.620706E+03	6.502344E-17	0.000000E+00
5.630619E+03	6.405874E-17	0.000000E+00
5.640533E+03	6.301533E-17	0.000000E+00
5.650446E+03	6.189123E-17	0.000000E+00
5.660359E+03	6.068474E-17	0.000000E+00
5.670272E+03	5.939592E-17	0.000000E+00
5.680185E+03	5.802327E-17	0.000000E+00
5.690098E+03	5.656937E-17	0.000000E+00
5.700011E+03	5.503753E-17	0.000000E+00
5.709924E+03	5.343296E-17	0.000000E+00
5.719837E+03	5.176489E-17	0.000000E+00
5.729750E+03	5.004564E-17	0.000000E+00
5.739663E+03	4.828926E-17	0.000000E+00
5.749576E+03	4.651302E-17	0.000000E+00
5.759489E+03	4.473726E-17	0.000000E+00
5.769402E+03	4.298157E-17	0.000000E+00
5.779315E+03	4.126745E-17	0.000000E+00
5.789228E+03	3.961555E-17	0.000000E+00
5.799142E+03	3.804524E-17	0.000000E+00
5.809055E+03	3.657439E-17	0.000000E+00
5.818968E+03	3.521727E-17	0.000000E+00
5.828881E+03	3.398721E-17	0.000000E+00
5.838794E+03	3.289364E-17	0.000000E+00
5.848707E+03	3.194385E-17	0.000000E+00
5.858620E+03	3.114292E-17	0.000000E+00
5.868533E+03	3.049393E-17	0.000000E+00
5.878446E+03	2.999883E-17	0.000000E+00
5.888359E+03	2.965732E-17	0.000000E+00
5.898272E+03	2.946904E-17	0.000000E+00
5.908185E+03	2.943337E-17	0.000000E+00
5.918098E+03	2.954909E-17	0.000000E+00
5.928011E+03	2.981405E-17	0.000000E+00
5.937924E+03	3.022748E-17	0.000000E+00
5.947837E+03	3.078665E-17	0.000000E+00
5.957751E+03	3.149084E-17	0.000000E+00
5.967664E+03	3.233692E-17	0.000000E+00
5.977577E+03	3.332232E-17	0.000000E+00
5.987490E+03	3.444425E-17	0.000000E+00
5.997403E+03	3.569820E-17	0.000000E+00
6.007316E+03	3.707901E-17	0.000000E+00
6.017229E+03	3.857909E-17	0.000000E+00
6.027142E+03	4.019103E-17	0.000000E+00
6.037055E+03	4.190325E-17	0.000000E+00
6.046968E+03	4.370459E-17	0.000000E+00
6.056881E+03	4.558036E-17	0.000000E+00
6.066794E+03	4.751392E-17	0.000000E+00
6.076707E+03	4.948738E-17	0.000000E+00
6.086620E+03	5.148209E-17	0.000000E+00
6.096533E+03	5.347720E-17	0.000000E+00
6.106446E+03	5.545200E-17	0.000000E+00
6.116360E+03	5.738727E-17	0.000000E+00
6.126273E+03	5.926174E-17	0.000000E+00
6.136186E+03	6.105748E-17	0.000000E+00
6.146099E+03	6.275836E-17	0.000000E+00
6.156012E+03	6.435056E-17	0.000000E+00
6.165925E+03	6.582101E-17	0.000000E+00
6.175838E+03	6.716006E-17	0.000000E+00
6.185751E+03	6.836173E-17	0.000000E+00
6.195664E+03	6.942089E-17	0.000000E+00
6.205577E+03	7.033677E-17	0.000000E+00
6.215490E+03	7.111024E-17	0.000000E+00
6.225403E+03	7.174540E-17	0.000000E+00
6.235316E+03	7.224747E-17	0.000000E+00
6.245229E+03	7.262359E-17	0.000000E+00
6.255142E+03	7.288369E-17	0.000000E+00
6.265055E+03	7.303924E-17	0.000000E+00
6.274969E+03	7.310105E-17	0.000000E+00
6.284882E+03	7.308297E-17	0.000000E+00
6.294795E+03	7.299969E-17	0.000000E+00
6.304708E+03	7.286410E-17	0.000000E+00
6.314621E+03	7.269198E-17	0.000000E+00
6.324534E+03	7.249610E-17	0.000000E+00
6.334447E+03	7.228772E-17	0.000000E+00
6.344360E+03	7.207579E-17	0.000000E+00
6.354273E+03	7.186858E-17	0.000000E+00
6.364186E+03	7.166841E-17	0.000000E+00
6.374099E+03	7.147816E-17	0.000000E+00
6.384012E+03	7.129666E-17	0.000000E+00
6.393925E+03	7.112142E-17	0.000000E+00
6.403838E+03	7.095031E-17	0.000000E+00
6.413751E+03	7.077998E-17	0.000000E+00
6.423664E+03	7.060823E-17	0.000000E+00
6.433578E+03	7.042997E-17	0.000000E+00
6.443491E+03	7.024495E-17	0.000000E+00
6.453404E+03	7.005127E-17	0.000000E+00
6.463317E+03	6.984644E-17	0.000000E+00
6.473230E+03	6.963060E-17	0.000000E+00
6.483143E+03	6.940328E-17	0.000000E+00
6.493056E+03	6.916429E-17	0.000000E+00
6.502969E+03	6.891371E-17	0.000000E+00
6.512882E+03	6.865291E-17	0.000000E+00
6.522795E+03	6.838120E-17	0.000000E+00
6.532708E+03	6.809913E-17	0.000000E+00
6.542621E+03	6.780836E-17	0.000000E+00
6.552534E+03	6.750952E-17	0.000000E+00
6.562447E+03	6.720213E-17	0.000000E+00
6.572360E+03	6.688802E-17	0.000000E+00
6.582273E+03	6.656675E-17	0.000000E+00
6.592187E+03	6.624134E-17	0.000000E+00
6.602100E+03	6.591029E-17	0.000000E+00
6.612013E+03	6.557440E-17	0.000000E+00
6.621926E+03	6.523562E-17	0.000000E+00
6.631839E+03	6.489478E-17	0.000000E+00
6.641752E+03	6.455174E-17	0.000000E+00
6.651665E+03	6.420741E-17	0.000000E+00
6.661578E+03	6.386399E-17	0.000000E+00
6.671491E+03	6.352145E-17	0.000000E+00
6.681404E+03	6.318208E-17	0.000000E+00
6.691317E+03	6.284483E-17	0.000000E+00
6.701230E+03	6.251324E-17	0.000000E+00
6.711143E+03	6.218628E-17	0.000000E+00
6.721056E+03	6.186742E-17	0.000000E+00
6.730969E+03	6.155561E-17	0.000000E+00
6.740882E+03	6.125303E-17	0.000000E+00
6.750796E+03	6.096070E-17	0.000000E+00
6.760709E+03	6.067825E-17	0.000000E+00
6.770622E+03	6.040748E-17	0.000000E+00
6.780535E+03	6.014773E-17	0.000000E+00
6.790448E+03	5.990033E-17	0.000000E+00
6.800361E+03	5.966314E-17	0.000000E+00
6.810274E+03	5.943822E-17	0.000000E+00
6.820187E+03	5.922415E-17	0.000000E+00
6.830100E+03	5.902040E-17	0.000000E+00
6.840013E+03	5.882522E-17	0.000000E+00
6.849926E+03	5.863998E-17	0.000000E+00
6.859839E+03	5.846041E-17	0.000000E+00
6.869752E+03	5.828881E-17	0.000000E+00
6.879665E+03	5.812175E-17	0.000000E+00
6.889578E+03	5.795796E-17	0.000000E+00
6.899491E+03	5.779726E-17	0.000000E+00
6.909405E+03	5.763713E-17	0.000000E+00
6.919318E+03	5.747608E-17	0.000000E+00
6.929231E+03	5.731259E-17	0.000000E+00
6.939144E+03	5.714510E-17	0.000000E+00
6.949057E+03	5.697206E-17	0.000000E+00
6.958970E+03	5.679074E-17	0.000000E+00
6.968883E+03	5.660180E-17	0.000000E+00
6.978796E+03	5.640038E-17	0.000000E+00
6.988709E+03	5.618847E-17	0.000000E+00
6.998622E+03	5.596144E-17	0.000000E+00
7.008535E+03	5.572041E-17	0.000000E+00
7.018448E+03	5.546346E-17	0.000000E+00
7.028361E+03	5.519000E-17	0.000000E+00
7.038274E+03	5.490081E-17	0.000000E+00
7.048187E+03	5.459362E-17	0.000000E+00
7.058100E+03	5.426988E-17	0.000000E+00
7.068014E+03	5.392890E-17	0.000000E+00
7.077927E+03	5.357263E-17	0.000000E+00
7.087840E+03	5.320187E-17	0.000000E+00
7.097753E+03	5.281666E-17	0.000000E+00
7.107666E+03	5.241910E-17	0.000000E+00
7.117579E+03	5.200818E-17	0.000000E+00
7.127492E+03	5.158705E-17	0.000000E+00
7.137405E+03	5.115553E-17	0.000000E+00
7.147318E+03	5.071332E-17	0.000000E+00
7.157231E+03	5.026200E-17	0.000000E+00
7.167144E+03	4.980185E-17	0.000000E+00
7.177057E+03	4.933189E-17	0.000000E+00
7.186970E+03	4.885193E-17	0.000000E+00
7.196883E+03	4.836149E-17	0.000000E+00
7.206796E+03	4.785982E-17	0.000000E+00
7.216709E+03	4.734596E-17	0.000000E+00
7.226623E+03	4.681674E-17	0.000000E+00
7.236536E+03	4.627275E-17	0.000000E+00
7.246449E+03	4.571144E-17	0.000000E+00
7.256362E+03	4.513020E-17	0.000000E+00
7.266275E+03	4.452820E-17	0.000000E+00
7.276188E+03	4.390185E-17	0.000000E+00
7.286101E+03	4.324941E-17	0.000000E+00
7.296014E+03	4.256925E-17	0.000000E+00
7.305927E+03	4.185897E-17	0.000000E+00
7.315840E+03	4.111810E-17	0.000000E+00
7.325753E+03	4.034291E-17	0.000000E+00
7.335666E+03	3.953425E-17	0.000000E+00
7.345579E+03	3.868995E-17	0.000000E+00
7.355492E+03	3.781057E-17	0.000000E+00
7.365405E+03	3.689549E-17	0.000000E+00
7.375318E+03	3.594525E-17	0.000000E+00
7.385232E+03	3.496163E-17	0.000000E+00
7.395145E+03	3.394537E-17	0.000000E+00
7.405058E+03	3.290054E-17	0.000000E+00
7.414971E+03	3.182818E-17	0.000000E+00
7.424884E+03	3.073254E-17	0.000000E+00
7.434797E+03	2.961645E-17	0.000000E+00
7.444710E+03	2.848569E-17	0.000000E+00
7.454623E+03	2.734391E-17	0.000000E+00
7.464536E+03	2.619580E-17	0.000000E+00
7.474449E+03	2.504693E-17	0.000000E+00
7.484362E+03	2.390249E-17	0.000000E+00
7.494275E+03	2.276881E-17	0.000000E+00
7.504188E+03	2.165017E-17	0.000000E+00
7.514101E+03	2.055236E-17	0.000000E+00
7.524014E+03	1.948093E-17	0.000000E+00
7.533927E+03	1.844027E-17	0.000000E+00
7.543841E+03	1.743534E-17	0.000000E+00
7.553754E+03	1.646986E-17	0.000000E+00
7.563667E+03	1.554819E-17	0.000000E+00
7.573580E+03	1.467270E-17	0.000000E+00
7.583493E+03	1.384659E-17	0.000000E+00
7.593406E+03	1.307112E-17	0.000000E+00
7.603319E+03	1.234823E-17	0.000000E+00
7.613232E+03	1.167811E-17	0.000000E+00
7.623145E+03	1.106155E-17	0.000000E+00
7.633058E+03	1.049806E-17	0.000000E+00
7.642971E+03	9.987029E-18	0.000000E+00
7.652884E+03	9.527572E-18	0.000000E+00
7.662797E+03	9.118569E-18	0.000000E+00
7.672710E+03	8.758786E-18	0.000000E+00
7.682623E+03	8.446733E-18	0.000000E+00
7.692536E+03	8.181552E-18	0.000000E+00
