#wls	flux	fluxerr
1.586090E+03	1.318970E-15	5.876426E-17
1.625742E+03	1.101928E-15	4.818343E-17
1.665394E+03	9.109929E-16	3.907475E-17
1.705047E+03	7.450108E-16	3.132918E-17
1.744699E+03	6.025069E-16	2.482677E-17
1.784351E+03	4.816625E-16	1.943742E-17
1.824003E+03	3.802783E-16	1.502106E-17
1.863656E+03	2.962729E-16	1.144885E-17
1.903308E+03	2.274339E-16	8.593442E-18
1.942960E+03	1.716433E-16	6.338068E-18
1.982612E+03	1.269352E-16	4.578403E-18
2.022265E+03	9.159284E-17	3.225441E-18
2.061917E+03	6.422346E-17	2.207111E-18
2.101569E+03	4.413391E-17	1.479550E-18
2.141221E+03	3.095646E-17	1.012001E-18
2.180874E+03	2.330682E-17	7.427719E-19
2.220526E+03	1.973516E-17	6.129964E-19
2.260178E+03	1.951634E-17	5.907438E-19
2.299830E+03	2.264462E-17	6.679297E-19
2.339483E+03	3.015153E-17	8.667053E-19
2.379135E+03	4.475098E-17	1.253860E-18
2.418787E+03	7.178217E-17	1.961100E-18
2.458439E+03	1.205692E-16	3.213501E-18
2.498092E+03	2.054017E-16	5.344405E-18
2.537744E+03	3.438622E-16	8.741251E-18
2.577396E+03	5.484217E-16	1.363248E-17
2.617048E+03	8.121880E-16	1.976063E-17
2.656701E+03	1.118563E-15	2.666443E-17
2.696353E+03	1.462624E-15	3.419560E-17
2.736005E+03	1.850956E-15	4.248292E-17
2.775657E+03	2.297411E-15	5.181136E-17
2.815310E+03	2.815512E-15	6.244091E-17
2.854962E+03	3.410657E-15	7.443945E-17
2.894614E+03	4.074788E-15	8.758337E-17
2.934266E+03	4.786840E-15	1.013884E-16
2.973919E+03	5.516616E-15	1.152080E-16
2.983832E+03	5.698242E-15	1.185918E-16
2.993745E+03	5.878434E-15	1.219251E-16
3.003658E+03	6.056732E-15	1.251992E-16
3.013571E+03	6.232999E-15	1.284120E-16
3.023484E+03	6.406748E-15	1.315542E-16
3.033397E+03	6.577763E-15	1.346224E-16
3.043310E+03	6.745902E-15	1.376144E-16
3.053223E+03	6.911206E-15	1.405322E-16
3.063136E+03	7.073719E-15	1.433773E-16
3.073049E+03	7.233962E-15	1.461614E-16
3.082962E+03	7.391991E-15	1.488861E-16
3.092875E+03	7.548475E-15	1.515659E-16
3.102789E+03	7.703962E-15	1.542121E-16
3.112702E+03	7.859743E-15	1.568511E-16
3.122615E+03	8.016337E-15	1.594936E-16
3.132528E+03	8.174996E-15	1.621645E-16
3.142441E+03	8.337073E-15	1.648906E-16
3.152354E+03	8.503818E-15	1.676964E-16
3.162267E+03	8.676184E-15	1.706002E-16
3.172180E+03	8.855923E-15	1.736358E-16
3.182093E+03	9.043923E-15	1.768198E-16
3.192006E+03	9.241480E-15	1.801766E-16
3.201919E+03	9.449419E-15	1.837212E-16
3.211832E+03	9.668763E-15	1.874720E-16
3.221745E+03	9.900146E-15	1.914398E-16
3.231658E+03	1.014398E-14	1.956308E-16
3.241571E+03	1.040021E-14	2.000424E-16
3.251484E+03	1.066881E-14	2.046726E-16
3.261398E+03	1.094927E-14	2.095097E-16
3.271311E+03	1.124044E-14	2.145308E-16
3.281224E+03	1.154116E-14	2.197120E-16
3.291137E+03	1.184941E-14	2.250147E-16
3.301050E+03	1.216306E-14	2.303971E-16
3.310963E+03	1.247905E-14	2.358011E-16
3.320876E+03	1.279388E-14	2.411611E-16
3.330789E+03	1.310349E-14	2.464009E-16
3.340702E+03	1.340306E-14	2.514314E-16
3.350615E+03	1.368707E-14	2.561506E-16
3.360528E+03	1.394897E-14	2.604389E-16
3.370441E+03	1.418173E-14	2.641686E-16
3.380354E+03	1.437679E-14	2.671843E-16
3.390267E+03	1.452556E-14	2.693320E-16
3.400180E+03	1.461878E-14	2.704466E-16
3.410093E+03	1.464889E-14	2.703952E-16
3.420007E+03	1.460852E-14	2.690501E-16
3.429920E+03	1.449225E-14	2.663205E-16
3.439833E+03	1.430262E-14	2.622618E-16
3.449746E+03	1.403986E-14	2.568868E-16
3.459659E+03	1.369967E-14	2.501252E-16
3.469572E+03	1.328400E-14	2.420214E-16
3.479485E+03	1.279692E-14	2.326568E-16
3.489398E+03	1.224596E-14	2.221753E-16
3.499311E+03	1.164734E-14	2.108763E-16
3.509224E+03	1.101940E-14	1.990955E-16
3.519137E+03	1.038014E-14	1.871598E-16
3.529050E+03	9.750931E-15	1.754540E-16
3.538963E+03	9.150231E-15	1.643078E-16
3.548876E+03	8.592858E-15	1.539828E-16
3.558789E+03	8.092094E-15	1.447114E-16
3.568702E+03	7.657428E-15	1.366563E-16
3.578616E+03	7.295039E-15	1.299200E-16
3.588529E+03	7.007811E-15	1.245454E-16
3.598442E+03	6.797302E-15	1.205516E-16
3.608355E+03	6.664553E-15	1.179485E-16
3.618268E+03	6.609531E-15	1.167265E-16
3.628181E+03	6.632762E-15	1.168859E-16
3.638094E+03	6.735449E-15	1.184388E-16
3.648007E+03	6.916431E-15	1.213554E-16
3.657920E+03	7.174887E-15	1.256119E-16
3.667833E+03	7.510442E-15	1.311922E-16
3.677746E+03	7.921692E-15	1.380622E-16
3.687659E+03	8.406340E-15	1.461723E-16
3.697572E+03	8.961449E-15	1.554618E-16
3.707485E+03	9.582567E-15	1.658442E-16
3.717398E+03	1.026363E-14	1.772054E-16
3.727311E+03	1.099704E-14	1.894061E-16
3.737225E+03	1.177494E-14	2.023032E-16
3.747138E+03	1.258842E-14	2.157371E-16
3.757051E+03	1.342767E-14	2.295337E-16
3.766964E+03	1.428279E-14	2.435198E-16
3.776877E+03	1.514318E-14	2.575110E-16
3.786790E+03	1.599842E-14	2.713285E-16
3.796703E+03	1.683707E-14	2.847779E-16
3.806616E+03	1.764748E-14	2.976635E-16
3.816529E+03	1.841871E-14	3.098041E-16
3.826442E+03	1.913907E-14	3.210075E-16
3.836355E+03	1.979773E-14	3.310990E-16
3.846268E+03	2.038585E-14	3.399391E-16
3.856181E+03	2.089604E-14	3.474146E-16
3.866094E+03	2.132402E-14	3.534653E-16
3.876007E+03	2.166879E-14	3.580870E-16
3.885920E+03	2.193305E-14	3.613364E-16
3.895834E+03	2.212285E-14	3.633252E-16
3.905747E+03	2.224668E-14	3.642042E-16
3.915660E+03	2.231478E-14	3.641513E-16
3.925573E+03	2.233852E-14	3.633606E-16
3.935486E+03	2.232872E-14	3.620151E-16
3.945399E+03	2.229312E-14	3.602461E-16
3.955312E+03	2.223779E-14	3.581563E-16
3.965225E+03	2.216708E-14	3.558198E-16
3.975138E+03	2.207858E-14	3.532012E-16
3.985051E+03	2.196792E-14	3.502347E-16
3.994964E+03	2.182995E-14	3.468435E-16
4.004877E+03	2.165361E-14	3.428579E-16
4.014790E+03	2.142814E-14	3.381154E-16
4.024703E+03	2.114538E-14	3.324971E-16
4.034616E+03	2.080041E-14	3.259365E-16
4.044529E+03	2.039187E-14	3.184235E-16
4.054443E+03	1.992213E-14	3.100066E-16
4.064356E+03	1.939674E-14	3.007825E-16
4.074269E+03	1.882425E-14	2.908935E-16
4.084182E+03	1.821516E-14	2.805095E-16
4.094095E+03	1.757944E-14	2.697898E-16
4.104008E+03	1.692825E-14	2.589098E-16
4.113921E+03	1.627306E-14	2.480469E-16
4.123834E+03	1.562479E-14	2.373674E-16
4.133747E+03	1.499404E-14	2.270310E-16
4.143660E+03	1.439125E-14	2.171919E-16
4.153573E+03	1.382675E-14	2.080012E-16
4.163486E+03	1.331001E-14	1.995949E-16
4.173399E+03	1.284933E-14	1.920896E-16
4.183312E+03	1.245160E-14	1.855800E-16
4.193225E+03	1.212261E-14	1.801431E-16
4.203138E+03	1.186641E-14	1.758296E-16
4.213052E+03	1.168336E-14	1.726355E-16
4.222965E+03	1.157265E-14	1.705402E-16
4.232878E+03	1.153175E-14	1.694982E-16
4.242791E+03	1.155351E-14	1.693976E-16
4.252704E+03	1.162927E-14	1.701060E-16
4.262617E+03	1.174899E-14	1.714723E-16
4.272530E+03	1.189691E-14	1.732638E-16
4.282443E+03	1.205569E-14	1.752270E-16
4.292356E+03	1.220938E-14	1.771306E-16
4.302269E+03	1.234387E-14	1.787720E-16
4.312182E+03	1.244812E-14	1.799941E-16
4.322095E+03	1.251476E-14	1.806936E-16
4.332008E+03	1.254338E-14	1.808675E-16
4.341921E+03	1.254023E-14	1.806085E-16
4.351834E+03	1.251546E-14	1.800643E-16
4.361747E+03	1.247982E-14	1.793902E-16
4.371661E+03	1.244498E-14	1.787529E-16
4.381574E+03	1.242120E-14	1.782979E-16
4.391487E+03	1.241355E-14	1.780966E-16
4.401400E+03	1.242568E-14	1.781993E-16
4.411313E+03	1.245975E-14	1.786357E-16
4.421226E+03	1.251412E-14	1.793804E-16
4.431139E+03	1.258543E-14	1.803844E-16
4.441052E+03	1.266860E-14	1.815735E-16
4.450965E+03	1.275644E-14	1.828437E-16
4.460878E+03	1.283899E-14	1.840510E-16
4.470791E+03	1.290615E-14	1.850496E-16
4.480704E+03	1.295087E-14	1.857372E-16
4.490617E+03	1.296758E-14	1.860322E-16
4.500530E+03	1.295196E-14	1.858711E-16
4.510443E+03	1.290216E-14	1.852256E-16
4.520356E+03	1.281768E-14	1.840867E-16
4.530270E+03	1.269928E-14	1.824632E-16
4.540183E+03	1.255025E-14	1.804007E-16
4.550096E+03	1.237449E-14	1.779533E-16
4.560009E+03	1.217707E-14	1.751927E-16
4.569922E+03	1.196529E-14	1.722221E-16
4.579835E+03	1.174680E-14	1.691505E-16
4.589748E+03	1.152853E-14	1.660770E-16
4.599661E+03	1.131740E-14	1.631004E-16
4.609574E+03	1.111890E-14	1.602995E-16
4.619487E+03	1.093784E-14	1.577431E-16
4.629400E+03	1.077588E-14	1.554550E-16
4.639313E+03	1.063363E-14	1.534439E-16
4.649226E+03	1.051050E-14	1.517009E-16
4.659139E+03	1.040275E-14	1.501720E-16
4.669052E+03	1.030611E-14	1.487951E-16
4.678965E+03	1.021582E-14	1.475015E-16
4.688879E+03	1.012585E-14	1.462037E-16
4.698792E+03	1.003056E-14	1.448200E-16
4.708705E+03	9.925365E-15	1.432840E-16
4.718618E+03	9.808175E-15	1.415656E-16
4.728531E+03	9.677684E-15	1.396460E-16
4.738444E+03	9.534970E-15	1.375410E-16
4.748357E+03	9.384470E-15	1.353149E-16
4.758270E+03	9.231516E-15	1.330449E-16
4.768183E+03	9.081401E-15	1.308076E-16
4.778096E+03	8.938910E-15	1.286722E-16
4.788009E+03	8.807876E-15	1.266938E-16
4.797922E+03	8.691263E-15	1.249151E-16
4.807835E+03	8.589895E-15	1.233478E-16
4.817748E+03	8.503696E-15	1.219904E-16
4.827661E+03	8.432228E-15	1.208362E-16
4.837574E+03	8.374221E-15	1.198668E-16
4.847488E+03	8.328186E-15	1.190603E-16
4.857401E+03	8.293379E-15	1.184058E-16
4.867314E+03	8.269683E-15	1.179010E-16
4.877227E+03	8.257955E-15	1.175578E-16
4.887140E+03	8.259413E-15	1.173929E-16
4.897053E+03	8.275212E-15	1.174218E-16
4.906966E+03	8.307042E-15	1.176676E-16
4.916879E+03	8.356303E-15	1.181491E-16
4.926792E+03	8.422996E-15	1.188650E-16
4.936705E+03	8.506717E-15	1.198082E-16
4.946618E+03	8.606855E-15	1.209687E-16
4.956531E+03	8.720898E-15	1.223100E-16
4.966444E+03	8.846236E-15	1.237942E-16
4.976357E+03	8.979793E-15	1.253775E-16
4.986270E+03	9.117530E-15	1.270029E-16
4.996183E+03	9.255460E-15	1.286147E-16
5.006097E+03	9.389718E-15	1.301596E-16
5.016010E+03	9.516504E-15	1.315855E-16
5.025923E+03	9.632377E-15	1.328463E-16
5.035836E+03	9.734189E-15	1.339001E-16
5.045749E+03	9.818400E-15	1.347005E-16
5.055662E+03	9.881754E-15	1.352054E-16
5.065575E+03	9.921272E-15	1.353772E-16
5.075488E+03	9.933291E-15	1.351693E-16
5.085401E+03	9.914903E-15	1.345463E-16
5.095314E+03	9.863717E-15	1.334801E-16
5.105227E+03	9.779252E-15	1.319688E-16
5.115140E+03	9.662074E-15	1.300246E-16
5.125053E+03	9.514983E-15	1.276897E-16
5.134966E+03	9.344219E-15	1.250517E-16
5.144879E+03	9.157402E-15	1.222157E-16
5.154792E+03	8.962710E-15	1.192932E-16
5.164706E+03	8.768808E-15	1.164005E-16
5.174619E+03	8.584189E-15	1.136506E-16
5.184532E+03	8.415350E-15	1.111289E-16
5.194445E+03	8.266430E-15	1.088889E-16
5.204358E+03	8.140063E-15	1.069635E-16
5.214271E+03	8.037301E-15	1.053651E-16
5.224184E+03	7.955800E-15	1.040613E-16
5.234097E+03	7.892464E-15	1.030105E-16
5.244010E+03	7.843828E-15	1.021666E-16
5.253923E+03	7.805641E-15	1.014740E-16
5.263836E+03	7.773804E-15	1.008794E-16
5.273749E+03	7.745252E-15	1.003435E-16
5.283662E+03	7.717824E-15	9.983879E-17
5.293575E+03	7.690546E-15	9.935344E-17
5.303488E+03	7.663540E-15	9.888972E-17
5.313401E+03	7.638707E-15	9.847284E-17
5.323315E+03	7.618458E-15	9.813447E-17
5.333228E+03	7.605431E-15	9.790900E-17
5.343141E+03	7.601281E-15	9.781734E-17
5.353054E+03	7.607278E-15	9.787523E-17
5.362967E+03	7.623274E-15	9.808027E-17
5.372880E+03	7.646086E-15	9.839110E-17
5.382793E+03	7.674389E-15	9.879017E-17
5.392706E+03	7.708462E-15	9.928055E-17
5.402619E+03	7.745835E-15	9.982996E-17
5.412532E+03	7.783353E-15	1.003972E-16
5.422445E+03	7.818501E-15	1.009493E-16
5.432358E+03	7.848718E-15	1.014524E-16
5.442271E+03	7.871713E-15	1.018760E-16
5.452184E+03	7.886663E-15	1.022084E-16
5.462097E+03	7.894213E-15	1.024568E-16
5.472010E+03	7.896070E-15	1.026422E-16
5.481924E+03	7.893742E-15	1.027832E-16
5.491837E+03	7.889137E-15	1.029036E-16
5.501750E+03	7.883782E-15	1.030224E-16
5.511663E+03	7.878779E-15	1.031533E-16
5.521576E+03	7.873972E-15	1.032935E-16
5.531489E+03	7.868795E-15	1.034349E-16
5.541402E+03	7.862140E-15	1.035622E-16
5.551315E+03	7.852176E-15	1.036505E-16
5.561228E+03	7.836771E-15	1.036706E-16
5.571141E+03	7.814404E-15	1.036014E-16
5.581054E+03	7.784119E-15	1.034288E-16
5.590967E+03	7.745552E-15	1.031468E-16
5.600880E+03	7.699239E-15	1.027613E-16
5.610793E+03	7.646454E-15	1.022880E-16
5.620706E+03	7.589315E-15	1.017544E-16
5.630619E+03	7.530346E-15	1.011935E-16
5.640533E+03	7.472089E-15	1.006389E-16
5.650446E+03	7.417260E-15	1.001272E-16
5.660359E+03	7.368375E-15	9.969219E-17
5.670272E+03	7.327097E-15	9.935680E-17
5.680185E+03	7.294555E-15	9.913682E-17
5.690098E+03	7.271706E-15	9.904584E-17
5.700011E+03	7.257496E-15	9.907015E-17
5.709924E+03	7.250462E-15	9.919036E-17
5.719837E+03	7.249086E-15	9.938617E-17
5.729750E+03	7.250435E-15	9.961764E-17
5.739663E+03	7.251408E-15	9.984224E-17
5.749576E+03	7.249100E-15	1.000198E-16
5.759489E+03	7.239820E-15	1.000989E-16
5.769402E+03	7.219917E-15	1.000285E-16
5.779315E+03	7.186763E-15	9.977114E-17
5.789228E+03	7.138034E-15	9.929346E-17
5.799142E+03	7.072291E-15	9.857423E-17
5.809055E+03	6.989367E-15	9.760987E-17
5.818968E+03	6.890220E-15	9.641252E-17
5.828881E+03	6.776919E-15	9.501008E-17
5.838794E+03	6.651849E-15	9.343515E-17
5.848707E+03	6.518063E-15	9.172997E-17
5.858620E+03	6.378524E-15	8.993589E-17
5.868533E+03	6.235702E-15	8.808762E-17
5.878446E+03	6.091558E-15	8.621290E-17
5.888359E+03	5.947124E-15	8.432652E-17
5.898272E+03	5.802857E-15	8.243522E-17
5.908185E+03	5.658657E-15	8.053782E-17
5.918098E+03	5.513864E-15	7.862519E-17
5.928011E+03	5.367601E-15	7.668493E-17
5.937924E+03	5.219725E-15	7.471511E-17
5.947837E+03	5.069969E-15	7.271194E-17
5.957751E+03	4.919079E-15	7.068618E-17
5.967664E+03	4.769094E-15	6.866719E-17
5.977577E+03	4.622748E-15	6.669461E-17
5.987490E+03	4.483160E-15	6.481393E-17
5.997403E+03	4.354200E-15	6.308190E-17
6.007316E+03	4.239878E-15	6.155776E-17
6.017229E+03	4.143631E-15	6.029295E-17
6.027142E+03	4.068176E-15	5.932891E-17
6.037055E+03	4.015714E-15	5.870000E-17
6.046968E+03	3.988019E-15	5.843471E-17
6.056881E+03	3.984559E-15	5.852808E-17
6.066794E+03	4.004411E-15	5.896949E-17
6.076707E+03	4.046467E-15	5.974559E-17
6.086620E+03	4.107984E-15	6.081891E-17
6.096533E+03	4.185821E-15	6.214576E-17
6.106446E+03	4.277007E-15	6.368471E-17
6.116360E+03	4.378270E-15	6.538943E-17
6.126273E+03	4.486202E-15	6.721115E-17
6.136186E+03	4.597854E-15	6.910743E-17
6.146099E+03	4.710546E-15	7.103946E-17
6.156012E+03	4.821899E-15	7.297246E-17
6.165925E+03	4.929682E-15	7.487342E-17
6.175838E+03	5.031982E-15	7.671372E-17
6.185751E+03	5.127160E-15	7.846844E-17
6.195664E+03	5.213585E-15	8.011230E-17
6.205577E+03	5.289847E-15	8.162276E-17
6.215490E+03	5.354576E-15	8.297679E-17
6.225403E+03	5.406618E-15	8.415414E-17
6.235316E+03	5.445043E-15	8.513746E-17
6.245229E+03	5.469086E-15	8.591162E-17
6.255142E+03	5.478359E-15	8.646695E-17
6.265055E+03	5.473199E-15	8.680503E-17
6.274969E+03	5.454106E-15	8.692998E-17
6.284882E+03	5.422159E-15	8.685513E-17
6.294795E+03	5.379422E-15	8.660999E-17
6.304708E+03	5.328142E-15	8.622754E-17
6.314621E+03	5.271166E-15	8.575122E-17
6.324534E+03	5.212218E-15	8.523977E-17
6.334447E+03	5.155011E-15	8.475298E-17
6.344360E+03	5.102796E-15	8.434436E-17
6.354273E+03	5.057609E-15	8.404844E-17
6.364186E+03	5.017960E-15	8.384157E-17
6.374099E+03	4.981401E-15	8.368356E-17
6.384012E+03	4.946206E-15	8.354558E-17
6.393925E+03	4.911010E-15	8.340429E-17
6.403838E+03	4.874812E-15	8.324210E-17
6.413751E+03	4.837234E-15	8.305177E-17
6.423664E+03	4.798322E-15	8.283325E-17
6.433578E+03	4.758073E-15	8.258565E-17
6.443491E+03	4.716899E-15	8.231537E-17
6.453404E+03	4.675209E-15	8.202894E-17
6.463317E+03	4.633390E-15	8.173264E-17
6.473230E+03	4.591806E-15	8.143255E-17
6.483143E+03	4.550803E-15	8.113453E-17
6.493056E+03	4.510765E-15	8.084534E-17
6.502969E+03	4.471853E-15	8.056784E-17
6.512882E+03	4.434352E-15	8.030724E-17
6.522795E+03	4.398441E-15	8.006692E-17
6.532708E+03	4.364092E-15	7.984658E-17
6.542621E+03	4.331398E-15	7.964810E-17
6.552534E+03	4.300427E-15	7.947300E-17
6.562447E+03	4.270923E-15	7.931680E-17
6.572360E+03	4.242830E-15	7.917865E-17
6.582273E+03	4.216022E-15	7.905639E-17
6.592187E+03	4.190381E-15	7.894795E-17
6.602100E+03	4.165582E-15	7.884737E-17
6.612013E+03	4.141530E-15	7.875288E-17
6.621926E+03	4.118043E-15	7.866108E-17
6.631839E+03	4.094960E-15	7.856890E-17
6.641752E+03	4.072141E-15	7.847359E-17
6.651665E+03	4.049361E-15	7.837076E-17
6.661578E+03	4.026558E-15	7.825915E-17
6.671491E+03	4.003636E-15	7.813675E-17
6.681404E+03	3.980525E-15	7.800210E-17
6.691317E+03	3.957046E-15	7.785158E-17
6.701230E+03	3.933420E-15	7.768938E-17
6.711143E+03	3.909504E-15	7.751260E-17
6.721056E+03	3.885547E-15	7.732609E-17
6.730969E+03	3.861604E-15	7.713092E-17
6.740882E+03	3.837799E-15	7.692953E-17
6.750796E+03	3.814266E-15	7.672468E-17
6.760709E+03	3.791147E-15	7.651926E-17
6.770622E+03	3.768566E-15	7.631586E-17
6.780535E+03	3.746572E-15	7.611563E-17
6.790448E+03	3.725409E-15	7.592363E-17
6.800361E+03	3.704952E-15	7.573750E-17
6.810274E+03	3.685403E-15	7.556153E-17
6.820187E+03	3.666789E-15	7.539646E-17
6.830100E+03	3.649034E-15	7.524092E-17
6.840013E+03	3.632028E-15	7.509281E-17
6.849926E+03	3.615925E-15	7.495547E-17
6.859839E+03	3.600415E-15	7.482265E-17
6.869752E+03	3.585663E-15	7.469787E-17
6.879665E+03	3.571541E-15	7.457864E-17
6.889578E+03	3.557950E-15	7.446303E-17
6.899491E+03	3.544916E-15	7.435165E-17
6.909405E+03	3.532375E-15	7.424334E-17
6.919318E+03	3.520211E-15	7.413569E-17
6.929231E+03	3.508347E-15	7.402724E-17
6.939144E+03	3.496743E-15	7.391719E-17
6.949057E+03	3.485185E-15	7.380109E-17
6.958970E+03	3.473423E-15	7.367370E-17
6.968883E+03	3.461462E-15	7.353520E-17
6.978796E+03	3.448908E-15	7.337722E-17
6.988709E+03	3.435827E-15	7.320120E-17
6.998622E+03	3.421930E-15	7.300102E-17
7.008535E+03	3.407202E-15	7.277638E-17
7.018448E+03	3.391485E-15	7.252393E-17
7.028361E+03	3.374749E-15	7.224305E-17
7.038274E+03	3.356968E-15	7.193327E-17
7.048187E+03	3.337986E-15	7.159127E-17
7.058100E+03	3.317921E-15	7.121967E-17
7.068014E+03	3.296711E-15	7.081723E-17
7.077927E+03	3.274504E-15	7.038725E-17
7.087840E+03	3.251467E-15	6.993340E-17
7.097753E+03	3.227706E-15	6.945814E-17
7.107666E+03	3.203528E-15	6.896821E-17
7.117579E+03	3.179084E-15	6.846705E-17
7.127492E+03	3.154732E-15	6.796256E-17
7.137405E+03	3.130651E-15	6.745877E-17
7.147318E+03	3.107021E-15	6.695977E-17
7.157231E+03	3.084063E-15	6.647052E-17
7.167144E+03	3.061924E-15	6.599439E-17
7.177057E+03	3.040658E-15	6.553270E-17
7.186970E+03	3.020233E-15	6.508497E-17
7.196883E+03	3.000598E-15	6.465029E-17
7.206796E+03	2.981700E-15	6.422770E-17
7.216709E+03	2.963374E-15	6.381379E-17
7.226623E+03	2.945350E-15	6.340294E-17
7.236536E+03	2.927649E-15	6.299579E-17
7.246449E+03	2.910097E-15	6.258878E-17
7.256362E+03	2.892580E-15	6.217963E-17
7.266275E+03	2.875178E-15	6.177025E-17
7.276188E+03	2.857821E-15	6.135934E-17
7.286101E+03	2.840643E-15	6.094994E-17
7.296014E+03	2.823849E-15	6.054666E-17
7.305927E+03	2.807627E-15	6.015373E-17
7.315840E+03	2.792357E-15	5.977941E-17
7.325753E+03	2.778212E-15	5.942758E-17
7.335666E+03	2.765597E-15	5.910701E-17
7.345579E+03	2.754709E-15	5.882205E-17
7.355492E+03	2.745900E-15	5.858030E-17
7.365405E+03	2.739146E-15	5.838129E-17
7.375318E+03	2.734468E-15	5.822558E-17
7.385232E+03	2.731941E-15	5.811483E-17
7.395145E+03	2.731326E-15	5.804401E-17
7.405058E+03	2.732628E-15	5.801333E-17
7.414971E+03	2.735581E-15	5.801722E-17
7.424884E+03	2.740003E-15	5.805192E-17
7.434797E+03	2.745569E-15	5.811071E-17
7.444710E+03	2.752219E-15	5.819247E-17
7.454623E+03	2.759446E-15	5.828666E-17
7.464536E+03	2.766834E-15	5.838468E-17
7.474449E+03	2.774033E-15	5.847945E-17
7.484362E+03	2.780354E-15	5.855667E-17
7.494275E+03	2.785244E-15	5.860509E-17
7.504188E+03	2.787977E-15	5.860977E-17
7.514101E+03	2.787927E-15	5.855800E-17
7.524014E+03	2.784559E-15	5.843894E-17
7.533927E+03	2.777307E-15	5.824120E-17
7.543841E+03	2.765663E-15	5.795457E-17
7.553754E+03	2.749101E-15	5.756850E-17
7.563667E+03	2.727397E-15	5.707876E-17
7.573580E+03	2.700033E-15	5.647491E-17
7.583493E+03	2.666862E-15	5.575428E-17
7.593406E+03	2.627673E-15	5.491276E-17
7.603319E+03	2.582574E-15	5.395287E-17
7.613232E+03	2.531591E-15	5.287535E-17
7.623145E+03	2.475195E-15	5.169010E-17
7.633058E+03	2.413860E-15	5.040703E-17
7.642971E+03	2.348240E-15	4.903975E-17
7.652884E+03	2.279121E-15	4.760446E-17
7.662797E+03	2.207470E-15	4.612112E-17
7.672710E+03	2.134265E-15	4.460986E-17
7.682623E+03	2.060456E-15	4.309022E-17
7.692536E+03	1.987284E-15	4.158778E-17
