#wls	flux	fluxerr
1.586090E+03	2.046933E-15	7.477769E-17
1.625742E+03	1.775517E-15	6.355203E-17
1.665394E+03	1.517219E-15	5.318311E-17
1.705047E+03	1.276766E-15	4.380720E-17
1.744699E+03	1.057763E-15	3.550795E-17
1.784351E+03	8.631376E-16	2.833490E-17
1.824003E+03	6.940691E-16	2.227212E-17
1.863656E+03	5.509090E-16	1.727357E-17
1.903308E+03	4.326993E-16	1.325182E-17
1.942960E+03	3.375756E-16	1.009515E-17
1.982612E+03	2.628944E-16	7.674797E-18
2.022265E+03	2.056182E-16	5.858872E-18
2.061917E+03	1.627633E-16	4.526229E-18
2.101569E+03	1.319706E-16	3.581701E-18
2.141221E+03	1.116276E-16	2.957137E-18
2.180874E+03	1.004447E-16	2.597936E-18
2.220526E+03	9.768214E-17	2.467730E-18
2.260178E+03	1.036858E-16	2.559973E-18
2.299830E+03	1.197706E-16	2.892223E-18
2.339483E+03	1.485818E-16	3.512609E-18
2.379135E+03	1.947384E-16	4.512368E-18
2.418787E+03	2.648453E-16	6.022993E-18
2.458439E+03	3.669061E-16	8.200490E-18
2.498092E+03	5.085891E-16	1.118639E-17
2.537744E+03	6.940715E-16	1.504200E-17
2.577396E+03	9.204222E-16	1.967737E-17
2.617048E+03	1.176334E-15	2.483396E-17
2.656701E+03	1.447860E-15	3.021256E-17
2.696353E+03	1.725336E-15	3.561576E-17
2.736005E+03	2.004306E-15	4.095955E-17
2.775657E+03	2.283862E-15	4.623325E-17
2.815310E+03	2.563279E-15	5.142839E-17
2.854962E+03	2.838868E-15	5.647640E-17
2.894614E+03	3.103594E-15	6.124381E-17
2.934266E+03	3.348560E-15	6.556410E-17
2.973919E+03	3.565761E-15	6.929260E-17
2.983832E+03	3.615004E-15	7.011995E-17
2.993745E+03	3.662208E-15	7.090557E-17
3.003658E+03	3.707138E-15	7.164516E-17
3.013571E+03	3.750015E-15	7.234324E-17
3.023484E+03	3.790734E-15	7.299805E-17
3.033397E+03	3.829329E-15	7.361048E-17
3.043310E+03	3.865863E-15	7.418201E-17
3.053223E+03	3.900627E-15	7.471845E-17
3.063136E+03	3.933632E-15	7.522022E-17
3.073049E+03	3.965185E-15	7.569339E-17
3.082962E+03	3.995386E-15	7.614006E-17
3.092875E+03	4.024552E-15	7.656645E-17
3.102789E+03	4.053053E-15	7.697972E-17
3.112702E+03	4.081226E-15	7.738640E-17
3.122615E+03	4.109383E-15	7.779247E-17
3.132528E+03	4.138211E-15	7.821098E-17
3.142441E+03	4.168039E-15	7.864817E-17
3.152354E+03	4.199565E-15	7.911713E-17
3.162267E+03	4.233359E-15	7.962855E-17
3.172180E+03	4.270028E-15	8.019369E-17
3.182093E+03	4.310202E-15	8.082424E-17
3.192006E+03	4.354686E-15	8.153505E-17
3.201919E+03	4.404064E-15	8.233678E-17
3.211832E+03	4.459000E-15	8.324154E-17
3.221745E+03	4.520239E-15	8.426267E-17
3.231658E+03	4.588519E-15	8.541338E-17
3.241571E+03	4.664418E-15	8.670376E-17
3.251484E+03	4.748654E-15	8.814652E-17
3.261398E+03	4.841855E-15	8.975261E-17
3.271311E+03	4.944708E-15	9.153400E-17
3.281224E+03	5.057729E-15	9.349946E-17
3.291137E+03	5.181485E-15	9.565867E-17
3.301050E+03	5.316673E-15	9.802364E-17
3.310963E+03	5.463646E-15	1.006000E-16
3.320876E+03	5.622950E-15	1.033968E-16
3.330789E+03	5.795085E-15	1.064224E-16
3.340702E+03	5.980245E-15	1.096794E-16
3.350615E+03	6.178864E-15	1.131746E-16
3.360528E+03	6.390947E-15	1.169072E-16
3.370441E+03	6.616527E-15	1.208768E-16
3.380354E+03	6.855563E-15	1.250816E-16
3.390267E+03	7.107635E-15	1.295129E-16
3.400180E+03	7.372155E-15	1.341589E-16
3.410093E+03	7.648051E-15	1.389994E-16
3.420007E+03	7.934173E-15	1.440124E-16
3.429920E+03	8.228803E-15	1.491661E-16
3.439833E+03	8.529802E-15	1.544210E-16
3.449746E+03	8.834916E-15	1.597357E-16
3.459659E+03	9.141473E-15	1.650617E-16
3.469572E+03	9.446700E-15	1.703487E-16
3.479485E+03	9.747668E-15	1.755440E-16
3.489398E+03	1.004110E-14	1.805888E-16
3.499311E+03	1.032364E-14	1.854233E-16
3.509224E+03	1.059194E-14	1.899880E-16
3.519137E+03	1.084276E-14	1.942258E-16
3.529050E+03	1.107324E-14	1.980868E-16
3.538963E+03	1.128111E-14	2.015320E-16
3.548876E+03	1.146469E-14	2.045327E-16
3.558789E+03	1.162305E-14	2.070740E-16
3.568702E+03	1.175637E-14	2.091602E-16
3.578616E+03	1.186532E-14	2.108049E-16
3.588529E+03	1.195170E-14	2.120416E-16
3.598442E+03	1.201856E-14	2.129252E-16
3.608355E+03	1.206927E-14	2.135168E-16
3.618268E+03	1.210800E-14	2.138906E-16
3.628181E+03	1.213919E-14	2.141260E-16
3.638094E+03	1.216766E-14	2.143075E-16
3.648007E+03	1.219813E-14	2.145186E-16
3.657920E+03	1.223522E-14	2.148397E-16
3.667833E+03	1.228379E-14	2.153554E-16
3.677746E+03	1.234797E-14	2.161364E-16
3.687659E+03	1.243197E-14	2.172548E-16
3.697572E+03	1.253944E-14	2.187723E-16
3.707485E+03	1.267375E-14	2.207453E-16
3.717398E+03	1.283769E-14	2.232196E-16
3.727311E+03	1.303357E-14	2.262320E-16
3.737225E+03	1.326336E-14	2.298135E-16
3.747138E+03	1.352825E-14	2.339811E-16
3.757051E+03	1.382887E-14	2.387417E-16
3.766964E+03	1.416493E-14	2.440867E-16
3.776877E+03	1.453584E-14	2.500014E-16
3.786790E+03	1.493971E-14	2.564496E-16
3.796703E+03	1.537417E-14	2.633865E-16
3.806616E+03	1.583558E-14	2.707461E-16
3.816529E+03	1.631992E-14	2.784562E-16
3.826442E+03	1.682173E-14	2.864208E-16
3.836355E+03	1.733541E-14	2.945419E-16
3.846268E+03	1.785437E-14	3.027060E-16
3.856181E+03	1.837157E-14	3.107923E-16
3.866094E+03	1.887985E-14	3.186797E-16
3.876007E+03	1.937207E-14	3.262483E-16
3.885920E+03	1.984135E-14	3.333837E-16
3.895834E+03	2.028112E-14	3.399781E-16
3.905747E+03	2.068560E-14	3.459375E-16
3.915660E+03	2.105021E-14	3.511901E-16
3.925573E+03	2.137135E-14	3.556799E-16
3.935486E+03	2.164606E-14	3.593635E-16
3.945399E+03	2.187346E-14	3.622318E-16
3.955312E+03	2.205333E-14	3.642875E-16
3.965225E+03	2.218676E-14	3.655546E-16
3.975138E+03	2.227549E-14	3.660680E-16
3.985051E+03	2.232240E-14	3.658812E-16
3.994964E+03	2.233119E-14	3.650606E-16
4.004877E+03	2.230554E-14	3.636716E-16
4.014790E+03	2.224970E-14	3.617887E-16
4.024703E+03	2.216788E-14	3.594848E-16
4.034616E+03	2.206440E-14	3.568341E-16
4.044529E+03	2.194321E-14	3.539038E-16
4.054443E+03	2.180819E-14	3.507595E-16
4.064356E+03	2.166264E-14	3.474570E-16
4.074269E+03	2.150953E-14	3.440460E-16
4.084182E+03	2.135154E-14	3.405711E-16
4.094095E+03	2.119096E-14	3.370704E-16
4.104008E+03	2.102935E-14	3.335698E-16
4.113921E+03	2.086843E-14	3.300976E-16
4.123834E+03	2.070911E-14	3.266688E-16
4.133747E+03	2.055235E-14	3.232994E-16
4.143660E+03	2.039891E-14	3.200017E-16
4.153573E+03	2.024918E-14	3.167823E-16
4.163486E+03	2.010343E-14	3.136458E-16
4.173399E+03	1.996194E-14	3.105971E-16
4.183312E+03	1.982474E-14	3.076367E-16
4.193225E+03	1.969190E-14	3.047662E-16
4.203138E+03	1.956333E-14	3.019844E-16
4.213052E+03	1.943866E-14	2.992861E-16
4.222965E+03	1.931721E-14	2.966612E-16
4.232878E+03	1.919869E-14	2.941057E-16
4.242791E+03	1.908197E-14	2.916027E-16
4.252704E+03	1.896597E-14	2.891365E-16
4.262617E+03	1.884908E-14	2.866831E-16
4.272530E+03	1.872986E-14	2.842218E-16
4.282443E+03	1.860645E-14	2.817251E-16
4.292356E+03	1.847692E-14	2.791652E-16
4.302269E+03	1.833969E-14	2.765190E-16
4.312182E+03	1.819362E-14	2.737697E-16
4.322095E+03	1.803922E-14	2.709255E-16
4.332008E+03	1.787858E-14	2.680175E-16
4.341921E+03	1.771651E-14	2.651180E-16
4.351834E+03	1.755947E-14	2.623227E-16
4.361747E+03	1.741407E-14	2.597293E-16
4.371661E+03	1.728706E-14	2.574370E-16
4.381574E+03	1.718443E-14	2.555331E-16
4.391487E+03	1.711129E-14	2.540913E-16
4.401400E+03	1.707226E-14	2.531778E-16
4.411313E+03	1.707063E-14	2.528382E-16
4.421226E+03	1.710888E-14	2.531058E-16
4.431139E+03	1.718816E-14	2.539947E-16
4.441052E+03	1.730811E-14	2.554961E-16
4.450965E+03	1.746506E-14	2.575533E-16
4.460878E+03	1.765252E-14	2.600683E-16
4.470791E+03	1.786330E-14	2.629329E-16
4.480704E+03	1.808889E-14	2.660204E-16
4.490617E+03	1.832044E-14	2.691990E-16
4.500530E+03	1.854896E-14	2.723358E-16
4.510443E+03	1.876530E-14	2.752955E-16
4.520356E+03	1.896037E-14	2.779446E-16
4.530270E+03	1.912577E-14	2.801594E-16
4.540183E+03	1.925408E-14	2.818313E-16
4.550096E+03	1.933878E-14	2.828648E-16
4.560009E+03	1.937438E-14	2.831800E-16
4.569922E+03	1.935753E-14	2.827284E-16
4.579835E+03	1.928622E-14	2.814810E-16
4.589748E+03	1.915983E-14	2.794295E-16
4.599661E+03	1.897987E-14	2.765967E-16
4.609574E+03	1.874928E-14	2.730262E-16
4.619487E+03	1.847220E-14	2.687792E-16
4.629400E+03	1.815442E-14	2.639406E-16
4.639313E+03	1.780207E-14	2.586004E-16
4.649226E+03	1.742216E-14	2.528613E-16
4.659139E+03	1.702183E-14	2.468275E-16
4.669052E+03	1.660833E-14	2.406047E-16
4.678965E+03	1.618838E-14	2.342906E-16
4.688879E+03	1.576867E-14	2.279824E-16
4.698792E+03	1.535483E-14	2.217614E-16
4.708705E+03	1.495236E-14	2.157071E-16
4.718618E+03	1.456527E-14	2.098771E-16
4.728531E+03	1.419722E-14	2.043234E-16
4.738444E+03	1.385119E-14	1.990885E-16
4.748357E+03	1.352902E-14	1.941980E-16
4.758270E+03	1.323225E-14	1.896728E-16
4.768183E+03	1.296131E-14	1.855183E-16
4.778096E+03	1.271658E-14	1.817384E-16
4.788009E+03	1.249769E-14	1.783269E-16
4.797922E+03	1.230383E-14	1.752706E-16
4.807835E+03	1.213407E-14	1.725549E-16
4.817748E+03	1.198726E-14	1.701620E-16
4.827661E+03	1.186176E-14	1.680674E-16
4.837574E+03	1.175620E-14	1.662501E-16
4.847488E+03	1.166921E-14	1.646895E-16
4.857401E+03	1.159915E-14	1.633609E-16
4.867314E+03	1.154485E-14	1.622469E-16
4.877227E+03	1.150521E-14	1.613306E-16
4.887140E+03	1.147938E-14	1.605989E-16
4.897053E+03	1.146677E-14	1.600424E-16
4.906966E+03	1.146693E-14	1.596537E-16
4.916879E+03	1.147995E-14	1.594328E-16
4.926792E+03	1.150594E-14	1.593800E-16
4.936705E+03	1.154535E-14	1.595003E-16
4.946618E+03	1.159882E-14	1.598010E-16
4.956531E+03	1.166711E-14	1.602911E-16
4.966444E+03	1.175106E-14	1.609806E-16
4.976357E+03	1.185149E-14	1.618787E-16
4.986270E+03	1.196903E-14	1.629922E-16
4.996183E+03	1.210430E-14	1.643275E-16
5.006097E+03	1.225768E-14	1.658875E-16
5.016010E+03	1.242929E-14	1.676716E-16
5.025923E+03	1.261889E-14	1.696745E-16
5.035836E+03	1.282586E-14	1.718855E-16
5.045749E+03	1.304890E-14	1.742851E-16
5.055662E+03	1.328672E-14	1.768541E-16
5.065575E+03	1.353729E-14	1.795639E-16
5.075488E+03	1.379782E-14	1.823763E-16
5.085401E+03	1.406531E-14	1.852504E-16
5.095314E+03	1.433642E-14	1.881421E-16
5.105227E+03	1.460731E-14	1.910013E-16
5.115140E+03	1.487356E-14	1.937709E-16
5.125053E+03	1.513100E-14	1.963984E-16
5.134966E+03	1.537541E-14	1.988312E-16
5.144879E+03	1.560224E-14	2.010135E-16
5.154792E+03	1.580748E-14	2.028977E-16
5.164706E+03	1.598756E-14	2.044421E-16
5.174619E+03	1.613962E-14	2.056154E-16
5.184532E+03	1.626119E-14	2.063913E-16
5.194445E+03	1.635067E-14	2.067556E-16
5.204358E+03	1.640719E-14	2.067029E-16
5.214271E+03	1.643101E-14	2.062428E-16
5.224184E+03	1.642302E-14	2.053922E-16
5.234097E+03	1.638473E-14	2.041756E-16
5.244010E+03	1.631858E-14	2.026288E-16
5.253923E+03	1.622726E-14	2.007900E-16
5.263836E+03	1.611398E-14	1.987033E-16
5.273749E+03	1.598241E-14	1.964175E-16
5.283662E+03	1.583600E-14	1.939785E-16
5.293575E+03	1.567838E-14	1.914331E-16
5.303488E+03	1.551304E-14	1.888260E-16
5.313401E+03	1.534327E-14	1.861987E-16
5.323315E+03	1.517204E-14	1.835884E-16
5.333228E+03	1.500200E-14	1.810276E-16
5.343141E+03	1.483536E-14	1.785436E-16
5.353054E+03	1.467382E-14	1.761566E-16
5.362967E+03	1.451892E-14	1.738837E-16
5.372880E+03	1.437202E-14	1.717393E-16
5.382793E+03	1.423352E-14	1.697256E-16
5.392706E+03	1.410329E-14	1.678391E-16
5.402619E+03	1.398079E-14	1.660712E-16
5.412532E+03	1.386563E-14	1.644152E-16
5.422445E+03	1.375683E-14	1.628576E-16
5.432358E+03	1.365385E-14	1.613902E-16
5.442271E+03	1.355530E-14	1.599950E-16
5.452184E+03	1.346030E-14	1.586601E-16
5.462097E+03	1.336782E-14	1.573720E-16
5.472010E+03	1.327678E-14	1.561167E-16
5.481924E+03	1.318631E-14	1.548829E-16
5.491837E+03	1.309562E-14	1.536603E-16
5.501750E+03	1.300425E-14	1.524422E-16
5.511663E+03	1.291198E-14	1.512252E-16
5.521576E+03	1.281881E-14	1.500085E-16
5.531489E+03	1.272489E-14	1.487930E-16
5.541402E+03	1.263073E-14	1.475837E-16
5.551315E+03	1.253706E-14	1.463886E-16
5.561228E+03	1.244481E-14	1.452176E-16
5.571141E+03	1.235493E-14	1.440812E-16
5.581054E+03	1.226868E-14	1.429933E-16
5.590967E+03	1.218742E-14	1.419694E-16
5.600880E+03	1.211241E-14	1.410234E-16
5.610793E+03	1.204483E-14	1.401683E-16
5.620706E+03	1.198619E-14	1.394217E-16
5.630619E+03	1.193768E-14	1.387966E-16
5.640533E+03	1.190008E-14	1.383017E-16
5.650446E+03	1.187436E-14	1.379480E-16
5.660359E+03	1.186128E-14	1.377441E-16
5.670272E+03	1.186109E-14	1.376925E-16
5.680185E+03	1.187387E-14	1.377941E-16
5.690098E+03	1.189955E-14	1.380477E-16
5.700011E+03	1.193740E-14	1.384451E-16
5.709924E+03	1.198675E-14	1.389785E-16
5.719837E+03	1.204602E-14	1.396297E-16
5.729750E+03	1.211368E-14	1.403810E-16
5.739663E+03	1.218761E-14	1.412084E-16
5.749576E+03	1.226553E-14	1.420855E-16
5.759489E+03	1.234452E-14	1.429793E-16
5.769402E+03	1.242165E-14	1.438561E-16
5.779315E+03	1.249361E-14	1.446784E-16
5.789228E+03	1.255681E-14	1.454052E-16
5.799142E+03	1.260801E-14	1.459998E-16
5.809055E+03	1.264357E-14	1.464207E-16
5.818968E+03	1.266030E-14	1.466319E-16
5.828881E+03	1.265498E-14	1.465966E-16
5.838794E+03	1.262507E-14	1.462862E-16
5.848707E+03	1.256836E-14	1.456758E-16
5.858620E+03	1.248327E-14	1.447472E-16
5.868533E+03	1.236901E-14	1.434919E-16
5.878446E+03	1.222507E-14	1.419041E-16
5.888359E+03	1.205232E-14	1.399938E-16
5.898272E+03	1.185206E-14	1.377758E-16
5.908185E+03	1.162632E-14	1.352735E-16
5.918098E+03	1.137764E-14	1.325156E-16
5.928011E+03	1.110944E-14	1.295412E-16
5.937924E+03	1.082553E-14	1.263939E-16
5.947837E+03	1.052971E-14	1.231171E-16
5.957751E+03	1.022643E-14	1.197618E-16
5.967664E+03	9.919844E-15	1.163758E-16
5.977577E+03	9.614243E-15	1.130084E-16
5.987490E+03	9.313357E-15	1.097027E-16
5.997403E+03	9.021079E-15	1.065042E-16
6.007316E+03	8.740642E-15	1.034508E-16
6.017229E+03	8.474737E-15	1.005742E-16
6.027142E+03	8.225670E-15	9.790240E-17
6.037055E+03	7.995332E-15	9.545852E-17
6.046968E+03	7.784912E-15	9.325786E-17
6.056881E+03	7.595305E-15	9.131262E-17
6.066794E+03	7.426757E-15	8.962753E-17
6.076707E+03	7.279283E-15	8.820492E-17
6.086620E+03	7.152515E-15	8.704271E-17
6.096533E+03	7.045565E-15	8.613273E-17
6.106446E+03	6.957435E-15	8.546562E-17
6.116360E+03	6.886965E-15	8.502977E-17
6.126273E+03	6.832605E-15	8.480795E-17
6.136186E+03	6.792720E-15	8.478166E-17
6.146099E+03	6.765376E-15	8.492846E-17
6.156012E+03	6.748637E-15	8.522564E-17
6.165925E+03	6.740441E-15	8.564843E-17
6.175838E+03	6.738809E-15	8.617269E-17
6.185751E+03	6.741906E-15	8.677557E-17
6.195664E+03	6.747798E-15	8.743244E-17
6.205577E+03	6.754773E-15	8.812092E-17
6.215490E+03	6.761380E-15	8.882148E-17
6.225403E+03	6.766369E-15	8.951674E-17
6.235316E+03	6.768617E-15	9.019049E-17
6.245229E+03	6.767229E-15	9.082919E-17
6.255142E+03	6.761833E-15	9.142592E-17
6.265055E+03	6.751796E-15	9.197007E-17
6.274969E+03	6.737255E-15	9.246131E-17
6.284882E+03	6.718031E-15	9.289496E-17
6.294795E+03	6.694257E-15	9.327057E-17
6.304708E+03	6.666337E-15	9.359158E-17
6.314621E+03	6.634422E-15	9.385796E-17
6.324534E+03	6.598779E-15	9.407145E-17
6.334447E+03	6.559716E-15	9.423444E-17
6.344360E+03	6.517765E-15	9.435278E-17
6.354273E+03	6.473287E-15	9.443001E-17
6.364186E+03	6.426571E-15	9.446882E-17
6.374099E+03	6.378099E-15	9.447491E-17
6.384012E+03	6.328351E-15	9.445420E-17
6.393925E+03	6.277707E-15	9.441135E-17
6.403838E+03	6.226309E-15	9.434760E-17
6.413751E+03	6.174262E-15	9.426373E-17
6.423664E+03	6.121549E-15	9.415873E-17
6.433578E+03	6.068154E-15	9.403161E-17
6.443491E+03	6.013892E-15	9.387880E-17
6.453404E+03	5.958530E-15	9.369588E-17
6.463317E+03	5.901995E-15	9.348092E-17
6.473230E+03	5.843927E-15	9.322737E-17
6.483143E+03	5.784249E-15	9.293315E-17
6.493056E+03	5.722728E-15	9.259359E-17
6.502969E+03	5.659342E-15	9.220743E-17
6.512882E+03	5.593935E-15	9.177120E-17
6.522795E+03	5.526492E-15	9.128375E-17
6.532708E+03	5.457052E-15	9.074485E-17
6.542621E+03	5.385799E-15	9.015671E-17
6.552534E+03	5.312711E-15	8.951824E-17
6.562447E+03	5.238168E-15	8.883516E-17
6.572360E+03	5.162340E-15	8.810979E-17
6.582273E+03	5.085524E-15	8.734677E-17
6.592187E+03	5.008137E-15	8.655295E-17
6.602100E+03	4.930372E-15	8.573146E-17
6.612013E+03	4.852768E-15	8.489166E-17
6.621926E+03	4.775623E-15	8.403886E-17
6.631839E+03	4.699315E-15	8.317996E-17
6.641752E+03	4.624291E-15	8.232321E-17
6.651665E+03	4.550816E-15	8.147384E-17
6.661578E+03	4.479206E-15	8.063811E-17
6.671491E+03	4.409748E-15	7.982189E-17
6.681404E+03	4.342766E-15	7.903178E-17
6.691317E+03	4.278388E-15	7.827101E-17
6.701230E+03	4.216780E-15	7.754346E-17
6.711143E+03	4.158136E-15	7.685362E-17
6.721056E+03	4.102457E-15	7.620252E-17
6.730969E+03	4.049780E-15	7.559175E-17
6.740882E+03	4.000171E-15	7.502348E-17
6.750796E+03	3.953447E-15	7.449522E-17
6.760709E+03	3.909674E-15	7.400907E-17
6.770622E+03	3.868744E-15	7.356390E-17
6.780535E+03	3.830388E-15	7.315537E-17
6.790448E+03	3.794591E-15	7.278394E-17
6.800361E+03	3.761115E-15	7.244576E-17
6.810274E+03	3.729778E-15	7.213798E-17
6.820187E+03	3.700390E-15	7.185748E-17
6.830100E+03	3.672758E-15	7.160108E-17
6.840013E+03	3.646758E-15	7.136678E-17
6.849926E+03	3.622064E-15	7.114870E-17
6.859839E+03	3.598634E-15	7.094632E-17
6.869752E+03	3.576163E-15	7.075398E-17
6.879665E+03	3.554629E-15	7.057152E-17
6.889578E+03	3.533756E-15	7.039371E-17
6.899491E+03	3.513552E-15	7.022092E-17
6.909405E+03	3.493774E-15	7.004850E-17
6.919318E+03	3.474395E-15	6.987606E-17
6.929231E+03	3.455337E-15	6.970221E-17
6.939144E+03	3.436470E-15	6.952443E-17
6.949057E+03	3.417876E-15	6.934454E-17
6.958970E+03	3.399386E-15	6.915921E-17
6.968883E+03	3.380969E-15	6.896793E-17
6.978796E+03	3.362671E-15	6.877177E-17
6.988709E+03	3.344477E-15	6.857052E-17
6.998622E+03	3.326312E-15	6.836273E-17
7.008535E+03	3.308165E-15	6.814833E-17
7.018448E+03	3.290097E-15	6.792867E-17
7.028361E+03	3.272035E-15	6.770235E-17
7.038274E+03	3.253970E-15	6.746934E-17
7.048187E+03	3.235894E-15	6.722952E-17
7.058100E+03	3.217859E-15	6.698413E-17
7.068014E+03	3.199719E-15	6.673023E-17
7.077927E+03	3.181586E-15	6.647030E-17
7.087840E+03	3.163306E-15	6.620122E-17
7.097753E+03	3.144922E-15	6.592400E-17
7.107666E+03	3.126404E-15	6.563813E-17
7.117579E+03	3.107721E-15	6.534310E-17
7.127492E+03	3.088776E-15	6.503697E-17
7.137405E+03	3.069598E-15	6.472047E-17
7.147318E+03	3.050153E-15	6.439300E-17
7.157231E+03	3.030341E-15	6.405255E-17
7.167144E+03	3.010124E-15	6.369849E-17
7.177057E+03	2.989537E-15	6.333161E-17
7.186970E+03	2.968484E-15	6.295007E-17
7.196883E+03	2.946940E-15	6.255342E-17
7.206796E+03	2.924949E-15	6.214273E-17
7.216709E+03	2.902432E-15	6.171648E-17
7.226623E+03	2.879386E-15	6.127471E-17
7.236536E+03	2.855941E-15	6.082035E-17
7.246449E+03	2.831918E-15	6.034974E-17
7.256362E+03	2.807534E-15	5.986764E-17
7.266275E+03	2.782698E-15	5.937225E-17
7.276188E+03	2.757580E-15	5.886740E-17
7.286101E+03	2.732175E-15	5.835312E-17
7.296014E+03	2.706613E-15	5.783234E-17
7.305927E+03	2.681029E-15	5.730815E-17
7.315840E+03	2.655442E-15	5.678112E-17
7.325753E+03	2.630121E-15	5.625718E-17
7.335666E+03	2.605094E-15	5.573710E-17
7.345579E+03	2.580448E-15	5.522291E-17
7.355492E+03	2.556512E-15	5.472183E-17
7.365405E+03	2.533185E-15	5.423191E-17
7.375318E+03	2.510726E-15	5.375881E-17
7.385232E+03	2.489200E-15	5.330414E-17
7.395145E+03	2.468552E-15	5.286686E-17
7.405058E+03	2.448773E-15	5.244696E-17
7.414971E+03	2.429910E-15	5.204558E-17
7.424884E+03	2.411936E-15	5.166230E-17
7.434797E+03	2.394875E-15	5.129782E-17
7.444710E+03	2.378685E-15	5.095137E-17
7.454623E+03	2.363315E-15	5.062200E-17
7.464536E+03	2.348765E-15	5.030986E-17
7.474449E+03	2.335029E-15	5.001497E-17
7.484362E+03	2.322039E-15	4.973603E-17
7.494275E+03	2.309840E-15	4.947412E-17
7.504188E+03	2.298300E-15	4.922660E-17
7.514101E+03	2.287522E-15	4.899578E-17
7.524014E+03	2.277433E-15	4.878028E-17
7.533927E+03	2.267966E-15	4.857877E-17
7.543841E+03	2.259171E-15	4.839250E-17
7.553754E+03	2.250987E-15	4.822032E-17
7.563667E+03	2.243473E-15	4.806364E-17
7.573580E+03	2.236637E-15	4.792276E-17
7.583493E+03	2.230432E-15	4.779685E-17
7.593406E+03	2.224928E-15	4.768759E-17
7.603319E+03	2.220088E-15	4.759431E-17
7.613232E+03	2.215988E-15	4.751885E-17
7.623145E+03	2.212650E-15	4.746185E-17
7.633058E+03	2.210038E-15	4.742268E-17
7.642971E+03	2.208231E-15	4.740326E-17
7.652884E+03	2.207247E-15	4.740416E-17
7.662797E+03	2.207101E-15	4.742588E-17
7.672710E+03	2.207800E-15	4.746882E-17
7.682623E+03	2.209349E-15	4.753327E-17
7.692536E+03	2.211740E-15	4.761932E-17
