#wls	flux	fluxerr
1.586090E+03	2.091189E-15	7.363591E-17
1.625742E+03	1.822176E-15	6.284965E-17
1.665394E+03	1.564035E-15	5.281433E-17
1.705047E+03	1.321584E-15	4.366892E-17
1.744699E+03	1.099079E-15	3.551926E-17
1.784351E+03	8.995731E-16	2.841982E-17
1.824003E+03	7.250629E-16	2.238270E-17
1.863656E+03	5.762888E-16	1.737579E-17
1.903308E+03	4.527339E-16	1.332745E-17
1.942960E+03	3.528801E-16	1.013875E-17
1.982612E+03	2.743256E-16	7.690530E-18
2.022265E+03	2.141012E-16	5.855339E-18
2.061917E+03	1.691911E-16	4.513379E-18
2.101569E+03	1.371207E-16	3.567883E-18
2.141221E+03	1.160618E-16	2.945939E-18
2.180874E+03	1.045939E-16	2.590424E-18
2.220526E+03	1.019401E-16	2.464388E-18
2.260178E+03	1.085053E-16	2.561884E-18
2.299830E+03	1.257711E-16	2.902422E-18
2.339483E+03	1.566808E-16	3.537384E-18
2.379135E+03	2.063088E-16	4.562250E-18
2.418787E+03	2.818984E-16	6.114157E-18
2.458439E+03	3.921858E-16	8.354875E-18
2.498092E+03	5.454448E-16	1.142889E-17
2.537744E+03	7.459036E-16	1.539250E-17
2.577396E+03	9.898720E-16	2.014217E-17
2.617048E+03	1.264946E-15	2.540871E-17
2.656701E+03	1.556167E-15	3.088756E-17
2.696353E+03	1.853846E-15	3.639169E-17
2.736005E+03	2.154942E-15	4.186965E-17
2.775657E+03	2.460563E-15	4.735012E-17
2.815310E+03	2.771548E-15	5.285367E-17
2.854962E+03	3.084426E-15	5.831732E-17
2.894614E+03	3.390361E-15	6.357853E-17
2.934266E+03	3.677779E-15	6.842819E-17
2.973919E+03	3.935552E-15	7.267134E-17
2.983832E+03	3.994296E-15	7.361941E-17
2.993745E+03	4.050715E-15	7.452209E-17
3.003658E+03	4.104519E-15	7.537434E-17
3.013571E+03	4.155722E-15	7.617669E-17
3.023484E+03	4.204451E-15	7.693178E-17
3.033397E+03	4.250518E-15	7.763645E-17
3.043310E+03	4.294041E-15	7.829313E-17
3.053223E+03	4.335207E-15	7.890555E-17
3.063136E+03	4.374085E-15	7.947519E-17
3.073049E+03	4.410791E-15	8.000446E-17
3.082962E+03	4.445688E-15	8.050016E-17
3.092875E+03	4.478921E-15	8.096514E-17
3.102789E+03	4.510888E-15	8.140680E-17
3.112702E+03	4.541966E-15	8.183210E-17
3.122615E+03	4.572605E-15	8.224926E-17
3.132528E+03	4.603406E-15	8.266923E-17
3.142441E+03	4.635038E-15	8.310401E-17
3.152354E+03	4.667962E-15	8.356192E-17
3.162267E+03	4.703125E-15	8.405982E-17
3.172180E+03	4.741164E-15	8.460899E-17
3.182093E+03	4.782915E-15	8.522422E-17
3.192006E+03	4.829150E-15	8.591903E-17
3.201919E+03	4.880563E-15	8.670552E-17
3.211832E+03	4.938180E-15	8.760145E-17
3.221745E+03	5.002518E-15	8.861544E-17
3.231658E+03	5.074577E-15	8.976458E-17
3.241571E+03	5.155081E-15	9.106106E-17
3.251484E+03	5.244567E-15	9.251364E-17
3.261398E+03	5.343953E-15	9.413781E-17
3.271311E+03	5.453714E-15	9.594114E-17
3.281224E+03	5.574536E-15	9.793493E-17
3.291137E+03	5.706989E-15	1.001283E-16
3.301050E+03	5.851687E-15	1.025313E-16
3.310963E+03	6.009031E-15	1.051498E-16
3.320876E+03	6.179457E-15	1.079908E-16
3.330789E+03	6.363341E-15	1.110597E-16
3.340702E+03	6.561078E-15	1.143625E-16
3.350615E+03	6.772805E-15	1.179006E-16
3.360528E+03	6.998641E-15	1.216751E-16
3.370441E+03	7.238580E-15	1.256849E-16
3.380354E+03	7.492365E-15	1.299246E-16
3.390267E+03	7.759643E-15	1.343869E-16
3.400180E+03	8.039838E-15	1.390611E-16
3.410093E+03	8.331998E-15	1.439297E-16
3.420007E+03	8.634965E-15	1.489719E-16
3.429920E+03	8.947147E-15	1.541595E-16
3.439833E+03	9.266556E-15	1.594576E-16
3.449746E+03	9.590761E-15	1.648237E-16
3.459659E+03	9.916583E-15	1.702030E-16
3.469572E+03	1.024062E-14	1.755371E-16
3.479485E+03	1.055897E-14	1.807589E-16
3.489398E+03	1.086742E-14	1.857970E-16
3.499311E+03	1.116166E-14	1.905783E-16
3.509224E+03	1.143793E-14	1.950395E-16
3.519137E+03	1.169247E-14	1.991178E-16
3.529050E+03	1.192190E-14	2.027570E-16
3.538963E+03	1.212395E-14	2.059205E-16
3.548876E+03	1.229716E-14	2.085851E-16
3.558789E+03	1.244096E-14	2.107425E-16
3.568702E+03	1.255570E-14	2.124003E-16
3.578616E+03	1.264326E-14	2.135918E-16
3.588529E+03	1.270621E-14	2.143620E-16
3.598442E+03	1.274799E-14	2.147699E-16
3.608355E+03	1.277327E-14	2.148954E-16
3.618268E+03	1.278690E-14	2.148208E-16
3.628181E+03	1.279415E-14	2.146346E-16
3.638094E+03	1.280051E-14	2.144295E-16
3.648007E+03	1.281150E-14	2.142971E-16
3.657920E+03	1.283233E-14	2.143241E-16
3.667833E+03	1.286830E-14	2.145976E-16
3.677746E+03	1.292391E-14	2.151912E-16
3.687659E+03	1.300360E-14	2.161769E-16
3.697572E+03	1.311143E-14	2.176200E-16
3.707485E+03	1.325044E-14	2.195681E-16
3.717398E+03	1.342391E-14	2.220724E-16
3.727311E+03	1.363378E-14	2.251619E-16
3.737225E+03	1.388205E-14	2.288660E-16
3.747138E+03	1.416973E-14	2.331976E-16
3.757051E+03	1.449716E-14	2.381580E-16
3.766964E+03	1.486399E-14	2.437376E-16
3.776877E+03	1.526897E-14	2.499115E-16
3.786790E+03	1.571008E-14	2.566427E-16
3.796703E+03	1.618439E-14	2.638793E-16
3.806616E+03	1.668796E-14	2.715530E-16
3.816529E+03	1.721604E-14	2.795830E-16
3.826442E+03	1.776304E-14	2.878758E-16
3.836355E+03	1.832249E-14	2.963237E-16
3.846268E+03	1.888748E-14	3.048132E-16
3.856181E+03	1.945061E-14	3.132239E-16
3.866094E+03	2.000421E-14	3.214318E-16
3.876007E+03	2.054074E-14	3.293165E-16
3.885920E+03	2.105281E-14	3.367606E-16
3.895834E+03	2.153386E-14	3.436621E-16
3.905747E+03	2.197777E-14	3.499262E-16
3.915660E+03	2.237951E-14	3.554770E-16
3.925573E+03	2.273476E-14	3.602505E-16
3.935486E+03	2.304104E-14	3.642127E-16
3.945399E+03	2.329636E-14	3.673381E-16
3.955312E+03	2.350024E-14	3.696251E-16
3.965225E+03	2.365309E-14	3.710868E-16
3.975138E+03	2.375669E-14	3.717573E-16
3.985051E+03	2.381311E-14	3.716754E-16
3.994964E+03	2.382567E-14	3.708992E-16
4.004877E+03	2.379770E-14	3.694861E-16
4.014790E+03	2.373342E-14	3.675075E-16
4.024703E+03	2.363675E-14	3.650291E-16
4.034616E+03	2.351206E-14	3.621232E-16
4.044529E+03	2.336368E-14	3.588606E-16
4.054443E+03	2.319582E-14	3.553095E-16
4.064356E+03	2.301211E-14	3.515289E-16
4.074269E+03	2.281626E-14	3.475782E-16
4.084182E+03	2.261156E-14	3.435098E-16
4.094095E+03	2.240109E-14	3.393725E-16
4.104008E+03	2.218766E-14	3.352103E-16
4.113921E+03	2.197342E-14	3.310570E-16
4.123834E+03	2.176078E-14	3.269497E-16
4.133747E+03	2.155138E-14	3.229135E-16
4.143660E+03	2.134694E-14	3.189751E-16
4.153573E+03	2.114901E-14	3.151573E-16
4.163486E+03	2.095858E-14	3.114754E-16
4.173399E+03	2.077680E-14	3.079458E-16
4.183312E+03	2.060442E-14	3.045799E-16
4.193225E+03	2.044229E-14	3.013898E-16
4.203138E+03	2.029036E-14	2.983744E-16
4.213052E+03	2.014890E-14	2.955373E-16
4.222965E+03	2.001735E-14	2.928699E-16
4.232878E+03	1.989519E-14	2.903646E-16
4.242791E+03	1.978085E-14	2.879979E-16
4.252704E+03	1.967272E-14	2.857470E-16
4.262617E+03	1.956874E-14	2.835818E-16
4.272530E+03	1.946592E-14	2.814597E-16
4.282443E+03	1.936158E-14	2.793426E-16
4.292356E+03	1.925214E-14	2.771799E-16
4.302269E+03	1.913500E-14	2.749348E-16
4.312182E+03	1.900726E-14	2.725662E-16
4.322095E+03	1.886797E-14	2.700607E-16
4.332008E+03	1.871870E-14	2.674413E-16
4.341921E+03	1.856341E-14	2.647646E-16
4.351834E+03	1.840783E-14	2.621123E-16
4.361747E+03	1.825834E-14	2.595742E-16
4.371661E+03	1.812121E-14	2.572386E-16
4.381574E+03	1.800311E-14	2.551986E-16
4.391487E+03	1.790964E-14	2.535318E-16
4.401400E+03	1.784605E-14	2.523100E-16
4.411313E+03	1.781670E-14	2.515921E-16
4.421226E+03	1.782525E-14	2.514265E-16
4.431139E+03	1.787401E-14	2.518426E-16
4.441052E+03	1.796383E-14	2.528496E-16
4.450965E+03	1.809108E-14	2.543934E-16
4.460878E+03	1.824943E-14	2.563825E-16
4.470791E+03	1.843165E-14	2.587137E-16
4.480704E+03	1.862922E-14	2.612652E-16
4.490617E+03	1.883358E-14	2.639157E-16
4.500530E+03	1.903601E-14	2.665418E-16
4.510443E+03	1.922754E-14	2.690170E-16
4.520356E+03	1.939980E-14	2.712237E-16
4.530270E+03	1.954470E-14	2.730482E-16
4.540183E+03	1.965525E-14	2.743926E-16
4.550096E+03	1.972536E-14	2.751718E-16
4.560009E+03	1.975020E-14	2.753185E-16
4.569922E+03	1.972615E-14	2.747825E-16
4.579835E+03	1.965162E-14	2.735421E-16
4.589748E+03	1.952590E-14	2.715878E-16
4.599661E+03	1.935033E-14	2.689388E-16
4.609574E+03	1.912746E-14	2.656312E-16
4.619487E+03	1.886095E-14	2.617166E-16
4.629400E+03	1.855600E-14	2.572680E-16
4.639313E+03	1.821795E-14	2.523601E-16
4.649226E+03	1.785317E-14	2.470818E-16
4.659139E+03	1.746843E-14	2.415277E-16
4.669052E+03	1.707008E-14	2.357859E-16
4.678965E+03	1.666459E-14	2.299463E-16
4.688879E+03	1.625800E-14	2.240928E-16
4.698792E+03	1.585574E-14	2.183002E-16
4.708705E+03	1.546260E-14	2.126344E-16
4.718618E+03	1.508297E-14	2.071557E-16
4.728531E+03	1.471999E-14	2.019070E-16
4.738444E+03	1.437664E-14	1.969286E-16
4.748357E+03	1.405499E-14	1.922480E-16
4.758270E+03	1.375633E-14	1.878822E-16
4.768183E+03	1.348180E-14	1.838458E-16
4.778096E+03	1.323163E-14	1.801408E-16
4.788009E+03	1.300579E-14	1.767656E-16
4.797922E+03	1.280388E-14	1.737137E-16
4.807835E+03	1.262521E-14	1.709743E-16
4.817748E+03	1.246914E-14	1.685371E-16
4.827661E+03	1.233426E-14	1.663821E-16
4.837574E+03	1.221969E-14	1.644959E-16
4.847488E+03	1.212420E-14	1.628607E-16
4.857401E+03	1.204682E-14	1.614618E-16
4.867314E+03	1.198643E-14	1.602830E-16
4.877227E+03	1.194218E-14	1.593115E-16
4.887140E+03	1.191346E-14	1.585381E-16
4.897053E+03	1.189955E-14	1.579516E-16
4.906966E+03	1.190023E-14	1.575479E-16
4.916879E+03	1.191535E-14	1.573237E-16
4.926792E+03	1.194497E-14	1.572783E-16
4.936705E+03	1.198916E-14	1.574111E-16
4.946618E+03	1.204822E-14	1.577246E-16
4.956531E+03	1.212262E-14	1.582232E-16
4.966444E+03	1.221251E-14	1.589072E-16
4.976357E+03	1.231847E-14	1.597824E-16
4.986270E+03	1.244048E-14	1.608468E-16
4.996183E+03	1.257865E-14	1.620997E-16
5.006097E+03	1.273298E-14	1.635394E-16
5.016010E+03	1.290298E-14	1.651575E-16
5.025923E+03	1.308799E-14	1.669436E-16
5.035836E+03	1.328686E-14	1.688816E-16
5.045749E+03	1.349835E-14	1.709539E-16
5.055662E+03	1.372071E-14	1.731371E-16
5.065575E+03	1.395155E-14	1.753998E-16
5.075488E+03	1.418847E-14	1.777115E-16
5.085401E+03	1.442861E-14	1.800360E-16
5.095314E+03	1.466883E-14	1.823343E-16
5.105227E+03	1.490563E-14	1.845638E-16
5.115140E+03	1.513546E-14	1.866820E-16
5.125053E+03	1.535461E-14	1.886452E-16
5.134966E+03	1.555988E-14	1.904166E-16
5.144879E+03	1.574767E-14	1.919556E-16
5.154792E+03	1.591499E-14	1.932295E-16
5.164706E+03	1.605926E-14	1.942113E-16
5.174619E+03	1.617859E-14	1.948828E-16
5.184532E+03	1.627122E-14	1.952278E-16
5.194445E+03	1.633635E-14	1.952421E-16
5.204358E+03	1.637415E-14	1.949329E-16
5.214271E+03	1.638469E-14	1.943063E-16
5.224184E+03	1.636943E-14	1.933847E-16
5.234097E+03	1.632991E-14	1.921912E-16
5.244010E+03	1.626830E-14	1.907556E-16
5.253923E+03	1.618729E-14	1.891139E-16
5.263836E+03	1.608935E-14	1.872985E-16
5.273749E+03	1.597755E-14	1.853481E-16
5.283662E+03	1.585486E-14	1.833000E-16
5.293575E+03	1.572414E-14	1.811895E-16
5.303488E+03	1.558829E-14	1.790516E-16
5.313401E+03	1.544946E-14	1.769126E-16
5.323315E+03	1.531002E-14	1.748006E-16
5.333228E+03	1.517182E-14	1.727374E-16
5.343141E+03	1.503629E-14	1.707399E-16
5.353054E+03	1.490496E-14	1.688257E-16
5.362967E+03	1.477877E-14	1.670045E-16
5.372880E+03	1.465855E-14	1.652837E-16
5.382793E+03	1.454487E-14	1.636682E-16
5.392706E+03	1.443801E-14	1.621589E-16
5.402619E+03	1.433750E-14	1.607485E-16
5.412532E+03	1.424311E-14	1.594326E-16
5.422445E+03	1.415435E-14	1.582038E-16
5.432358E+03	1.407028E-14	1.570501E-16
5.442271E+03	1.399019E-14	1.559618E-16
5.452184E+03	1.391339E-14	1.549299E-16
5.462097E+03	1.383892E-14	1.539422E-16
5.472010E+03	1.376580E-14	1.529867E-16
5.481924E+03	1.369320E-14	1.520527E-16
5.491837E+03	1.362073E-14	1.511350E-16
5.501750E+03	1.354757E-14	1.502232E-16
5.511663E+03	1.347356E-14	1.493146E-16
5.521576E+03	1.339851E-14	1.484062E-16
5.531489E+03	1.332258E-14	1.474985E-16
5.541402E+03	1.324611E-14	1.465949E-16
5.551315E+03	1.316955E-14	1.456991E-16
5.561228E+03	1.309376E-14	1.448200E-16
5.571141E+03	1.301952E-14	1.439654E-16
5.581054E+03	1.294770E-14	1.431445E-16
5.590967E+03	1.287968E-14	1.423715E-16
5.600880E+03	1.281646E-14	1.416572E-16
5.610793E+03	1.275904E-14	1.410120E-16
5.620706E+03	1.270868E-14	1.404495E-16
5.630619E+03	1.266650E-14	1.399814E-16
5.640533E+03	1.263312E-14	1.396147E-16
5.650446E+03	1.260939E-14	1.393581E-16
5.660359E+03	1.259596E-14	1.392189E-16
5.670272E+03	1.259296E-14	1.391982E-16
5.680185E+03	1.260051E-14	1.392975E-16
5.690098E+03	1.261820E-14	1.395122E-16
5.700011E+03	1.264553E-14	1.398370E-16
5.709924E+03	1.268157E-14	1.402615E-16
5.719837E+03	1.272518E-14	1.407735E-16
5.729750E+03	1.277444E-14	1.413520E-16
5.739663E+03	1.282781E-14	1.419804E-16
5.749576E+03	1.288276E-14	1.426309E-16
5.759489E+03	1.293687E-14	1.432773E-16
5.769402E+03	1.298737E-14	1.438892E-16
5.779315E+03	1.303130E-14	1.444346E-16
5.789228E+03	1.306575E-14	1.448814E-16
5.799142E+03	1.308765E-14	1.451962E-16
5.809055E+03	1.309400E-14	1.453462E-16
5.818968E+03	1.308183E-14	1.452987E-16
5.828881E+03	1.304888E-14	1.450292E-16
5.838794E+03	1.299283E-14	1.445119E-16
5.848707E+03	1.291211E-14	1.437295E-16
5.858620E+03	1.280541E-14	1.426676E-16
5.868533E+03	1.267231E-14	1.413212E-16
5.878446E+03	1.251289E-14	1.396910E-16
5.888359E+03	1.232789E-14	1.377848E-16
5.898272E+03	1.211870E-14	1.356175E-16
5.908185E+03	1.188729E-14	1.332105E-16
5.918098E+03	1.163635E-14	1.305931E-16
5.928011E+03	1.136860E-14	1.277948E-16
5.937924E+03	1.108768E-14	1.248556E-16
5.947837E+03	1.079706E-14	1.218137E-16
5.957751E+03	1.050050E-14	1.187103E-16
5.967664E+03	1.020189E-14	1.155887E-16
5.977577E+03	9.904643E-15	1.124868E-16
5.987490E+03	9.612474E-15	1.094463E-16
5.997403E+03	9.328347E-15	1.065006E-16
6.007316E+03	9.055226E-15	1.036835E-16
6.017229E+03	8.795556E-15	1.010232E-16
6.027142E+03	8.551262E-15	9.854240E-17
6.037055E+03	8.323935E-15	9.626032E-17
6.046968E+03	8.114732E-15	9.419148E-17
6.056881E+03	7.924387E-15	9.234592E-17
6.066794E+03	7.753233E-15	9.072932E-17
6.076707E+03	7.601235E-15	8.934335E-17
6.086620E+03	7.468026E-15	8.818595E-17
6.096533E+03	7.352939E-15	8.725177E-17
6.106446E+03	7.255140E-15	8.653349E-17
6.116360E+03	7.173567E-15	8.602049E-17
6.126273E+03	7.106965E-15	8.569930E-17
6.136186E+03	7.053840E-15	8.555345E-17
6.146099E+03	7.012576E-15	8.556486E-17
6.156012E+03	6.981394E-15	8.571320E-17
6.165925E+03	6.958568E-15	8.597837E-17
6.175838E+03	6.942362E-15	8.633984E-17
6.185751E+03	6.930988E-15	8.677589E-17
6.195664E+03	6.922903E-15	8.726746E-17
6.205577E+03	6.916768E-15	8.779753E-17
6.215490E+03	6.911095E-15	8.834679E-17
6.225403E+03	6.904739E-15	8.889983E-17
6.235316E+03	6.896830E-15	8.944435E-17
6.245229E+03	6.886400E-15	8.996646E-17
6.255142E+03	6.873049E-15	9.045939E-17
6.265055E+03	6.856372E-15	9.091610E-17
6.274969E+03	6.835933E-15	9.132899E-17
6.284882E+03	6.811829E-15	9.169741E-17
6.294795E+03	6.784076E-15	9.201968E-17
6.304708E+03	6.752678E-15	9.229394E-17
6.314621E+03	6.717793E-15	9.252048E-17
6.324534E+03	6.679816E-15	9.270291E-17
6.334447E+03	6.638792E-15	9.284015E-17
6.344360E+03	6.595019E-15	9.293472E-17
6.354273E+03	6.548998E-15	9.299214E-17
6.364186E+03	6.500866E-15	9.301300E-17
6.374099E+03	6.450898E-15	9.299993E-17
6.384012E+03	6.399434E-15	9.295666E-17
6.393925E+03	6.346747E-15	9.288612E-17
6.403838E+03	6.292920E-15	9.278860E-17
6.413751E+03	6.238140E-15	9.266595E-17
6.423664E+03	6.182411E-15	9.251745E-17
6.433578E+03	6.125762E-15	9.234277E-17
6.443491E+03	6.068077E-15	9.213943E-17
6.453404E+03	6.009297E-15	9.190574E-17
6.463317E+03	5.949336E-15	9.163970E-17
6.473230E+03	5.888014E-15	9.133776E-17
6.483143E+03	5.825338E-15	9.099927E-17
6.493056E+03	5.761236E-15	9.062238E-17
6.502969E+03	5.695569E-15	9.020418E-17
6.512882E+03	5.628415E-15	8.974517E-17
6.522795E+03	5.559706E-15	8.924358E-17
6.532708E+03	5.489505E-15	8.869977E-17
6.542621E+03	5.418009E-15	8.811632E-17
6.552534E+03	5.345189E-15	8.749221E-17
6.562447E+03	5.271496E-15	8.683437E-17
6.572360E+03	5.196891E-15	8.614184E-17
6.582273E+03	5.121802E-15	8.542143E-17
6.592187E+03	5.046428E-15	8.467629E-17
6.602100E+03	4.971068E-15	8.391139E-17
6.612013E+03	4.896116E-15	8.313344E-17
6.621926E+03	4.821806E-15	8.234662E-17
6.631839E+03	4.748450E-15	8.155652E-17
6.641752E+03	4.676352E-15	8.076875E-17
6.651665E+03	4.605877E-15	7.999008E-17
6.661578E+03	4.537130E-15	7.922292E-17
6.671491E+03	4.470506E-15	7.847480E-17
6.681404E+03	4.406134E-15	7.774866E-17
6.691317E+03	4.344186E-15	7.704832E-17
6.701230E+03	4.284800E-15	7.637702E-17
6.711143E+03	4.228081E-15	7.573741E-17
6.721056E+03	4.174167E-15	7.513283E-17
6.730969E+03	4.122943E-15	7.456203E-17
6.740882E+03	4.074482E-15	7.402714E-17
6.750796E+03	4.028749E-15	7.352837E-17
6.760709E+03	3.985685E-15	7.306538E-17
6.770622E+03	3.945202E-15	7.263731E-17
6.780535E+03	3.907188E-15	7.224287E-17
6.790448E+03	3.871517E-15	7.188034E-17
6.800361E+03	3.837976E-15	7.154640E-17
6.810274E+03	3.806480E-15	7.124006E-17
6.820187E+03	3.776865E-15	7.095878E-17
6.830100E+03	3.748897E-15	7.069863E-17
6.840013E+03	3.722480E-15	7.045821E-17
6.849926E+03	3.697448E-15	7.023481E-17
6.859839E+03	3.673574E-15	7.002447E-17
6.869752E+03	3.650708E-15	6.982461E-17
6.879665E+03	3.628777E-15	6.963412E-17
6.889578E+03	3.607585E-15	6.944947E-17
6.899491E+03	3.587012E-15	6.926858E-17
6.909405E+03	3.567026E-15	6.909100E-17
6.919318E+03	3.547466E-15	6.891382E-17
6.929231E+03	3.528253E-15	6.873567E-17
6.939144E+03	3.509257E-15	6.855410E-17
6.949057E+03	3.490557E-15	6.837083E-17
6.958970E+03	3.472042E-15	6.818382E-17
6.968883E+03	3.453678E-15	6.799248E-17
6.978796E+03	3.435369E-15	6.779506E-17
6.988709E+03	3.417161E-15	6.759259E-17
6.998622E+03	3.398970E-15	6.738352E-17
7.008535E+03	3.380919E-15	6.717036E-17
7.018448E+03	3.362792E-15	6.694899E-17
7.028361E+03	3.344715E-15	6.672198E-17
7.038274E+03	3.326610E-15	6.648792E-17
7.048187E+03	3.308534E-15	6.624804E-17
7.058100E+03	3.290341E-15	6.599954E-17
7.068014E+03	3.272151E-15	6.574494E-17
7.077927E+03	3.253814E-15	6.548137E-17
7.087840E+03	3.235382E-15	6.520994E-17
7.097753E+03	3.216835E-15	6.493038E-17
7.107666E+03	3.198151E-15	6.464239E-17
7.117579E+03	3.179241E-15	6.434428E-17
7.127492E+03	3.160082E-15	6.403570E-17
7.137405E+03	3.140716E-15	6.371761E-17
7.147318E+03	3.121052E-15	6.338831E-17
7.157231E+03	3.101134E-15	6.304878E-17
7.167144E+03	3.080804E-15	6.269600E-17
7.177057E+03	3.060177E-15	6.233239E-17
7.186970E+03	3.039170E-15	6.195640E-17
7.196883E+03	3.017769E-15	6.156791E-17
7.206796E+03	2.995967E-15	6.116688E-17
7.216709E+03	2.973763E-15	6.075344E-17
7.226623E+03	2.951161E-15	6.032785E-17
7.236536E+03	2.928239E-15	5.989182E-17
7.246449E+03	2.904890E-15	5.944333E-17
7.256362E+03	2.881335E-15	5.898708E-17
7.266275E+03	2.857549E-15	5.852268E-17
7.276188E+03	2.833512E-15	5.804993E-17
7.286101E+03	2.809472E-15	5.757404E-17
7.296014E+03	2.785360E-15	5.709380E-17
7.305927E+03	2.761434E-15	5.661465E-17
7.315840E+03	2.737700E-15	5.613690E-17
7.325753E+03	2.714294E-15	5.566352E-17
7.335666E+03	2.691353E-15	5.519747E-17
7.345579E+03	2.668951E-15	5.474044E-17
7.355492E+03	2.647283E-15	5.429661E-17
7.365405E+03	2.626477E-15	5.386876E-17
7.375318E+03	2.606531E-15	5.345702E-17
7.385232E+03	2.587502E-15	5.306270E-17
7.395145E+03	2.569436E-15	5.268693E-17
7.405058E+03	2.552313E-15	5.232942E-17
7.414971E+03	2.536104E-15	5.198973E-17
7.424884E+03	2.520770E-15	5.166721E-17
7.434797E+03	2.506327E-15	5.136232E-17
7.444710E+03	2.492719E-15	5.107409E-17
7.454623E+03	2.479885E-15	5.080139E-17
7.464536E+03	2.467879E-15	5.054547E-17
7.474449E+03	2.456564E-15	5.030367E-17
7.484362E+03	2.445922E-15	5.007576E-17
7.494275E+03	2.435933E-15	4.986148E-17
7.504188E+03	2.426571E-15	4.966045E-17
7.514101E+03	2.417813E-15	4.947234E-17
7.524014E+03	2.409574E-15	4.929557E-17
7.533927E+03	2.401833E-15	4.912984E-17
7.543841E+03	2.394628E-15	4.897612E-17
7.553754E+03	2.387885E-15	4.883300E-17
7.563667E+03	2.381652E-15	4.870167E-17
7.573580E+03	2.375798E-15	4.857959E-17
7.583493E+03	2.370441E-15	4.846935E-17
7.593406E+03	2.365520E-15	4.836985E-17
7.603319E+03	2.361039E-15	4.828136E-17
7.613232E+03	2.357003E-15	4.820413E-17
7.623145E+03	2.353482E-15	4.813980E-17
7.633058E+03	2.350423E-15	4.808747E-17
7.642971E+03	2.347836E-15	4.804749E-17
7.652884E+03	2.345791E-15	4.802150E-17
7.662797E+03	2.344293E-15	4.800983E-17
7.672710E+03	2.343283E-15	4.801145E-17
7.682623E+03	2.342820E-15	4.802775E-17
7.692536E+03	2.342896E-15	4.805880E-17
