#wls	flux	fluxerr
1.586090E+03	2.058564E-15	2.248845E-16
1.625742E+03	1.650839E-15	1.786781E-16
1.665394E+03	1.308608E-15	1.403087E-16
1.705047E+03	1.025908E-15	1.089510E-16
1.744699E+03	7.964114E-16	8.376272E-17
1.784351E+03	6.129020E-16	6.383218E-17
1.824003E+03	4.685292E-16	4.831359E-17
1.863656E+03	3.565047E-16	3.639438E-17
1.903308E+03	2.707279E-16	2.735867E-17
1.942960E+03	2.058528E-16	2.059080E-17
1.982612E+03	1.573867E-16	1.558134E-17
2.022265E+03	1.216719E-16	1.192117E-17
2.061917E+03	9.580771E-17	9.289628E-18
2.101569E+03	7.767811E-17	7.453311E-18
2.141221E+03	6.571985E-17	6.240073E-18
2.180874E+03	5.880856E-17	5.525515E-18
2.220526E+03	5.624427E-17	5.229402E-18
2.260178E+03	5.778876E-17	5.316926E-18
2.299830E+03	6.366815E-17	5.796715E-18
2.339483E+03	7.463939E-17	6.724555E-18
2.379135E+03	9.203576E-17	8.204850E-18
2.418787E+03	1.178144E-16	1.039208E-17
2.458439E+03	1.543105E-16	1.346632E-17
2.498092E+03	2.038605E-16	1.759883E-17
2.537744E+03	2.678878E-16	2.287366E-17
2.577396E+03	3.459449E-16	2.921083E-17
2.617048E+03	4.350478E-16	3.631930E-17
2.656701E+03	5.303560E-16	4.376504E-17
2.696353E+03	6.262635E-16	5.106918E-17
2.736005E+03	7.176992E-16	5.781692E-17
2.775657E+03	8.005125E-16	6.368636E-17
2.815310E+03	8.718889E-16	6.847725E-17
2.854962E+03	9.303726E-16	7.210675E-17
2.894614E+03	9.758773E-16	7.460376E-17
2.934266E+03	1.009362E-15	7.607763E-17
2.973919E+03	1.032667E-15	7.670053E-17
2.983832E+03	1.037221E-15	7.675046E-17
2.993745E+03	1.041335E-15	7.676385E-17
3.003658E+03	1.045045E-15	7.674379E-17
3.013571E+03	1.048463E-15	7.669864E-17
3.023484E+03	1.051592E-15	7.662900E-17
3.033397E+03	1.054518E-15	7.654126E-17
3.043310E+03	1.057233E-15	7.643490E-17
3.053223E+03	1.059922E-15	7.632351E-17
3.063136E+03	1.062558E-15	7.620515E-17
3.073049E+03	1.065220E-15	7.608548E-17
3.082962E+03	1.067988E-15	7.597001E-17
3.092875E+03	1.070907E-15	7.586200E-17
3.102789E+03	1.074060E-15	7.576698E-17
3.112702E+03	1.077464E-15	7.568608E-17
3.122615E+03	1.081237E-15	7.562713E-17
3.132528E+03	1.085433E-15	7.559366E-17
3.142441E+03	1.090141E-15	7.559135E-17
3.152354E+03	1.095397E-15	7.562224E-17
3.162267E+03	1.101309E-15	7.569324E-17
3.172180E+03	1.108002E-15	7.581220E-17
3.182093E+03	1.115587E-15	7.598588E-17
3.192006E+03	1.124218E-15	7.622399E-17
3.201919E+03	1.134041E-15	7.653521E-17
3.211832E+03	1.145244E-15	7.693110E-17
3.221745E+03	1.158000E-15	7.742188E-17
3.231658E+03	1.172497E-15	7.801839E-17
3.241571E+03	1.188960E-15	7.873386E-17
3.251484E+03	1.207590E-15	7.957959E-17
3.261398E+03	1.228592E-15	8.056676E-17
3.271311E+03	1.252226E-15	8.171000E-17
3.281224E+03	1.278673E-15	8.301833E-17
3.291137E+03	1.308140E-15	8.450217E-17
3.301050E+03	1.340835E-15	8.617181E-17
3.310963E+03	1.377026E-15	8.804096E-17
3.320876E+03	1.416870E-15	9.011598E-17
3.330789E+03	1.460613E-15	9.240851E-17
3.340702E+03	1.508477E-15	9.492839E-17
3.350615E+03	1.560656E-15	9.768335E-17
3.360528E+03	1.617379E-15	1.006829E-16
3.370441E+03	1.678907E-15	1.039384E-16
3.380354E+03	1.745387E-15	1.074535E-16
3.390267E+03	1.817119E-15	1.112412E-16
3.400180E+03	1.894249E-15	1.153044E-16
3.410093E+03	1.977037E-15	1.196529E-16
3.420007E+03	2.065592E-15	1.242869E-16
3.429920E+03	2.160102E-15	1.292111E-16
3.439833E+03	2.260542E-15	1.344171E-16
3.449746E+03	2.366892E-15	1.398971E-16
3.459659E+03	2.478907E-15	1.456296E-16
3.469572E+03	2.596288E-15	1.515905E-16
3.479485E+03	2.718427E-15	1.577383E-16
3.489398E+03	2.844573E-15	1.640238E-16
3.499311E+03	2.973693E-15	1.703828E-16
3.509224E+03	3.104525E-15	1.767394E-16
3.519137E+03	3.235653E-15	1.830113E-16
3.529050E+03	3.365395E-15	1.891027E-16
3.538963E+03	3.492118E-15	1.949236E-16
3.548876E+03	3.614210E-15	2.003873E-16
3.558789E+03	3.730128E-15	2.054134E-16
3.568702E+03	3.838497E-15	2.099332E-16
3.578616E+03	3.938165E-15	2.138923E-16
3.588529E+03	4.028316E-15	2.172559E-16
3.598442E+03	4.108426E-15	2.200065E-16
3.608355E+03	4.178107E-15	2.221348E-16
3.618268E+03	4.237482E-15	2.236588E-16
3.628181E+03	4.286829E-15	2.246049E-16
3.638094E+03	4.326954E-15	2.250265E-16
3.648007E+03	4.358868E-15	2.249864E-16
3.657920E+03	4.384008E-15	2.245678E-16
3.667833E+03	4.404281E-15	2.238754E-16
3.677746E+03	4.421999E-15	2.230317E-16
3.687659E+03	4.439952E-15	2.221794E-16
3.697572E+03	4.461093E-15	2.214648E-16
3.707485E+03	4.488779E-15	2.210495E-16
3.717398E+03	4.526500E-15	2.210960E-16
3.727311E+03	4.577888E-15	2.217684E-16
3.737225E+03	4.646525E-15	2.232222E-16
3.747138E+03	4.736068E-15	2.256106E-16
3.757051E+03	4.849963E-15	2.290710E-16
3.766964E+03	4.991385E-15	2.337220E-16
3.776877E+03	5.162833E-15	2.396460E-16
3.786790E+03	5.366001E-15	2.468837E-16
3.796703E+03	5.600847E-15	2.553940E-16
3.806616E+03	5.865946E-15	2.650730E-16
3.816529E+03	6.158132E-15	2.757412E-16
3.826442E+03	6.472845E-15	2.871622E-16
3.836355E+03	6.803546E-15	2.990205E-16
3.846268E+03	7.142308E-15	3.109506E-16
3.856181E+03	7.479943E-15	3.225459E-16
3.866094E+03	7.806133E-15	3.333668E-16
3.876007E+03	8.110510E-15	3.429891E-16
3.885920E+03	8.383374E-15	3.510338E-16
3.895834E+03	8.616105E-15	3.571833E-16
3.905747E+03	8.802143E-15	3.612188E-16
3.915660E+03	8.937060E-15	3.630194E-16
3.925573E+03	9.018888E-15	3.625708E-16
3.935486E+03	9.048533E-15	3.599763E-16
3.945399E+03	9.029368E-15	3.554350E-16
3.955312E+03	8.967202E-15	3.492352E-16
3.965225E+03	8.869652E-15	3.417252E-16
3.975138E+03	8.746028E-15	3.333051E-16
3.985051E+03	8.606322E-15	3.243850E-16
3.994964E+03	8.460405E-15	3.153536E-16
4.004877E+03	8.317669E-15	3.065659E-16
4.014790E+03	8.186149E-15	2.983112E-16
4.024703E+03	8.072866E-15	2.908293E-16
4.034616E+03	7.983154E-15	2.842881E-16
4.044529E+03	7.921133E-15	2.788041E-16
4.054443E+03	7.889504E-15	2.744378E-16
4.064356E+03	7.889569E-15	2.711974E-16
4.074269E+03	7.921576E-15	2.690533E-16
4.084182E+03	7.984250E-15	2.679250E-16
4.094095E+03	8.074989E-15	2.676903E-16
4.104008E+03	8.189923E-15	2.681900E-16
4.113921E+03	8.324210E-15	2.692404E-16
4.123834E+03	8.471948E-15	2.706319E-16
4.133747E+03	8.626648E-15	2.721463E-16
4.143660E+03	8.781296E-15	2.735596E-16
4.153573E+03	8.928757E-15	2.746556E-16
4.163486E+03	9.062249E-15	2.752397E-16
4.173399E+03	9.175101E-15	2.751314E-16
4.183312E+03	9.261280E-15	2.741793E-16
4.193225E+03	9.315710E-15	2.722684E-16
4.203138E+03	9.333968E-15	2.693101E-16
4.213052E+03	9.312980E-15	2.652598E-16
4.222965E+03	9.250715E-15	2.601062E-16
4.232878E+03	9.146477E-15	2.538766E-16
4.242791E+03	9.001118E-15	2.466408E-16
4.252704E+03	8.816920E-15	2.385045E-16
4.262617E+03	8.597992E-15	2.296179E-16
4.272530E+03	8.349970E-15	2.201642E-16
4.282443E+03	8.080294E-15	2.103647E-16
4.292356E+03	7.797731E-15	2.004637E-16
4.302269E+03	7.512307E-15	1.907253E-16
4.312182E+03	7.234447E-15	1.814100E-16
4.322095E+03	6.974721E-15	1.727689E-16
4.332008E+03	6.743382E-15	1.650327E-16
4.341921E+03	6.550222E-15	1.584097E-16
4.351834E+03	6.403543E-15	1.530623E-16
4.361747E+03	6.310060E-15	1.491085E-16
4.371661E+03	6.275183E-15	1.466304E-16
4.381574E+03	6.302657E-15	1.456692E-16
4.391487E+03	6.394861E-15	1.462343E-16
4.401400E+03	6.552855E-15	1.483065E-16
4.411313E+03	6.776116E-15	1.518342E-16
4.421226E+03	7.062395E-15	1.567319E-16
4.431139E+03	7.407662E-15	1.628810E-16
4.441052E+03	7.806800E-15	1.701465E-16
4.450965E+03	8.257370E-15	1.784591E-16
4.460878E+03	8.757879E-15	1.877743E-16
4.470791E+03	9.305950E-15	1.980296E-16
4.480704E+03	9.896845E-15	2.091155E-16
4.490617E+03	1.052257E-14	2.208584E-16
4.500530E+03	1.117179E-14	2.330209E-16
4.510443E+03	1.182904E-14	2.452859E-16
4.520356E+03	1.247519E-14	2.572673E-16
4.530270E+03	1.308780E-14	2.685185E-16
4.540183E+03	1.364249E-14	2.785603E-16
4.550096E+03	1.411434E-14	2.869085E-16
4.560009E+03	1.448036E-14	2.931227E-16
4.569922E+03	1.472168E-14	2.968490E-16
4.579835E+03	1.482545E-14	2.978556E-16
4.589748E+03	1.478675E-14	2.960681E-16
4.599661E+03	1.460925E-14	2.915814E-16
4.609574E+03	1.430445E-14	2.846415E-16
4.619487E+03	1.388938E-14	2.755985E-16
4.629400E+03	1.338543E-14	2.648841E-16
4.639313E+03	1.281589E-14	2.529615E-16
4.649226E+03	1.220438E-14	2.402960E-16
4.659139E+03	1.157292E-14	2.273174E-16
4.669052E+03	1.094156E-14	2.144137E-16
4.678965E+03	1.032686E-14	2.019019E-16
4.688879E+03	9.742259E-15	1.900369E-16
4.698792E+03	9.197806E-15	1.790057E-16
4.708705E+03	8.700726E-15	1.689401E-16
4.718618E+03	8.255467E-15	1.599175E-16
4.728531E+03	7.864479E-15	1.519764E-16
4.738444E+03	7.528571E-15	1.451237E-16
4.748357E+03	7.247310E-15	1.393423E-16
4.758270E+03	7.019498E-15	1.346004E-16
4.768183E+03	6.843118E-15	1.308507E-16
4.778096E+03	6.715610E-15	1.280356E-16
4.788009E+03	6.634166E-15	1.260929E-16
4.797922E+03	6.595612E-15	1.249536E-16
4.807835E+03	6.596293E-15	1.245397E-16
4.817748E+03	6.632027E-15	1.247638E-16
4.827661E+03	6.697223E-15	1.255125E-16
4.837574E+03	6.784983E-15	1.266490E-16
4.847488E+03	6.886862E-15	1.280095E-16
4.857401E+03	6.993396E-15	1.294136E-16
4.867314E+03	7.094605E-15	1.306743E-16
4.877227E+03	7.180803E-15	1.316138E-16
4.887140E+03	7.243425E-15	1.320783E-16
4.897053E+03	7.276250E-15	1.319607E-16
4.906966E+03	7.275776E-15	1.312059E-16
4.916879E+03	7.241791E-15	1.298201E-16
4.926792E+03	7.177350E-15	1.278690E-16
4.936705E+03	7.088256E-15	1.254664E-16
4.946618E+03	6.982565E-15	1.227636E-16
4.956531E+03	6.869423E-15	1.199279E-16
4.966444E+03	6.758367E-15	1.171292E-16
4.976357E+03	6.658311E-15	1.145218E-16
4.986270E+03	6.577099E-15	1.122372E-16
4.996183E+03	6.521273E-15	1.103801E-16
5.006097E+03	6.496123E-15	1.090302E-16
5.016010E+03	6.506012E-15	1.082484E-16
5.025923E+03	6.554524E-15	1.080795E-16
5.035836E+03	6.644813E-15	1.085586E-16
5.045749E+03	6.779988E-15	1.097176E-16
5.055662E+03	6.963024E-15	1.115838E-16
5.065575E+03	7.196750E-15	1.141801E-16
5.075488E+03	7.483596E-15	1.175208E-16
5.085401E+03	7.825586E-15	1.216123E-16
5.095314E+03	8.223269E-15	1.264369E-16
5.105227E+03	8.675824E-15	1.319562E-16
5.115140E+03	9.180083E-15	1.380973E-16
5.125053E+03	9.730146E-15	1.447498E-16
5.134966E+03	1.031712E-14	1.517641E-16
5.144879E+03	1.092910E-14	1.589543E-16
5.154792E+03	1.155117E-14	1.661005E-16
5.164706E+03	1.216662E-14	1.729689E-16
5.174619E+03	1.275742E-14	1.793199E-16
5.184532E+03	1.330547E-14	1.849256E-16
5.194445E+03	1.379372E-14	1.895852E-16
5.204358E+03	1.420759E-14	1.931428E-16
5.214271E+03	1.453516E-14	1.954861E-16
5.224184E+03	1.476875E-14	1.965660E-16
5.234097E+03	1.490394E-14	1.963780E-16
5.244010E+03	1.494023E-14	1.949686E-16
5.253923E+03	1.488011E-14	1.924193E-16
5.263836E+03	1.472838E-14	1.888360E-16
5.273749E+03	1.449259E-14	1.843519E-16
5.283662E+03	1.418147E-14	1.791068E-16
5.293575E+03	1.380585E-14	1.732583E-16
5.303488E+03	1.337889E-14	1.669833E-16
5.313401E+03	1.291574E-14	1.604749E-16
5.323315E+03	1.243388E-14	1.539468E-16
5.333228E+03	1.195300E-14	1.476332E-16
5.343141E+03	1.149482E-14	1.417867E-16
5.353054E+03	1.108090E-14	1.366487E-16
5.362967E+03	1.073082E-14	1.324365E-16
5.372880E+03	1.045811E-14	1.292984E-16
5.382793E+03	1.025926E-14	1.271783E-16
5.392706E+03	1.011685E-14	1.258522E-16
5.402619E+03	1.001147E-14	1.250722E-16
5.412532E+03	9.925353E-15	1.246099E-16
5.422445E+03	9.843058E-15	1.242635E-16
5.432358E+03	9.752506E-15	1.238702E-16
5.442271E+03	9.644389E-15	1.232993E-16
5.452184E+03	9.512655E-15	1.224589E-16
5.462097E+03	9.353767E-15	1.212872E-16
5.472010E+03	9.166632E-15	1.197531E-16
5.481924E+03	8.952326E-15	1.178538E-16
5.491837E+03	8.713346E-15	1.156059E-16
5.501750E+03	8.453343E-15	1.130432E-16
5.511663E+03	8.176915E-15	1.102143E-16
5.521576E+03	7.888724E-15	1.071715E-16
5.531489E+03	7.593585E-15	1.039722E-16
5.541402E+03	7.296165E-15	1.006746E-16
5.551315E+03	7.000848E-15	9.733572E-17
5.561228E+03	6.711672E-15	9.401064E-17
5.571141E+03	6.432317E-15	9.075161E-17
5.581054E+03	6.166113E-15	8.760805E-17
5.590967E+03	5.916065E-15	8.462649E-17
5.600880E+03	5.684916E-15	8.185116E-17
5.610793E+03	5.475189E-15	7.932431E-17
5.620706E+03	5.289248E-15	7.708677E-17
5.630619E+03	5.129147E-15	7.517549E-17
5.640533E+03	4.996774E-15	7.362538E-17
5.650446E+03	4.894070E-15	7.247229E-17
5.660359E+03	4.822476E-15	7.174467E-17
5.670272E+03	4.783571E-15	7.147274E-17
5.680185E+03	4.778467E-15	7.167933E-17
5.690098E+03	4.808373E-15	7.238815E-17
5.700011E+03	4.873888E-15	7.361296E-17
5.709924E+03	4.975610E-15	7.536668E-17
5.719837E+03	5.113534E-15	7.765207E-17
5.729750E+03	5.287046E-15	8.046160E-17
5.739663E+03	5.494870E-15	8.377648E-17
5.749576E+03	5.734747E-15	8.756179E-17
5.759489E+03	6.003045E-15	9.176050E-17
5.769402E+03	6.294869E-15	9.629523E-17
5.779315E+03	6.604210E-15	1.010707E-16
5.789228E+03	6.923919E-15	1.059738E-16
5.799142E+03	7.246151E-15	1.108804E-16
5.809055E+03	7.562413E-15	1.156570E-16
5.818968E+03	7.864087E-15	1.201686E-16
5.828881E+03	8.142307E-15	1.242779E-16
5.838794E+03	8.388787E-15	1.278578E-16
5.848707E+03	8.595569E-15	1.307882E-16
5.858620E+03	8.755449E-15	1.329626E-16
5.868533E+03	8.862237E-15	1.342922E-16
5.878446E+03	8.911008E-15	1.347094E-16
5.888359E+03	8.898470E-15	1.341736E-16
5.898272E+03	8.822970E-15	1.326703E-16
5.908185E+03	8.684783E-15	1.302156E-16
5.918098E+03	8.486372E-15	1.268590E-16
5.928011E+03	8.232366E-15	1.226823E-16
5.937924E+03	7.929185E-15	1.177934E-16
5.947837E+03	7.585393E-15	1.123306E-16
5.957751E+03	7.210747E-15	1.064476E-16
5.967664E+03	6.815662E-15	1.003056E-16
5.977577E+03	6.411064E-15	9.407039E-17
5.987490E+03	6.007866E-15	8.790478E-17
5.997403E+03	5.616151E-15	8.195677E-17
6.007316E+03	5.245314E-15	7.636197E-17
6.017229E+03	4.903048E-15	7.122945E-17
6.027142E+03	4.595625E-15	6.664648E-17
6.037055E+03	4.327594E-15	6.267485E-17
6.046968E+03	4.101977E-15	5.935447E-17
6.056881E+03	3.920254E-15	5.670367E-17
6.066794E+03	3.782657E-15	5.472405E-17
6.076707E+03	3.688196E-15	5.340117E-17
6.086620E+03	3.634780E-15	5.270656E-17
6.096533E+03	3.619598E-15	5.260331E-17
6.106446E+03	3.639572E-15	5.305250E-17
6.116360E+03	3.691314E-15	5.401260E-17
6.126273E+03	3.771339E-15	5.544221E-17
6.136186E+03	3.875580E-15	5.729267E-17
6.146099E+03	3.999607E-15	5.951076E-17
6.156012E+03	4.138320E-15	6.203264E-17
6.165925E+03	4.286117E-15	6.478346E-17
6.175838E+03	4.436996E-15	6.767932E-17
6.185751E+03	4.584845E-15	7.063132E-17
6.195664E+03	4.723687E-15	7.354834E-17
6.205577E+03	4.847898E-15	7.633999E-17
6.215490E+03	4.952746E-15	7.892470E-17
6.225403E+03	5.034519E-15	8.123226E-17
6.235316E+03	5.090699E-15	8.320729E-17
6.245229E+03	5.120132E-15	8.481317E-17
6.255142E+03	5.123135E-15	8.603532E-17
6.265055E+03	5.101415E-15	8.688158E-17
6.274969E+03	5.057855E-15	8.738061E-17
6.284882E+03	4.996506E-15	8.758330E-17
6.294795E+03	4.922275E-15	8.755925E-17
6.304708E+03	4.840890E-15	8.739764E-17
6.314621E+03	4.758440E-15	8.720020E-17
6.324534E+03	4.681340E-15	8.708150E-17
6.334447E+03	4.615750E-15	8.715876E-17
6.344360E+03	4.566926E-15	8.753927E-17
6.354273E+03	4.537236E-15	8.828067E-17
6.364186E+03	4.524736E-15	8.935879E-17
6.374099E+03	4.525933E-15	9.071654E-17
6.384012E+03	4.537234E-15	9.229104E-17
6.393925E+03	4.555067E-15	9.401586E-17
6.403838E+03	4.576706E-15	9.583810E-17
6.413751E+03	4.599629E-15	9.770601E-17
6.423664E+03	4.621900E-15	9.957752E-17
6.433578E+03	4.642056E-15	1.014186E-16
6.443491E+03	4.658553E-15	1.031916E-16
6.453404E+03	4.670442E-15	1.048705E-16
6.463317E+03	4.676525E-15	1.064225E-16
6.473230E+03	4.675801E-15	1.078180E-16
6.483143E+03	4.667372E-15	1.090284E-16
6.493056E+03	4.650239E-15	1.100222E-16
6.502969E+03	4.623524E-15	1.107694E-16
6.512882E+03	4.586455E-15	1.112416E-16
6.522795E+03	4.538445E-15	1.114146E-16
6.532708E+03	4.479087E-15	1.112679E-16
6.542621E+03	4.408479E-15	1.107933E-16
6.552534E+03	4.326806E-15	1.099856E-16
6.562447E+03	4.234835E-15	1.088547E-16
6.572360E+03	4.133561E-15	1.074176E-16
6.582273E+03	4.024428E-15	1.057048E-16
6.592187E+03	3.909029E-15	1.037520E-16
6.602100E+03	3.789184E-15	1.016036E-16
6.612013E+03	3.666837E-15	9.930928E-17
6.621926E+03	3.543795E-15	9.691711E-17
6.631839E+03	3.421817E-15	9.447606E-17
6.641752E+03	3.302494E-15	9.203223E-17
6.651665E+03	3.187255E-15	8.962886E-17
6.661578E+03	3.077195E-15	8.730117E-17
6.671491E+03	2.973226E-15	8.508018E-17
6.681404E+03	2.876040E-15	8.299130E-17
6.691317E+03	2.786121E-15	8.105455E-17
6.701230E+03	2.703779E-15	7.928509E-17
6.711143E+03	2.629208E-15	7.769479E-17
6.721056E+03	2.562377E-15	7.628883E-17
6.730969E+03	2.503222E-15	7.507115E-17
6.740882E+03	2.451430E-15	7.403800E-17
6.750796E+03	2.406760E-15	7.318729E-17
6.760709E+03	2.368793E-15	7.251108E-17
6.770622E+03	2.336978E-15	7.199693E-17
6.780535E+03	2.310738E-15	7.163082E-17
6.790448E+03	2.289473E-15	7.139759E-17
6.800361E+03	2.272460E-15	7.127743E-17
6.810274E+03	2.259024E-15	7.125152E-17
6.820187E+03	2.248406E-15	7.129779E-17
6.830100E+03	2.239940E-15	7.139644E-17
6.840013E+03	2.232951E-15	7.152693E-17
6.849926E+03	2.226790E-15	7.166907E-17
6.859839E+03	2.221008E-15	7.180868E-17
6.869752E+03	2.215091E-15	7.192930E-17
6.879665E+03	2.208708E-15	7.201998E-17
6.889578E+03	2.201708E-15	7.207568E-17
6.899491E+03	2.193890E-15	7.208952E-17
6.909405E+03	2.185294E-15	7.206258E-17
6.919318E+03	2.175884E-15	7.199350E-17
6.929231E+03	2.165808E-15	7.188699E-17
6.939144E+03	2.155218E-15	7.174796E-17
6.949057E+03	2.144334E-15	7.158381E-17
6.958970E+03	2.133270E-15	7.139835E-17
6.968883E+03	2.122294E-15	7.120067E-17
6.978796E+03	2.111532E-15	7.099518E-17
6.988709E+03	2.101084E-15	7.078542E-17
6.998622E+03	2.091157E-15	7.057861E-17
7.008535E+03	2.081677E-15	7.037253E-17
7.018448E+03	2.072720E-15	7.016987E-17
7.028361E+03	2.064204E-15	6.996812E-17
7.038274E+03	2.056096E-15	6.976630E-17
7.048187E+03	2.048263E-15	6.956009E-17
7.058100E+03	2.040652E-15	6.934784E-17
7.068014E+03	2.033144E-15	6.912564E-17
7.077927E+03	2.025711E-15	6.889265E-17
7.087840E+03	2.018302E-15	6.864729E-17
7.097753E+03	2.010850E-15	6.838739E-17
7.107666E+03	2.003415E-15	6.811513E-17
7.117579E+03	1.995915E-15	6.782790E-17
7.127492E+03	1.988354E-15	6.752593E-17
7.137405E+03	1.980817E-15	6.721230E-17
7.147318E+03	1.973269E-15	6.688594E-17
7.157231E+03	1.965705E-15	6.654688E-17
7.167144E+03	1.958110E-15	6.619479E-17
7.177057E+03	1.950486E-15	6.582983E-17
7.186970E+03	1.942687E-15	6.544737E-17
7.196883E+03	1.934699E-15	6.504705E-17
7.206796E+03	1.926351E-15	6.462343E-17
7.216709E+03	1.917517E-15	6.417255E-17
7.226623E+03	1.907968E-15	6.368711E-17
7.236536E+03	1.897543E-15	6.316215E-17
7.246449E+03	1.886003E-15	6.259025E-17
7.256362E+03	1.873208E-15	6.196741E-17
7.266275E+03	1.859014E-15	6.128954E-17
7.276188E+03	1.843365E-15	6.055563E-17
7.286101E+03	1.826186E-15	5.976413E-17
7.296014E+03	1.807510E-15	5.891705E-17
7.305927E+03	1.787525E-15	5.802155E-17
7.315840E+03	1.766367E-15	5.708299E-17
7.325753E+03	1.744309E-15	5.611115E-17
7.335666E+03	1.721633E-15	5.511593E-17
7.345579E+03	1.698723E-15	5.411038E-17
7.355492E+03	1.675887E-15	5.310489E-17
7.365405E+03	1.653386E-15	5.210817E-17
7.375318E+03	1.631526E-15	5.113017E-17
7.385232E+03	1.610493E-15	5.017682E-17
7.395145E+03	1.590386E-15	4.925122E-17
7.405058E+03	1.571358E-15	4.835806E-17
7.414971E+03	1.553438E-15	4.749807E-17
7.424884E+03	1.536611E-15	4.667054E-17
7.434797E+03	1.520854E-15	4.587460E-17
7.444710E+03	1.506112E-15	4.510836E-17
7.454623E+03	1.492307E-15	4.436923E-17
7.464536E+03	1.479310E-15	4.365320E-17
7.474449E+03	1.467047E-15	4.295800E-17
7.484362E+03	1.455377E-15	4.227939E-17
7.494275E+03	1.444196E-15	4.161437E-17
7.504188E+03	1.433483E-15	4.096240E-17
7.514101E+03	1.423067E-15	4.031872E-17
7.524014E+03	1.412972E-15	3.968416E-17
7.533927E+03	1.403148E-15	3.905753E-17
7.543841E+03	1.393640E-15	3.844025E-17
7.553754E+03	1.384448E-15	3.783258E-17
7.563667E+03	1.375665E-15	3.723717E-17
7.573580E+03	1.367327E-15	3.665515E-17
7.583493E+03	1.359551E-15	3.608972E-17
7.593406E+03	1.352392E-15	3.554237E-17
7.603319E+03	1.345970E-15	3.501622E-17
7.613232E+03	1.340369E-15	3.451332E-17
7.623145E+03	1.335627E-15	3.403456E-17
7.633058E+03	1.331808E-15	3.358134E-17
7.642971E+03	1.329024E-15	3.315632E-17
7.652884E+03	1.327246E-15	3.275856E-17
7.662797E+03	1.326507E-15	3.238866E-17
7.672710E+03	1.326897E-15	3.204865E-17
7.682623E+03	1.328372E-15	3.173731E-17
7.692536E+03	1.330990E-15	3.145590E-17
