#wls	flux	fluxerr
1.586090E+03	1.265807E-15	1.023355E-16
1.625742E+03	1.022876E-15	8.167663E-17
1.665394E+03	8.180624E-16	6.450625E-17
1.705047E+03	6.479947E-16	5.044964E-17
1.744699E+03	5.089539E-16	3.911772E-17
1.784351E+03	3.969317E-16	3.011371E-17
1.824003E+03	3.078782E-16	2.305337E-17
1.863656E+03	2.380400E-16	1.759040E-17
1.903308E+03	1.839110E-16	1.341152E-17
1.942960E+03	1.424650E-16	1.025201E-17
1.982612E+03	1.111177E-16	7.890665E-18
2.022265E+03	8.773788E-17	6.148376E-18
2.061917E+03	7.063171E-17	4.884782E-18
2.101569E+03	5.855611E-17	3.997013E-18
2.141221E+03	5.060677E-17	3.409992E-18
2.180874E+03	4.617159E-17	3.071731E-18
2.220526E+03	4.488760E-17	2.949173E-18
2.260178E+03	4.675071E-17	3.034238E-18
2.299830E+03	5.204430E-17	3.337820E-18
2.339483E+03	6.143524E-17	3.894763E-18
2.379135E+03	7.606488E-17	4.768216E-18
2.418787E+03	9.758446E-17	6.050335E-18
2.458439E+03	1.279975E-16	7.851066E-18
2.498092E+03	1.693403E-16	1.027778E-17
2.537744E+03	2.230512E-16	1.339736E-17
2.577396E+03	2.889733E-16	1.717880E-17
2.617048E+03	3.647104E-16	2.145996E-17
2.656701E+03	4.462992E-16	2.599304E-17
2.696353E+03	5.293842E-16	3.051667E-17
2.736005E+03	6.095019E-16	3.477295E-17
2.775657E+03	6.828517E-16	3.855127E-17
2.815310E+03	7.466519E-16	4.170637E-17
2.854962E+03	7.992659E-16	4.416264E-17
2.894614E+03	8.402425E-16	4.591316E-17
2.934266E+03	8.703588E-16	4.701879E-17
2.973919E+03	8.912798E-16	4.758636E-17
2.983832E+03	8.953304E-16	4.765966E-17
2.993745E+03	8.990070E-16	4.771111E-17
3.003658E+03	9.023437E-16	4.774267E-17
3.013571E+03	9.053741E-16	4.775624E-17
3.023484E+03	9.081340E-16	4.775384E-17
3.033397E+03	9.107022E-16	4.773971E-17
3.043310E+03	9.131006E-16	4.771505E-17
3.053223E+03	9.154319E-16	4.768530E-17
3.063136E+03	9.176989E-16	4.765059E-17
3.073049E+03	9.199696E-16	4.761447E-17
3.082962E+03	9.223140E-16	4.758052E-17
3.092875E+03	9.247361E-16	4.754889E-17
3.102789E+03	9.273073E-16	4.752319E-17
3.112702E+03	9.300978E-16	4.750689E-17
3.122615E+03	9.331156E-16	4.750029E-17
3.132528E+03	9.364641E-16	4.750849E-17
3.142441E+03	9.401862E-16	4.753347E-17
3.152354E+03	9.443003E-16	4.757592E-17
3.162267E+03	9.489247E-16	4.764159E-17
3.172180E+03	9.541325E-16	4.773381E-17
3.182093E+03	9.600094E-16	4.785655E-17
3.192006E+03	9.666558E-16	4.801438E-17
3.201919E+03	9.742444E-16	4.821543E-17
3.211832E+03	9.829008E-16	4.846535E-17
3.221745E+03	9.927368E-16	4.876901E-17
3.231658E+03	1.003958E-15	4.913577E-17
3.241571E+03	1.016718E-15	4.957239E-17
3.251484E+03	1.031179E-15	5.008580E-17
3.261398E+03	1.047501E-15	5.068268E-17
3.271311E+03	1.065898E-15	5.137231E-17
3.281224E+03	1.086504E-15	5.215979E-17
3.291137E+03	1.109503E-15	5.305265E-17
3.301050E+03	1.135055E-15	5.405699E-17
3.310963E+03	1.163348E-15	5.518018E-17
3.320876E+03	1.194517E-15	5.642685E-17
3.330789E+03	1.228754E-15	5.780423E-17
3.340702E+03	1.266199E-15	5.931695E-17
3.350615E+03	1.307078E-15	6.097352E-17
3.360528E+03	1.351536E-15	6.277840E-17
3.370441E+03	1.399747E-15	6.473735E-17
3.380354E+03	1.451854E-15	6.685454E-17
3.390267E+03	1.508059E-15	6.913656E-17
3.400180E+03	1.568491E-15	7.158663E-17
3.410093E+03	1.633259E-15	7.420680E-17
3.420007E+03	1.702466E-15	7.699883E-17
3.429920E+03	1.776164E-15	7.996196E-17
3.439833E+03	1.854234E-15	8.308774E-17
3.449746E+03	1.936618E-15	8.637049E-17
3.459659E+03	2.023186E-15	8.980143E-17
3.469572E+03	2.113704E-15	9.336706E-17
3.479485E+03	2.207851E-15	9.705046E-17
3.489398E+03	2.305074E-15	1.008246E-16
3.499311E+03	2.404748E-15	1.046599E-16
3.509224E+03	2.505950E-15	1.085144E-16
3.519137E+03	2.607684E-15	1.123438E-16
3.529050E+03	2.708804E-15	1.160981E-16
3.538963E+03	2.808048E-15	1.197234E-16
3.548876E+03	2.904237E-15	1.231707E-16
3.558789E+03	2.996236E-15	1.263937E-16
3.568702E+03	3.082972E-15	1.293499E-16
3.578616E+03	3.163614E-15	1.320079E-16
3.588529E+03	3.237495E-15	1.343437E-16
3.598442E+03	3.304189E-15	1.363442E-16
3.608355E+03	3.363521E-15	1.380069E-16
3.618268E+03	3.415478E-15	1.393361E-16
3.628181E+03	3.460259E-15	1.403449E-16
3.638094E+03	3.498388E-15	1.410592E-16
3.648007E+03	3.530603E-15	1.415134E-16
3.657920E+03	3.557874E-15	1.417501E-16
3.667833E+03	3.581548E-15	1.418261E-16
3.677746E+03	3.603353E-15	1.418119E-16
3.687659E+03	3.625378E-15	1.417906E-16
3.697572E+03	3.649872E-15	1.418493E-16
3.707485E+03	3.679363E-15	1.420837E-16
3.717398E+03	3.716582E-15	1.425949E-16
3.727311E+03	3.764308E-15	1.434827E-16
3.737225E+03	3.825329E-15	1.448449E-16
3.747138E+03	3.902533E-15	1.467798E-16
3.757051E+03	3.998657E-15	1.493769E-16
3.766964E+03	4.116247E-15	1.527161E-16
3.776877E+03	4.257285E-15	1.568535E-16
3.786790E+03	4.423126E-15	1.618201E-16
3.796703E+03	4.613766E-15	1.675960E-16
3.806616E+03	4.827846E-15	1.741122E-16
3.816529E+03	5.062955E-15	1.812635E-16
3.826442E+03	5.315253E-15	1.888961E-16
3.836355E+03	5.579593E-15	1.968141E-16
3.846268E+03	5.849871E-15	2.047937E-16
3.856181E+03	6.118649E-15	2.125709E-16
3.866094E+03	6.378016E-15	2.198736E-16
3.876007E+03	6.619666E-15	2.264247E-16
3.885920E+03	6.836156E-15	2.319856E-16
3.895834E+03	7.020800E-15	2.363511E-16
3.905747E+03	7.168494E-15	2.393765E-16
3.915660E+03	7.275622E-15	2.409721E-16
3.925573E+03	7.340712E-15	2.411229E-16
3.935486E+03	7.364290E-15	2.398807E-16
3.945399E+03	7.348867E-15	2.373611E-16
3.955312E+03	7.298695E-15	2.337328E-16
3.965225E+03	7.219777E-15	2.292156E-16
3.975138E+03	7.119449E-15	2.240648E-16
3.985051E+03	7.005558E-15	2.185435E-16
3.994964E+03	6.885987E-15	2.129075E-16
4.004877E+03	6.768223E-15	2.073913E-16
4.014790E+03	6.658905E-15	2.021958E-16
4.024703E+03	6.563637E-15	1.974831E-16
4.034616E+03	6.486879E-15	1.933750E-16
4.044529E+03	6.432092E-15	1.899590E-16
4.054443E+03	6.401559E-15	1.872843E-16
4.064356E+03	6.396562E-15	1.853683E-16
4.074269E+03	6.417460E-15	1.842008E-16
4.084182E+03	6.463450E-15	1.837383E-16
4.094095E+03	6.532699E-15	1.839092E-16
4.104008E+03	6.622235E-15	1.846124E-16
4.113921E+03	6.728393E-15	1.857309E-16
4.123834E+03	6.846644E-15	1.871284E-16
4.133747E+03	6.971915E-15	1.886591E-16
4.143660E+03	7.098794E-15	1.901735E-16
4.153573E+03	7.221778E-15	1.915259E-16
4.163486E+03	7.335384E-15	1.925770E-16
4.173399E+03	7.434206E-15	1.931955E-16
4.183312E+03	7.513511E-15	1.932730E-16
4.193225E+03	7.568900E-15	1.927145E-16
4.203138E+03	7.596753E-15	1.914493E-16
4.213052E+03	7.594196E-15	1.894284E-16
4.222965E+03	7.559303E-15	1.866292E-16
4.232878E+03	7.490910E-15	1.830489E-16
4.242791E+03	7.389117E-15	1.787162E-16
4.252704E+03	7.255192E-15	1.736869E-16
4.262617E+03	7.091718E-15	1.680461E-16
4.272530E+03	6.902481E-15	1.619040E-16
4.282443E+03	6.692801E-15	1.554020E-16
4.292356E+03	6.469065E-15	1.487006E-16
4.302269E+03	6.238936E-15	1.419826E-16
4.312182E+03	6.010538E-15	1.354340E-16
4.322095E+03	5.792304E-15	1.292402E-16
4.332008E+03	5.592853E-15	1.235831E-16
4.341921E+03	5.420647E-15	1.186341E-16
4.351834E+03	5.283046E-15	1.145343E-16
4.361747E+03	5.186283E-15	1.113950E-16
4.371661E+03	5.135104E-15	1.092921E-16
4.381574E+03	5.133049E-15	1.082734E-16
4.391487E+03	5.182361E-15	1.083587E-16
4.401400E+03	5.284304E-15	1.095475E-16
4.411313E+03	5.439026E-15	1.118172E-16
4.421226E+03	5.645665E-15	1.151267E-16
4.431139E+03	5.902345E-15	1.194167E-16
4.441052E+03	6.207007E-15	1.246276E-16
4.450965E+03	6.558760E-15	1.307262E-16
4.460878E+03	6.957407E-15	1.376958E-16
4.470791E+03	7.402143E-15	1.455092E-16
4.480704E+03	7.890532E-15	1.541081E-16
4.490617E+03	8.417604E-15	1.633867E-16
4.500530E+03	8.975265E-15	1.731822E-16
4.510443E+03	9.551930E-15	1.832692E-16
4.520356E+03	1.013218E-14	1.933540E-16
4.530270E+03	1.069731E-14	2.030867E-16
4.540183E+03	1.122575E-14	2.120696E-16
4.550096E+03	1.169481E-14	2.198902E-16
4.560009E+03	1.208193E-14	2.261445E-16
4.569922E+03	1.236786E-14	2.304958E-16
4.579835E+03	1.253746E-14	2.326870E-16
4.589748E+03	1.258292E-14	2.325986E-16
4.599661E+03	1.250384E-14	2.302475E-16
4.609574E+03	1.230767E-14	2.257924E-16
4.619487E+03	1.200732E-14	2.194881E-16
4.629400E+03	1.162056E-14	2.116733E-16
4.639313E+03	1.116745E-14	2.027233E-16
4.649226E+03	1.066882E-14	1.930219E-16
4.659139E+03	1.014505E-14	1.829400E-16
4.669052E+03	9.614707E-15	1.728112E-16
4.678965E+03	9.093592E-15	1.629159E-16
4.688879E+03	8.594738E-15	1.534821E-16
4.698792E+03	8.127930E-15	1.446775E-16
4.708705E+03	7.700464E-15	1.366239E-16
4.718618E+03	7.316889E-15	1.293935E-16
4.728531E+03	6.980051E-15	1.230276E-16
4.738444E+03	6.691119E-15	1.175377E-16
4.748357E+03	6.449962E-15	1.129123E-16
4.758270E+03	6.255695E-15	1.091268E-16
4.768183E+03	6.106694E-15	1.061440E-16
4.778096E+03	6.000828E-15	1.039180E-16
4.788009E+03	5.935516E-15	1.023955E-16
4.797922E+03	5.908052E-15	1.015213E-16
4.807835E+03	5.915353E-15	1.012345E-16
4.817748E+03	5.953905E-15	1.014670E-16
4.827661E+03	6.018969E-15	1.021308E-16
4.837574E+03	6.104663E-15	1.031197E-16
4.847488E+03	6.203534E-15	1.043023E-16
4.857401E+03	6.307419E-15	1.055378E-16
4.867314E+03	6.407393E-15	1.066752E-16
4.877227E+03	6.494682E-15	1.075690E-16
4.887140E+03	6.561153E-15	1.080875E-16
4.897053E+03	6.600743E-15	1.081362E-16
4.906966E+03	6.609269E-15	1.076539E-16
4.916879E+03	6.585679E-15	1.066320E-16
4.926792E+03	6.531743E-15	1.051087E-16
4.936705E+03	6.452002E-15	1.031661E-16
4.946618E+03	6.352845E-15	1.009143E-16
4.956531E+03	6.242380E-15	9.848855E-17
4.966444E+03	6.129145E-15	9.602730E-17
4.976357E+03	6.021209E-15	9.365823E-17
4.986270E+03	5.925811E-15	9.149263E-17
4.996183E+03	5.849037E-15	8.962060E-17
5.006097E+03	5.796028E-15	8.811487E-17
5.016010E+03	5.770874E-15	8.702963E-17
5.025923E+03	5.776999E-15	8.640685E-17
5.035836E+03	5.817453E-15	8.628092E-17
5.045749E+03	5.895266E-15	8.668419E-17
5.055662E+03	6.013406E-15	8.764631E-17
5.065575E+03	6.174773E-15	8.919423E-17
5.075488E+03	6.382253E-15	9.135306E-17
5.085401E+03	6.638290E-15	9.414011E-17
5.095314E+03	6.945003E-15	9.756687E-17
5.105227E+03	7.302968E-15	1.016225E-16
5.115140E+03	7.711606E-15	1.062802E-16
5.125053E+03	8.168262E-15	1.114858E-16
5.134966E+03	8.667854E-15	1.171545E-16
5.144879E+03	9.202894E-15	1.231727E-16
5.154792E+03	9.762996E-15	1.293937E-16
5.164706E+03	1.033558E-14	1.356485E-16
5.174619E+03	1.090612E-14	1.417502E-16
5.184532E+03	1.145848E-14	1.475003E-16
5.194445E+03	1.197625E-14	1.527053E-16
5.204358E+03	1.244342E-14	1.571856E-16
5.214271E+03	1.284528E-14	1.607857E-16
5.224184E+03	1.316932E-14	1.633836E-16
5.234097E+03	1.340617E-14	1.649006E-16
5.244010E+03	1.354936E-14	1.652957E-16
5.253923E+03	1.359593E-14	1.645706E-16
5.263836E+03	1.354620E-14	1.627645E-16
5.273749E+03	1.340403E-14	1.599551E-16
5.283662E+03	1.317624E-14	1.562501E-16
5.293575E+03	1.287253E-14	1.517845E-16
5.303488E+03	1.250636E-14	1.467309E-16
5.313401E+03	1.209435E-14	1.412911E-16
5.323315E+03	1.165574E-14	1.356906E-16
5.333228E+03	1.121264E-14	1.301822E-16
5.343141E+03	1.078896E-14	1.250345E-16
5.353054E+03	1.040883E-14	1.205140E-16
5.362967E+03	1.009391E-14	1.168541E-16
5.372880E+03	9.858309E-15	1.142042E-16
5.382793E+03	9.698707E-15	1.125163E-16
5.392706E+03	9.597585E-15	1.115813E-16
5.402619E+03	9.533527E-15	1.111462E-16
5.412532E+03	9.486785E-15	1.109768E-16
5.422445E+03	9.440109E-15	1.108663E-16
5.432358E+03	9.379877E-15	1.106478E-16
5.442271E+03	9.295817E-15	1.101911E-16
5.452184E+03	9.181011E-15	1.094032E-16
5.462097E+03	9.031966E-15	1.082298E-16
5.472010E+03	8.847809E-15	1.066469E-16
5.481924E+03	8.630282E-15	1.046616E-16
5.491837E+03	8.382942E-15	1.023036E-16
5.501750E+03	8.110683E-15	9.962006E-17
5.511663E+03	7.819141E-15	9.666932E-17
5.521576E+03	7.514318E-15	9.351648E-17
5.531489E+03	7.202022E-15	9.022670E-17
5.541402E+03	6.887766E-15	8.686402E-17
5.551315E+03	6.576865E-15	8.349238E-17
5.561228E+03	6.273656E-15	8.016567E-17
5.571141E+03	5.982335E-15	7.693793E-17
5.581054E+03	5.706229E-15	7.385386E-17
5.590967E+03	5.448314E-15	7.095506E-17
5.600880E+03	5.211221E-15	6.827990E-17
5.610793E+03	4.997201E-15	6.586274E-17
5.620706E+03	4.808217E-15	6.373493E-17
5.630619E+03	4.645975E-15	6.192502E-17
5.640533E+03	4.511997E-15	6.045941E-17
5.650446E+03	4.407654E-15	5.936279E-17
5.660359E+03	4.334160E-15	5.865775E-17
5.670272E+03	4.292587E-15	5.836498E-17
5.680185E+03	4.283972E-15	5.850446E-17
5.690098E+03	4.309168E-15	5.909344E-17
5.700011E+03	4.368741E-15	6.014488E-17
5.709924E+03	4.463098E-15	6.166903E-17
5.719837E+03	4.592451E-15	6.367295E-17
5.729750E+03	4.756312E-15	6.615334E-17
5.739663E+03	4.953734E-15	6.909981E-17
5.749576E+03	5.182680E-15	7.248591E-17
5.759489E+03	5.440140E-15	7.627074E-17
5.769402E+03	5.721656E-15	8.039211E-17
5.779315E+03	6.021720E-15	8.477215E-17
5.789228E+03	6.333764E-15	8.931718E-17
5.799142E+03	6.650209E-15	9.391855E-17
5.809055E+03	6.962932E-15	9.845929E-17
5.818968E+03	7.263499E-15	1.028178E-16
5.828881E+03	7.543137E-15	1.068674E-16
5.838794E+03	7.793591E-15	1.104891E-16
5.848707E+03	8.006629E-15	1.135646E-16
5.858620E+03	8.174928E-15	1.159890E-16
5.868533E+03	8.292398E-15	1.176757E-16
5.878446E+03	8.354024E-15	1.185540E-16
5.888359E+03	8.356497E-15	1.185784E-16
5.898272E+03	8.298429E-15	1.177315E-16
5.908185E+03	8.180207E-15	1.160217E-16
5.918098E+03	8.004463E-15	1.134895E-16
5.928011E+03	7.775924E-15	1.102056E-16
5.937924E+03	7.500987E-15	1.062643E-16
5.947837E+03	7.187946E-15	1.017864E-16
5.957751E+03	6.845880E-15	9.690369E-17
5.967664E+03	6.484717E-15	9.175897E-17
5.977577E+03	6.114131E-15	8.649096E-17
5.987490E+03	5.744091E-15	8.124187E-17
5.997403E+03	5.383790E-15	7.614225E-17
6.007316E+03	5.041526E-15	7.130958E-17
6.017229E+03	4.724351E-15	6.684344E-17
6.027142E+03	4.438017E-15	6.282494E-17
6.037055E+03	4.186909E-15	5.931612E-17
6.046968E+03	3.973936E-15	5.635851E-17
6.056881E+03	3.800826E-15	5.397752E-17
6.066794E+03	3.668099E-15	5.218230E-17
6.076707E+03	3.575210E-15	5.096772E-17
6.086620E+03	3.520423E-15	5.031266E-17
6.096533E+03	3.501256E-15	5.018634E-17
6.106446E+03	3.515071E-15	5.055653E-17
6.116360E+03	3.558944E-15	5.138777E-17
6.126273E+03	3.629426E-15	5.263765E-17
6.136186E+03	3.722824E-15	5.426068E-17
6.146099E+03	3.834882E-15	5.620328E-17
6.156012E+03	3.960868E-15	5.840459E-17
6.165925E+03	4.095608E-15	6.079626E-17
6.175838E+03	4.233789E-15	6.330487E-17
6.185751E+03	4.369777E-15	6.584922E-17
6.195664E+03	4.498198E-15	6.834906E-17
6.205577E+03	4.613990E-15	7.072581E-17
6.215490E+03	4.712853E-15	7.290910E-17
6.225403E+03	4.791230E-15	7.483685E-17
6.235316E+03	4.846739E-15	7.646232E-17
6.245229E+03	4.878202E-15	7.775542E-17
6.255142E+03	4.885767E-15	7.870557E-17
6.265055E+03	4.870816E-15	7.932144E-17
6.274969E+03	4.835856E-15	7.963035E-17
6.284882E+03	4.784610E-15	7.968103E-17
6.294795E+03	4.721715E-15	7.953991E-17
6.304708E+03	4.652549E-15	7.928929E-17
6.314621E+03	4.583082E-15	7.902583E-17
6.324534E+03	4.519740E-15	7.885900E-17
6.334447E+03	4.468625E-15	7.889802E-17
6.344360E+03	4.434739E-15	7.923789E-17
6.354273E+03	4.420260E-15	7.992716E-17
6.364186E+03	4.423705E-15	8.094964E-17
6.374099E+03	4.441375E-15	8.224715E-17
6.384012E+03	4.469447E-15	8.375624E-17
6.393925E+03	4.504288E-15	8.541376E-17
6.403838E+03	4.542687E-15	8.716155E-17
6.413751E+03	4.581876E-15	8.894719E-17
6.423664E+03	4.619821E-15	9.073023E-17
6.433578E+03	4.654582E-15	9.247021E-17
6.443491E+03	4.684650E-15	9.413357E-17
6.453404E+03	4.708798E-15	9.569110E-17
6.463317E+03	4.725728E-15	9.711107E-17
6.473230E+03	4.734426E-15	9.836645E-17
6.483143E+03	4.733878E-15	9.942933E-17
6.493056E+03	4.722988E-15	1.002692E-16
6.502969E+03	4.701000E-15	1.008620E-16
6.512882E+03	4.667006E-15	1.011796E-16
6.522795E+03	4.620574E-15	1.012039E-16
6.532708E+03	4.561273E-15	1.009164E-16
6.542621E+03	4.489194E-15	1.003101E-16
6.552534E+03	4.404735E-15	9.938506E-17
6.562447E+03	4.308712E-15	9.815165E-17
6.572360E+03	4.202309E-15	9.662950E-17
6.582273E+03	4.086991E-15	9.484599E-17
6.592187E+03	3.964639E-15	9.283970E-17
6.602100E+03	3.837304E-15	9.065498E-17
6.612013E+03	3.706916E-15	8.833520E-17
6.621926E+03	3.575560E-15	8.592916E-17
6.631839E+03	3.445147E-15	8.348321E-17
6.641752E+03	3.317396E-15	8.104063E-17
6.651665E+03	3.193841E-15	7.864155E-17
6.661578E+03	3.075626E-15	7.631756E-17
6.671491E+03	2.963832E-15	7.409959E-17
6.681404E+03	2.859154E-15	7.200952E-17
6.691317E+03	2.762158E-15	7.006644E-17
6.701230E+03	2.673133E-15	6.828268E-17
6.711143E+03	2.592244E-15	6.666739E-17
6.721056E+03	2.519551E-15	6.522704E-17
6.730969E+03	2.454939E-15	6.396340E-17
6.740882E+03	2.398130E-15	6.287381E-17
6.750796E+03	2.348826E-15	6.195467E-17
6.760709E+03	2.306557E-15	6.119751E-17
6.770622E+03	2.270873E-15	6.059394E-17
6.780535E+03	2.241108E-15	6.012934E-17
6.790448E+03	2.216654E-15	5.979018E-17
6.800361E+03	2.196785E-15	5.955924E-17
6.810274E+03	2.180856E-15	5.942092E-17
6.820187E+03	2.168114E-15	5.935633E-17
6.830100E+03	2.157816E-15	5.934633E-17
6.840013E+03	2.149363E-15	5.937532E-17
6.849926E+03	2.142071E-15	5.942503E-17
6.859839E+03	2.135487E-15	5.948322E-17
6.869752E+03	2.129098E-15	5.953578E-17
6.879665E+03	2.122633E-15	5.957520E-17
6.889578E+03	2.115820E-15	5.959376E-17
6.899491E+03	2.108479E-15	5.958634E-17
6.909405E+03	2.100660E-15	5.955420E-17
6.919318E+03	2.092277E-15	5.949482E-17
6.929231E+03	2.083450E-15	5.941154E-17
6.939144E+03	2.074344E-15	5.930901E-17
6.949057E+03	2.065044E-15	5.918968E-17
6.958970E+03	2.055794E-15	5.906063E-17
6.968883E+03	2.046726E-15	5.892574E-17
6.978796E+03	2.038026E-15	5.879051E-17
6.988709E+03	2.029782E-15	5.865760E-17
6.998622E+03	2.022073E-15	5.852946E-17
7.008535E+03	2.014930E-15	5.840716E-17
7.018448E+03	2.008336E-15	5.829035E-17
7.028361E+03	2.002274E-15	5.817868E-17
7.038274E+03	1.996660E-15	5.806978E-17
7.048187E+03	1.991350E-15	5.795964E-17
7.058100E+03	1.986241E-15	5.784527E-17
7.068014E+03	1.981244E-15	5.772418E-17
7.077927E+03	1.976359E-15	5.759645E-17
7.087840E+03	1.971417E-15	5.745725E-17
7.097753E+03	1.966463E-15	5.730790E-17
7.107666E+03	1.961480E-15	5.714802E-17
7.117579E+03	1.956462E-15	5.697755E-17
7.127492E+03	1.951380E-15	5.679569E-17
7.137405E+03	1.946284E-15	5.660399E-17
7.147318E+03	1.941183E-15	5.640283E-17
7.157231E+03	1.936081E-15	5.619241E-17
7.167144E+03	1.930932E-15	5.597154E-17
7.177057E+03	1.925789E-15	5.574182E-17
7.186970E+03	1.920562E-15	5.550077E-17
7.196883E+03	1.915209E-15	5.524732E-17
7.206796E+03	1.909582E-15	5.497737E-17
7.216709E+03	1.903532E-15	5.468678E-17
7.226623E+03	1.896961E-15	5.437297E-17
7.236536E+03	1.889604E-15	5.402865E-17
7.246449E+03	1.881349E-15	5.365094E-17
7.256362E+03	1.871979E-15	5.323406E-17
7.266275E+03	1.861384E-15	5.277536E-17
7.276188E+03	1.849495E-15	5.227345E-17
7.286101E+03	1.836218E-15	5.172624E-17
7.296014E+03	1.821635E-15	5.113673E-17
7.305927E+03	1.805784E-15	5.050668E-17
7.315840E+03	1.788848E-15	4.984181E-17
7.325753E+03	1.771058E-15	4.914929E-17
7.335666E+03	1.752663E-15	4.843659E-17
7.345579E+03	1.733976E-15	4.771293E-17
7.355492E+03	1.715285E-15	4.698659E-17
7.365405E+03	1.696899E-15	4.626643E-17
7.375318E+03	1.679001E-15	4.555761E-17
7.385232E+03	1.661805E-15	4.486610E-17
7.395145E+03	1.645473E-15	4.419629E-17
7.405058E+03	1.630081E-15	4.355024E-17
7.414971E+03	1.615661E-15	4.292871E-17
7.424884E+03	1.602194E-15	4.233112E-17
7.434797E+03	1.589663E-15	4.175687E-17
7.444710E+03	1.578013E-15	4.120448E-17
7.454623E+03	1.567170E-15	4.067190E-17
7.464536E+03	1.556968E-15	4.015477E-17
7.474449E+03	1.547337E-15	3.965134E-17
7.484362E+03	1.538167E-15	3.915880E-17
7.494275E+03	1.529319E-15	3.867372E-17
7.504188E+03	1.520695E-15	3.819386E-17
7.514101E+03	1.512224E-15	3.771761E-17
7.524014E+03	1.503886E-15	3.724475E-17
7.533927E+03	1.495586E-15	3.677325E-17
7.543841E+03	1.487360E-15	3.630428E-17
7.553754E+03	1.479197E-15	3.583795E-17
7.563667E+03	1.471210E-15	3.537726E-17
7.573580E+03	1.463386E-15	3.492224E-17
7.583493E+03	1.455829E-15	3.447566E-17
7.593406E+03	1.448580E-15	3.403871E-17
7.603319E+03	1.441746E-15	3.361415E-17
7.613232E+03	1.435399E-15	3.320386E-17
7.623145E+03	1.429602E-15	3.280946E-17
7.633058E+03	1.424374E-15	3.243155E-17
7.642971E+03	1.419791E-15	3.207199E-17
7.652884E+03	1.415888E-15	3.173174E-17
7.662797E+03	1.412697E-15	3.141165E-17
7.672710E+03	1.410245E-15	3.111246E-17
7.682623E+03	1.408530E-15	3.083433E-17
7.692536E+03	1.407654E-15	3.057969E-17
