#wls	flux	fluxerr
1.586090E+03	6.277718E-16	9.051837E-17
1.625742E+03	5.036197E-16	7.196166E-17
1.665394E+03	4.014062E-16	5.683517E-17
1.705047E+03	3.182375E-16	4.464737E-17
1.744699E+03	2.513416E-16	3.493847E-17
1.784351E+03	1.979426E-16	2.726241E-17
1.824003E+03	1.557272E-16	2.125071E-17
1.863656E+03	1.226174E-16	1.657874E-17
1.903308E+03	9.680318E-17	1.296866E-17
1.942960E+03	7.684652E-17	1.020144E-17
1.982612E+03	6.151474E-17	8.092517E-18
2.022265E+03	4.986926E-17	6.502059E-18
2.061917E+03	4.118409E-17	5.322536E-18
2.101569E+03	3.490460E-17	4.472111E-18
2.141221E+03	3.065376E-17	3.894358E-18
2.180874E+03	2.815041E-17	3.546934E-18
2.220526E+03	2.719852E-17	3.399661E-18
2.260178E+03	2.771377E-17	3.437302E-18
2.299830E+03	2.973012E-17	3.659810E-18
2.339483E+03	3.337552E-17	4.078772E-18
2.379135E+03	3.892564E-17	4.723512E-18
2.418787E+03	4.674313E-17	5.633148E-18
2.458439E+03	5.725413E-17	6.853431E-18
2.498092E+03	7.084769E-17	8.424534E-18
2.537744E+03	8.772596E-17	1.036348E-17
2.577396E+03	1.077731E-16	1.264942E-17
2.617048E+03	1.304402E-16	1.521131E-17
2.656701E+03	1.548616E-16	1.794295E-17
2.696353E+03	1.800793E-16	2.072982E-17
2.736005E+03	2.051175E-16	2.345800E-17
2.775657E+03	2.291190E-16	2.602966E-17
2.815310E+03	2.513987E-16	2.836877E-17
2.854962E+03	2.713635E-16	3.041152E-17
2.894614E+03	2.888447E-16	3.214319E-17
2.934266E+03	3.038371E-16	3.356766E-17
2.973919E+03	3.166844E-16	3.472723E-17
2.983832E+03	3.195909E-16	3.497946E-17
2.993745E+03	3.224452E-16	3.522438E-17
3.003658E+03	3.251998E-16	3.545681E-17
3.013571E+03	3.278938E-16	3.568107E-17
3.023484E+03	3.305092E-16	3.589520E-17
3.033397E+03	3.330885E-16	3.610386E-17
3.043310E+03	3.356377E-16	3.630769E-17
3.053223E+03	3.381804E-16	3.650924E-17
3.063136E+03	3.406984E-16	3.670654E-17
3.073049E+03	3.432608E-16	3.690701E-17
3.082962E+03	3.458500E-16	3.710872E-17
3.092875E+03	3.484484E-16	3.730975E-17
3.102789E+03	3.511258E-16	3.751752E-17
3.112702E+03	3.538650E-16	3.773014E-17
3.122615E+03	3.566779E-16	3.794882E-17
3.132528E+03	3.595767E-16	3.817475E-17
3.142441E+03	3.626021E-16	3.841220E-17
3.152354E+03	3.657373E-16	3.865926E-17
3.162267E+03	3.690232E-16	3.892017E-17
3.172180E+03	3.724716E-16	3.919603E-17
3.182093E+03	3.760652E-16	3.948488E-17
3.192006E+03	3.798443E-16	3.979083E-17
3.201919E+03	3.838495E-16	4.011795E-17
3.211832E+03	3.880330E-16	4.046109E-17
3.221745E+03	3.924638E-16	4.082725E-17
3.231658E+03	3.971518E-16	4.121727E-17
3.241571E+03	4.020770E-16	4.162885E-17
3.251484E+03	4.072774E-16	4.206570E-17
3.261398E+03	4.127310E-16	4.252534E-17
3.271311E+03	4.185042E-16	4.301434E-17
3.281224E+03	4.246032E-16	4.353306E-17
3.291137E+03	4.310025E-16	4.407862E-17
3.301050E+03	4.377356E-16	4.465415E-17
3.310963E+03	4.448043E-16	4.525953E-17
3.320876E+03	4.522086E-16	4.589443E-17
3.330789E+03	4.599775E-16	4.656151E-17
3.340702E+03	4.681073E-16	4.726003E-17
3.350615E+03	4.765920E-16	4.798905E-17
3.360528E+03	4.854863E-16	4.875372E-17
3.370441E+03	4.947163E-16	4.954625E-17
3.380354E+03	5.042999E-16	5.036809E-17
3.390267E+03	5.142854E-16	5.122370E-17
3.400180E+03	5.246223E-16	5.210766E-17
3.410093E+03	5.353225E-16	5.302080E-17
3.420007E+03	5.463641E-16	5.396058E-17
3.429920E+03	5.577919E-16	5.493104E-17
3.439833E+03	5.695529E-16	5.592658E-17
3.449746E+03	5.816654E-16	5.694863E-17
3.459659E+03	5.941558E-16	5.799939E-17
3.469572E+03	6.070235E-16	5.907838E-17
3.479485E+03	6.203414E-16	6.019226E-17
3.489398E+03	6.340827E-16	6.133797E-17
3.499311E+03	6.482925E-16	6.251939E-17
3.509224E+03	6.630175E-16	6.374049E-17
3.519137E+03	6.782709E-16	6.500198E-17
3.529050E+03	6.940684E-16	6.630480E-17
3.538963E+03	7.103894E-16	6.764638E-17
3.548876E+03	7.273230E-16	6.903460E-17
3.558789E+03	7.448175E-16	7.046390E-17
3.568702E+03	7.628938E-16	7.193560E-17
3.578616E+03	7.815763E-16	7.345134E-17
3.588529E+03	8.008923E-16	7.501298E-17
3.598442E+03	8.208736E-16	7.662276E-17
3.608355E+03	8.414831E-16	7.827647E-17
3.618268E+03	8.628329E-16	7.998375E-17
3.628181E+03	8.848952E-16	8.174119E-17
3.638094E+03	9.077564E-16	8.355591E-17
3.648007E+03	9.314341E-16	8.542859E-17
3.657920E+03	9.559878E-16	8.736372E-17
3.667833E+03	9.814434E-16	8.936262E-17
3.677746E+03	1.007866E-15	9.143019E-17
3.687659E+03	1.035364E-15	9.357495E-17
3.697572E+03	1.063926E-15	9.579483E-17
3.707485E+03	1.093621E-15	9.809462E-17
3.717398E+03	1.124511E-15	1.004785E-16
3.727311E+03	1.156650E-15	1.029499E-16
3.737225E+03	1.190045E-15	1.055081E-16
3.747138E+03	1.224731E-15	1.081545E-16
3.757051E+03	1.260722E-15	1.108888E-16
3.766964E+03	1.297977E-15	1.137059E-16
3.776877E+03	1.336469E-15	1.166020E-16
3.786790E+03	1.376109E-15	1.195676E-16
3.796703E+03	1.416818E-15	1.225946E-16
3.806616E+03	1.458493E-15	1.256726E-16
3.816529E+03	1.501000E-15	1.287891E-16
3.826442E+03	1.544092E-15	1.319216E-16
3.836355E+03	1.587625E-15	1.350572E-16
3.846268E+03	1.631393E-15	1.381776E-16
3.856181E+03	1.675080E-15	1.412559E-16
3.866094E+03	1.718452E-15	1.442722E-16
3.876007E+03	1.761312E-15	1.472104E-16
3.885920E+03	1.803335E-15	1.500435E-16
3.895834E+03	1.844344E-15	1.527580E-16
3.905747E+03	1.884044E-15	1.553305E-16
3.915660E+03	1.922262E-15	1.577480E-16
3.925573E+03	1.958908E-15	1.600049E-16
3.935486E+03	1.993792E-15	1.620874E-16
3.945399E+03	2.026863E-15	1.639934E-16
3.955312E+03	2.058120E-15	1.657247E-16
3.965225E+03	2.087605E-15	1.672869E-16
3.975138E+03	2.115315E-15	1.686818E-16
3.985051E+03	2.141428E-15	1.699254E-16
3.994964E+03	2.166018E-15	1.710256E-16
4.004877E+03	2.189374E-15	1.720069E-16
4.014790E+03	2.211574E-15	1.728768E-16
4.024703E+03	2.232941E-15	1.736620E-16
4.034616E+03	2.253617E-15	1.743744E-16
4.044529E+03	2.273832E-15	1.750326E-16
4.054443E+03	2.293803E-15	1.756539E-16
4.064356E+03	2.313684E-15	1.762504E-16
4.074269E+03	2.333648E-15	1.768353E-16
4.084182E+03	2.353837E-15	1.774195E-16
4.094095E+03	2.374358E-15	1.780107E-16
4.104008E+03	2.395189E-15	1.786070E-16
4.113921E+03	2.416452E-15	1.792174E-16
4.123834E+03	2.438045E-15	1.798337E-16
4.133747E+03	2.459966E-15	1.804557E-16
4.143660E+03	2.482084E-15	1.810737E-16
4.153573E+03	2.504280E-15	1.816787E-16
4.163486E+03	2.526406E-15	1.822603E-16
4.173399E+03	2.548335E-15	1.828097E-16
4.183312E+03	2.569787E-15	1.833073E-16
4.193225E+03	2.590651E-15	1.837460E-16
4.203138E+03	2.610678E-15	1.841094E-16
4.213052E+03	2.629624E-15	1.843814E-16
4.222965E+03	2.647436E-15	1.845599E-16
4.232878E+03	2.663855E-15	1.846287E-16
4.242791E+03	2.678829E-15	1.845862E-16
4.252704E+03	2.692165E-15	1.844210E-16
4.262617E+03	2.703924E-15	1.841397E-16
4.272530E+03	2.714041E-15	1.837402E-16
4.282443E+03	2.722593E-15	1.832296E-16
4.292356E+03	2.729670E-15	1.826164E-16
4.302269E+03	2.735527E-15	1.819196E-16
4.312182E+03	2.740378E-15	1.811550E-16
4.322095E+03	2.744680E-15	1.803542E-16
4.332008E+03	2.749000E-15	1.795551E-16
4.341921E+03	2.754045E-15	1.788041E-16
4.351834E+03	2.760678E-15	1.781561E-16
4.361747E+03	2.769805E-15	1.776680E-16
4.371661E+03	2.782298E-15	1.773925E-16
4.381574E+03	2.799118E-15	1.773872E-16
4.391487E+03	2.820962E-15	1.776915E-16
4.401400E+03	2.848652E-15	1.783513E-16
4.411313E+03	2.882755E-15	1.793957E-16
4.421226E+03	2.923761E-15	1.808481E-16
4.431139E+03	2.971992E-15	1.827206E-16
4.441052E+03	3.027653E-15	1.850181E-16
4.450965E+03	3.090719E-15	1.877313E-16
4.460878E+03	3.160966E-15	1.908389E-16
4.470791E+03	3.237936E-15	1.943062E-16
4.480704E+03	3.321104E-15	1.980949E-16
4.490617E+03	3.409662E-15	2.021512E-16
4.500530E+03	3.502558E-15	2.064079E-16
4.510443E+03	3.598645E-15	2.107940E-16
4.520356E+03	3.696554E-15	2.152272E-16
4.530270E+03	3.794819E-15	2.196213E-16
4.540183E+03	3.891759E-15	2.238801E-16
4.550096E+03	3.985774E-15	2.279137E-16
4.560009E+03	4.075147E-15	2.316279E-16
4.569922E+03	4.158162E-15	2.349305E-16
4.579835E+03	4.233369E-15	2.377466E-16
4.589748E+03	4.299443E-15	2.400104E-16
4.599661E+03	4.355190E-15	2.416647E-16
4.609574E+03	4.399912E-15	2.426811E-16
4.619487E+03	4.432956E-15	2.430347E-16
4.629400E+03	4.454334E-15	2.427374E-16
4.639313E+03	4.464059E-15	2.418011E-16
4.649226E+03	4.462789E-15	2.402724E-16
4.659139E+03	4.451192E-15	2.381973E-16
4.669052E+03	4.430279E-15	2.356393E-16
4.678965E+03	4.401354E-15	2.326758E-16
4.688879E+03	4.365675E-15	2.293803E-16
4.698792E+03	4.324674E-15	2.258337E-16
4.708705E+03	4.279735E-15	2.221124E-16
4.718618E+03	4.232154E-15	2.182866E-16
4.728531E+03	4.183291E-15	2.144282E-16
4.738444E+03	4.134238E-15	2.105936E-16
4.748357E+03	4.086003E-15	2.068337E-16
4.758270E+03	4.039435E-15	2.031901E-16
4.768183E+03	3.995227E-15	1.996955E-16
4.778096E+03	3.953907E-15	1.963737E-16
4.788009E+03	3.915850E-15	1.932400E-16
4.797922E+03	3.881283E-15	1.903025E-16
4.807835E+03	3.850304E-15	1.875622E-16
4.817748E+03	3.822891E-15	1.850146E-16
4.827661E+03	3.798885E-15	1.826486E-16
4.837574E+03	3.778174E-15	1.804554E-16
4.847488E+03	3.760417E-15	1.784157E-16
4.857401E+03	3.745324E-15	1.765128E-16
4.867314E+03	3.732625E-15	1.747317E-16
4.877227E+03	3.722014E-15	1.730558E-16
4.887140E+03	3.713208E-15	1.714700E-16
4.897053E+03	3.705961E-15	1.699615E-16
4.906966E+03	3.700042E-15	1.685182E-16
4.916879E+03	3.695372E-15	1.671355E-16
4.926792E+03	3.691943E-15	1.658119E-16
4.936705E+03	3.689711E-15	1.645444E-16
4.946618E+03	3.688876E-15	1.633409E-16
4.956531E+03	3.689557E-15	1.622056E-16
4.966444E+03	3.692110E-15	1.611527E-16
4.976357E+03	3.696881E-15	1.601958E-16
4.986270E+03	3.704227E-15	1.593484E-16
4.996183E+03	3.714637E-15	1.586292E-16
5.006097E+03	3.728584E-15	1.580560E-16
5.016010E+03	3.746521E-15	1.576447E-16
5.025923E+03	3.769022E-15	1.574161E-16
5.035836E+03	3.796528E-15	1.573848E-16
5.045749E+03	3.829454E-15	1.575637E-16
5.055662E+03	3.868335E-15	1.579704E-16
5.065575E+03	3.913453E-15	1.586115E-16
5.075488E+03	3.965100E-15	1.594939E-16
5.085401E+03	4.023536E-15	1.606228E-16
5.095314E+03	4.088886E-15	1.619982E-16
5.105227E+03	4.161172E-15	1.636158E-16
5.115140E+03	4.240261E-15	1.654655E-16
5.125053E+03	4.326028E-15	1.675380E-16
5.134966E+03	4.418038E-15	1.698122E-16
5.144879E+03	4.515907E-15	1.722699E-16
5.154792E+03	4.618973E-15	1.748829E-16
5.164706E+03	4.726487E-15	1.776210E-16
5.174619E+03	4.837629E-15	1.804522E-16
5.184532E+03	4.951370E-15	1.833379E-16
5.194445E+03	5.066642E-15	1.862397E-16
5.204358E+03	5.182372E-15	1.891203E-16
5.214271E+03	5.297360E-15	1.919390E-16
5.224184E+03	5.410467E-15	1.946588E-16
5.234097E+03	5.520670E-15	1.972482E-16
5.244010E+03	5.626985E-15	1.996783E-16
5.253923E+03	5.728507E-15	2.019238E-16
5.263836E+03	5.824554E-15	2.039682E-16
5.273749E+03	5.914693E-15	2.058042E-16
5.283662E+03	5.998578E-15	2.074278E-16
5.293575E+03	6.076187E-15	2.088464E-16
5.303488E+03	6.147557E-15	2.100693E-16
5.313401E+03	6.212950E-15	2.111130E-16
5.323315E+03	6.272801E-15	2.119997E-16
5.333228E+03	6.327485E-15	2.127491E-16
5.343141E+03	6.377505E-15	2.133843E-16
5.353054E+03	6.423124E-15	2.139204E-16
5.362967E+03	6.464778E-15	2.143774E-16
5.372880E+03	6.502627E-15	2.147659E-16
5.382793E+03	6.537086E-15	2.151045E-16
5.392706E+03	6.568426E-15	2.154067E-16
5.402619E+03	6.596978E-15	2.156871E-16
5.412532E+03	6.622567E-15	2.159419E-16
5.422445E+03	6.645049E-15	2.161659E-16
5.432358E+03	6.663806E-15	2.163381E-16
5.442271E+03	6.678330E-15	2.164409E-16
5.452184E+03	6.687764E-15	2.164451E-16
5.462097E+03	6.691419E-15	2.163268E-16
5.472010E+03	6.688572E-15	2.160607E-16
5.481924E+03	6.678590E-15	2.156241E-16
5.491837E+03	6.660980E-15	2.149985E-16
5.501750E+03	6.635492E-15	2.141728E-16
5.511663E+03	6.601953E-15	2.131383E-16
5.521576E+03	6.560614E-15	2.118993E-16
5.531489E+03	6.511764E-15	2.104614E-16
5.541402E+03	6.455989E-15	2.088394E-16
5.551315E+03	6.394151E-15	2.070572E-16
5.561228E+03	6.327171E-15	2.051403E-16
5.571141E+03	6.256246E-15	2.031237E-16
5.581054E+03	6.182623E-15	2.010438E-16
5.590967E+03	6.107621E-15	1.989399E-16
5.600880E+03	6.032516E-15	1.968504E-16
5.610793E+03	5.958691E-15	1.948175E-16
5.620706E+03	5.887469E-15	1.928820E-16
5.630619E+03	5.819898E-15	1.910763E-16
5.640533E+03	5.757138E-15	1.894369E-16
5.650446E+03	5.700026E-15	1.879904E-16
5.660359E+03	5.649287E-15	1.867599E-16
5.670272E+03	5.605462E-15	1.857632E-16
5.680185E+03	5.568955E-15	1.850138E-16
5.690098E+03	5.539856E-15	1.845149E-16
5.700011E+03	5.518112E-15	1.842654E-16
5.709924E+03	5.503516E-15	1.842592E-16
5.719837E+03	5.495608E-15	1.844815E-16
5.729750E+03	5.493624E-15	1.849076E-16
5.739663E+03	5.496835E-15	1.855137E-16
5.749576E+03	5.504229E-15	1.862662E-16
5.759489E+03	5.514588E-15	1.871243E-16
5.769402E+03	5.526623E-15	1.880444E-16
5.779315E+03	5.538942E-15	1.889791E-16
5.789228E+03	5.550151E-15	1.898803E-16
5.799142E+03	5.558719E-15	1.906950E-16
5.809055E+03	5.563140E-15	1.913704E-16
5.818968E+03	5.562145E-15	1.918614E-16
5.828881E+03	5.554415E-15	1.921208E-16
5.838794E+03	5.538855E-15	1.921087E-16
5.848707E+03	5.514522E-15	1.917901E-16
5.858620E+03	5.480770E-15	1.911402E-16
5.868533E+03	5.437275E-15	1.901452E-16
5.878446E+03	5.383943E-15	1.887991E-16
5.888359E+03	5.320857E-15	1.871024E-16
5.898272E+03	5.248538E-15	1.850710E-16
5.908185E+03	5.167706E-15	1.827279E-16
5.918098E+03	5.079255E-15	1.801028E-16
5.928011E+03	4.984312E-15	1.772338E-16
5.937924E+03	4.884147E-15	1.741648E-16
5.947837E+03	4.780116E-15	1.709429E-16
5.957751E+03	4.673620E-15	1.676175E-16
5.967664E+03	4.566010E-15	1.642369E-16
5.977577E+03	4.458597E-15	1.608482E-16
5.987490E+03	4.352749E-15	1.575012E-16
5.997403E+03	4.249590E-15	1.542376E-16
6.007316E+03	4.150120E-15	1.510947E-16
6.017229E+03	4.055242E-15	1.481070E-16
6.027142E+03	3.965709E-15	1.453038E-16
6.037055E+03	3.882121E-15	1.427092E-16
6.046968E+03	3.804931E-15	1.403422E-16
6.056881E+03	3.734450E-15	1.382168E-16
6.066794E+03	3.670854E-15	1.363424E-16
6.076707E+03	3.614164E-15	1.347224E-16
6.086620E+03	3.564366E-15	1.333594E-16
6.096533E+03	3.521274E-15	1.322497E-16
6.106446E+03	3.484663E-15	1.313878E-16
6.116360E+03	3.454270E-15	1.307670E-16
6.126273E+03	3.429676E-15	1.303747E-16
6.136186E+03	3.410493E-15	1.301992E-16
6.146099E+03	3.396304E-15	1.302277E-16
6.156012E+03	3.386755E-15	1.304497E-16
6.165925E+03	3.381422E-15	1.308518E-16
6.175838E+03	3.379825E-15	1.314184E-16
6.185751E+03	3.381687E-15	1.321415E-16
6.195664E+03	3.386597E-15	1.330076E-16
6.205577E+03	3.394289E-15	1.340078E-16
6.215490E+03	3.404483E-15	1.351319E-16
6.225403E+03	3.417022E-15	1.363745E-16
6.235316E+03	3.431740E-15	1.377298E-16
6.245229E+03	3.448594E-15	1.391967E-16
6.255142E+03	3.467525E-15	1.407736E-16
6.265055E+03	3.488587E-15	1.424634E-16
6.274969E+03	3.511799E-15	1.442677E-16
6.284882E+03	3.537276E-15	1.461922E-16
6.294795E+03	3.565063E-15	1.482396E-16
6.304708E+03	3.595278E-15	1.504160E-16
6.314621E+03	3.627974E-15	1.527248E-16
6.324534E+03	3.663130E-15	1.551662E-16
6.334447E+03	3.700741E-15	1.577412E-16
6.344360E+03	3.740740E-15	1.604482E-16
6.354273E+03	3.782905E-15	1.632789E-16
6.364186E+03	3.827039E-15	1.662256E-16
6.374099E+03	3.872853E-15	1.692765E-16
6.384012E+03	3.919967E-15	1.724155E-16
6.393925E+03	3.967903E-15	1.756217E-16
6.403838E+03	4.016141E-15	1.788717E-16
6.413751E+03	4.063945E-15	1.821319E-16
6.423664E+03	4.110692E-15	1.853729E-16
6.433578E+03	4.155517E-15	1.885537E-16
6.443491E+03	4.197518E-15	1.916305E-16
6.453404E+03	4.235814E-15	1.945595E-16
6.463317E+03	4.269479E-15	1.972938E-16
6.473230E+03	4.297664E-15	1.997889E-16
6.483143E+03	4.319567E-15	2.020021E-16
6.493056E+03	4.334466E-15	2.038930E-16
6.502969E+03	4.341739E-15	2.054254E-16
6.512882E+03	4.340936E-15	2.065708E-16
6.522795E+03	4.331693E-15	2.073044E-16
6.532708E+03	4.313801E-15	2.076084E-16
6.542621E+03	4.287205E-15	2.074726E-16
6.552534E+03	4.252063E-15	2.068970E-16
6.562447E+03	4.208690E-15	2.058898E-16
6.572360E+03	4.157395E-15	2.044593E-16
6.582273E+03	4.098870E-15	2.026334E-16
6.592187E+03	4.033673E-15	2.004340E-16
6.602100E+03	3.962654E-15	1.978984E-16
6.612013E+03	3.886582E-15	1.950611E-16
6.621926E+03	3.806370E-15	1.919644E-16
6.631839E+03	3.722903E-15	1.886504E-16
6.641752E+03	3.637062E-15	1.851622E-16
6.651665E+03	3.549753E-15	1.815447E-16
6.661578E+03	3.461705E-15	1.778351E-16
6.671491E+03	3.373811E-15	1.740795E-16
6.681404E+03	3.286680E-15	1.703101E-16
6.691317E+03	3.201012E-15	1.665648E-16
6.701230E+03	3.117263E-15	1.628691E-16
6.711143E+03	3.035968E-15	1.592529E-16
6.721056E+03	2.957457E-15	1.557361E-16
6.730969E+03	2.882025E-15	1.523367E-16
6.740882E+03	2.809926E-15	1.490708E-16
6.750796E+03	2.741274E-15	1.459472E-16
6.760709E+03	2.676191E-15	1.429753E-16
6.770622E+03	2.614709E-15	1.401593E-16
6.780535E+03	2.556781E-15	1.374996E-16
6.790448E+03	2.502388E-15	1.349976E-16
6.800361E+03	2.451479E-15	1.326529E-16
6.810274E+03	2.403877E-15	1.304584E-16
6.820187E+03	2.359487E-15	1.284112E-16
6.830100E+03	2.318171E-15	1.265056E-16
6.840013E+03	2.279748E-15	1.247337E-16
6.849926E+03	2.244130E-15	1.230926E-16
6.859839E+03	2.211137E-15	1.215738E-16
6.869752E+03	2.180623E-15	1.201708E-16
6.879665E+03	2.152450E-15	1.188775E-16
6.889578E+03	2.126488E-15	1.176877E-16
6.899491E+03	2.102616E-15	1.165961E-16
6.909405E+03	2.080729E-15	1.155978E-16
6.919318E+03	2.060727E-15	1.146881E-16
6.929231E+03	2.042501E-15	1.138618E-16
6.939144E+03	2.026032E-15	1.131187E-16
6.949057E+03	2.011203E-15	1.124530E-16
6.958970E+03	1.998018E-15	1.118654E-16
6.968883E+03	1.986383E-15	1.113513E-16
6.978796E+03	1.976265E-15	1.109094E-16
6.988709E+03	1.967693E-15	1.105417E-16
6.998622E+03	1.960567E-15	1.102432E-16
7.008535E+03	1.954954E-15	1.100178E-16
7.018448E+03	1.950792E-15	1.098625E-16
7.028361E+03	1.948069E-15	1.097769E-16
7.038274E+03	1.946779E-15	1.097608E-16
7.048187E+03	1.946940E-15	1.098156E-16
7.058100E+03	1.948486E-15	1.099375E-16
7.068014E+03	1.951430E-15	1.101275E-16
7.077927E+03	1.955777E-15	1.103859E-16
7.087840E+03	1.961420E-15	1.107067E-16
7.097753E+03	1.968409E-15	1.110928E-16
7.107666E+03	1.976618E-15	1.115369E-16
7.117579E+03	1.986053E-15	1.120394E-16
7.127492E+03	1.996626E-15	1.125952E-16
7.137405E+03	2.008270E-15	1.132004E-16
7.147318E+03	2.020878E-15	1.138489E-16
7.157231E+03	2.034363E-15	1.145356E-16
7.167144E+03	2.048661E-15	1.152568E-16
7.177057E+03	2.063640E-15	1.160049E-16
7.186970E+03	2.079165E-15	1.167721E-16
7.196883E+03	2.095151E-15	1.175537E-16
7.206796E+03	2.111428E-15	1.183399E-16
7.216709E+03	2.127937E-15	1.191274E-16
7.226623E+03	2.144504E-15	1.199065E-16
7.236536E+03	2.161018E-15	1.206708E-16
7.246449E+03	2.177338E-15	1.214126E-16
7.256362E+03	2.193395E-15	1.221282E-16
7.266275E+03	2.209063E-15	1.228107E-16
7.276188E+03	2.224256E-15	1.234555E-16
7.286101E+03	2.238868E-15	1.240570E-16
7.296014E+03	2.252802E-15	1.246102E-16
7.305927E+03	2.266035E-15	1.251142E-16
7.315840E+03	2.278459E-15	1.255634E-16
7.325753E+03	2.290108E-15	1.259603E-16
7.335666E+03	2.300863E-15	1.262989E-16
7.345579E+03	2.310781E-15	1.265828E-16
7.355492E+03	2.319795E-15	1.268090E-16
7.365405E+03	2.327952E-15	1.269808E-16
7.375318E+03	2.335239E-15	1.270982E-16
7.385232E+03	2.341718E-15	1.271652E-16
7.395145E+03	2.347431E-15	1.271850E-16
7.405058E+03	2.352428E-15	1.271609E-16
7.414971E+03	2.356766E-15	1.270968E-16
7.424884E+03	2.360511E-15	1.269971E-16
7.434797E+03	2.363807E-15	1.268702E-16
7.444710E+03	2.366664E-15	1.267175E-16
7.454623E+03	2.369242E-15	1.265483E-16
7.464536E+03	2.371634E-15	1.263682E-16
7.474449E+03	2.373934E-15	1.261830E-16
7.484362E+03	2.376315E-15	1.260026E-16
7.494275E+03	2.378802E-15	1.258289E-16
7.504188E+03	2.381529E-15	1.256696E-16
7.514101E+03	2.384622E-15	1.255321E-16
7.524014E+03	2.388166E-15	1.254214E-16
7.533927E+03	2.392236E-15	1.253422E-16
7.543841E+03	2.396928E-15	1.252999E-16
7.553754E+03	2.402250E-15	1.252957E-16
7.563667E+03	2.408266E-15	1.253335E-16
7.573580E+03	2.414943E-15	1.254122E-16
7.583493E+03	2.422338E-15	1.255357E-16
7.593406E+03	2.430373E-15	1.257004E-16
7.603319E+03	2.438977E-15	1.259037E-16
7.613232E+03	2.448095E-15	1.261435E-16
7.623145E+03	2.457569E-15	1.264127E-16
7.633058E+03	2.467252E-15	1.267047E-16
7.642971E+03	2.477011E-15	1.270137E-16
7.652884E+03	2.486614E-15	1.273291E-16
7.662797E+03	2.495885E-15	1.276430E-16
7.672710E+03	2.504551E-15	1.279430E-16
7.682623E+03	2.512368E-15	1.282177E-16
7.692536E+03	2.519076E-15	1.284552E-16
