#wls	flux	fluxerr
1.586090E+03	5.732342E-16	1.000158E-16
1.625742E+03	4.606070E-16	7.981212E-17
1.665394E+03	3.681558E-16	6.334960E-17
1.705047E+03	2.928970E-16	5.004681E-17
1.744699E+03	2.322939E-16	3.941189E-17
1.784351E+03	1.838505E-16	3.097168E-17
1.824003E+03	1.454607E-16	2.433006E-17
1.863656E+03	1.152251E-16	1.913523E-17
1.903308E+03	9.155745E-17	1.509612E-17
1.942960E+03	7.312200E-17	1.197033E-17
1.982612E+03	5.884873E-17	9.565069E-18
2.022265E+03	4.788026E-17	7.727030E-18
2.061917E+03	3.958379E-17	6.343028E-18
2.101569E+03	3.347852E-17	5.327125E-18
2.141221E+03	2.924128E-17	4.620623E-18
2.180874E+03	2.661029E-17	4.176059E-18
2.220526E+03	2.539941E-17	3.959024E-18
2.260178E+03	2.550171E-17	3.948344E-18
2.299830E+03	2.687670E-17	4.133636E-18
2.339483E+03	2.957634E-17	4.518901E-18
2.379135E+03	3.374336E-17	5.121791E-18
2.418787E+03	3.959351E-17	5.970448E-18
2.458439E+03	4.737024E-17	7.096323E-18
2.498092E+03	5.728328E-17	8.524852E-18
2.537744E+03	6.943404E-17	1.026455E-17
2.577396E+03	8.368112E-17	1.228773E-17
2.617048E+03	9.962381E-17	1.452924E-17
2.656701E+03	1.167163E-16	1.690428E-17
2.696353E+03	1.343817E-16	1.932551E-17
2.736005E+03	1.520838E-16	2.171357E-17
2.775657E+03	1.692832E-16	2.399066E-17
2.815310E+03	1.855770E-16	2.610032E-17
2.854962E+03	2.006430E-16	2.799909E-17
2.894614E+03	2.143148E-16	2.966649E-17
2.934266E+03	2.266567E-16	3.111459E-17
2.973919E+03	2.378372E-16	3.236947E-17
2.983832E+03	2.404930E-16	3.265904E-17
2.993745E+03	2.431165E-16	3.294218E-17
3.003658E+03	2.456897E-16	3.321647E-17
3.013571E+03	2.482191E-16	3.348280E-17
3.023484E+03	2.507606E-16	3.374871E-17
3.033397E+03	2.532492E-16	3.400547E-17
3.043310E+03	2.557621E-16	3.426342E-17
3.053223E+03	2.582665E-16	3.451814E-17
3.063136E+03	2.607938E-16	3.477381E-17
3.073049E+03	2.633510E-16	3.503132E-17
3.082962E+03	2.659203E-16	3.528825E-17
3.092875E+03	2.685590E-16	3.555215E-17
3.102789E+03	2.712242E-16	3.581727E-17
3.112702E+03	2.739737E-16	3.609118E-17
3.122615E+03	2.767644E-16	3.636811E-17
3.132528E+03	2.796544E-16	3.665560E-17
3.142441E+03	2.826257E-16	3.695120E-17
3.152354E+03	2.857114E-16	3.725910E-17
3.162267E+03	2.888932E-16	3.757677E-17
3.172180E+03	2.922038E-16	3.790838E-17
3.182093E+03	2.956247E-16	3.825132E-17
3.192006E+03	2.991885E-16	3.860967E-17
3.201919E+03	3.029016E-16	3.898411E-17
3.211832E+03	3.067707E-16	3.937528E-17
3.221745E+03	3.108279E-16	3.978712E-17
3.231658E+03	3.150263E-16	4.021339E-17
3.241571E+03	3.194237E-16	4.066128E-17
3.251484E+03	3.240250E-16	4.113118E-17
3.261398E+03	3.288347E-16	4.162337E-17
3.271311E+03	3.338291E-16	4.213461E-17
3.281224E+03	3.390653E-16	4.267184E-17
3.291137E+03	3.445182E-16	4.323160E-17
3.301050E+03	3.502166E-16	4.381721E-17
3.310963E+03	3.561610E-16	4.442843E-17
3.320876E+03	3.623509E-16	4.506485E-17
3.330789E+03	3.687847E-16	4.572596E-17
3.340702E+03	3.754880E-16	4.641459E-17
3.350615E+03	3.824573E-16	4.712995E-17
3.360528E+03	3.896879E-16	4.787108E-17
3.370441E+03	3.972029E-16	4.864048E-17
3.380354E+03	4.049959E-16	4.943697E-17
3.390267E+03	4.130592E-16	5.025921E-17
3.400180E+03	4.214142E-16	5.110943E-17
3.410093E+03	4.300526E-16	5.198619E-17
3.420007E+03	4.389654E-16	5.288802E-17
3.429920E+03	4.481746E-16	5.381716E-17
3.439833E+03	4.577040E-16	5.477602E-17
3.449746E+03	4.675180E-16	5.575987E-17
3.459659E+03	4.776757E-16	5.677535E-17
3.469572E+03	4.881463E-16	5.781827E-17
3.479485E+03	4.989943E-16	5.889581E-17
3.489398E+03	5.101916E-16	6.000406E-17
3.499311E+03	5.217416E-16	6.114294E-17
3.509224E+03	5.337130E-16	6.231993E-17
3.519137E+03	5.460780E-16	6.353113E-17
3.529050E+03	5.588740E-16	6.478033E-17
3.538963E+03	5.720726E-16	6.606355E-17
3.548876E+03	5.857112E-16	6.738451E-17
3.558789E+03	5.997950E-16	6.874311E-17
3.568702E+03	6.142958E-16	7.013543E-17
3.578616E+03	6.292521E-16	7.156522E-17
3.588529E+03	6.446721E-16	7.303266E-17
3.598442E+03	6.604963E-16	7.453032E-17
3.608355E+03	6.768036E-16	7.606640E-17
3.618268E+03	6.936076E-16	7.764165E-17
3.628181E+03	7.108580E-16	7.924967E-17
3.638094E+03	7.286460E-16	8.089984E-17
3.648007E+03	7.469289E-16	8.258658E-17
3.657920E+03	7.657746E-16	8.431656E-17
3.667833E+03	7.851872E-16	8.608931E-17
3.677746E+03	8.052483E-16	8.791279E-17
3.687659E+03	8.259751E-16	8.978785E-17
3.697572E+03	8.474253E-16	9.171965E-17
3.707485E+03	8.696609E-16	9.371368E-17
3.717398E+03	8.927480E-16	9.577579E-17
3.727311E+03	9.167155E-16	9.790768E-17
3.737225E+03	9.416259E-16	1.001146E-16
3.747138E+03	9.675352E-16	1.024009E-16
3.757051E+03	9.944512E-16	1.047658E-16
3.766964E+03	1.022440E-15	1.072147E-16
3.776877E+03	1.051475E-15	1.097429E-16
3.786790E+03	1.081542E-15	1.123473E-16
3.796703E+03	1.112598E-15	1.150218E-16
3.806616E+03	1.144493E-15	1.177492E-16
3.816529E+03	1.177197E-15	1.205252E-16
3.826442E+03	1.210492E-15	1.233259E-16
3.836355E+03	1.244243E-15	1.261368E-16
3.846268E+03	1.278168E-15	1.289285E-16
3.856181E+03	1.312116E-15	1.316855E-16
3.866094E+03	1.345722E-15	1.343709E-16
3.876007E+03	1.378804E-15	1.369673E-16
3.885920E+03	1.411023E-15	1.394415E-16
3.895834E+03	1.442126E-15	1.417703E-16
3.905747E+03	1.471881E-15	1.439323E-16
3.915660E+03	1.500086E-15	1.459098E-16
3.925573E+03	1.526535E-15	1.476855E-16
3.935486E+03	1.551110E-15	1.492505E-16
3.945399E+03	1.573705E-15	1.505976E-16
3.955312E+03	1.594308E-15	1.517288E-16
3.965225E+03	1.612965E-15	1.526514E-16
3.975138E+03	1.629731E-15	1.533739E-16
3.985051E+03	1.644752E-15	1.539130E-16
3.994964E+03	1.658176E-15	1.542850E-16
4.004877E+03	1.670263E-15	1.545168E-16
4.014790E+03	1.681178E-15	1.546257E-16
4.024703E+03	1.691219E-15	1.546408E-16
4.034616E+03	1.700608E-15	1.545840E-16
4.044529E+03	1.709601E-15	1.544793E-16
4.054443E+03	1.718403E-15	1.543461E-16
4.064356E+03	1.727235E-15	1.542042E-16
4.074269E+03	1.736289E-15	1.540710E-16
4.084182E+03	1.745687E-15	1.539569E-16
4.094095E+03	1.755590E-15	1.538755E-16
4.104008E+03	1.766044E-15	1.538302E-16
4.113921E+03	1.777057E-15	1.538208E-16
4.123834E+03	1.788704E-15	1.538530E-16
4.133747E+03	1.800841E-15	1.539137E-16
4.143660E+03	1.813466E-15	1.540020E-16
4.153573E+03	1.826401E-15	1.541021E-16
4.163486E+03	1.839575E-15	1.542079E-16
4.173399E+03	1.852788E-15	1.543024E-16
4.183312E+03	1.865821E-15	1.543676E-16
4.193225E+03	1.878543E-15	1.543932E-16
4.203138E+03	1.890679E-15	1.543575E-16
4.213052E+03	1.902097E-15	1.542509E-16
4.222965E+03	1.912535E-15	1.540538E-16
4.232878E+03	1.921890E-15	1.537596E-16
4.242791E+03	1.930017E-15	1.533589E-16
4.252704E+03	1.936781E-15	1.528432E-16
4.262617E+03	1.942160E-15	1.522132E-16
4.272530E+03	1.946153E-15	1.514714E-16
4.282443E+03	1.948859E-15	1.506279E-16
4.292356E+03	1.950411E-15	1.496953E-16
4.302269E+03	1.951018E-15	1.486915E-16
4.312182E+03	1.950974E-15	1.476406E-16
4.322095E+03	1.950733E-15	1.465780E-16
4.332008E+03	1.950757E-15	1.455386E-16
4.341921E+03	1.951674E-15	1.445689E-16
4.351834E+03	1.954123E-15	1.437147E-16
4.361747E+03	1.958874E-15	1.430298E-16
4.371661E+03	1.966642E-15	1.425631E-16
4.381574E+03	1.978095E-15	1.423579E-16
4.391487E+03	1.993929E-15	1.424585E-16
4.401400E+03	2.014729E-15	1.429001E-16
4.411313E+03	2.041083E-15	1.437165E-16
4.421226E+03	2.073408E-15	1.449288E-16
4.431139E+03	2.112146E-15	1.465589E-16
4.441052E+03	2.157554E-15	1.486151E-16
4.450965E+03	2.209668E-15	1.510904E-16
4.460878E+03	2.268445E-15	1.539723E-16
4.470791E+03	2.333608E-15	1.572330E-16
4.480704E+03	2.404767E-15	1.608376E-16
4.490617E+03	2.481250E-15	1.647334E-16
4.500530E+03	2.562288E-15	1.688630E-16
4.510443E+03	2.646847E-15	1.731531E-16
4.520356E+03	2.733739E-15	1.775225E-16
4.530270E+03	2.821560E-15	1.818787E-16
4.540183E+03	2.908757E-15	1.861219E-16
4.550096E+03	2.993745E-15	1.901534E-16
4.560009E+03	3.074809E-15	1.938688E-16
4.569922E+03	3.150292E-15	1.971701E-16
4.579835E+03	3.218582E-15	1.999653E-16
4.589748E+03	3.278268E-15	2.021777E-16
4.599661E+03	3.328177E-15	2.037472E-16
4.609574E+03	3.367430E-15	2.046337E-16
4.619487E+03	3.395443E-15	2.048163E-16
4.629400E+03	3.412084E-15	2.043020E-16
4.639313E+03	3.417505E-15	2.031145E-16
4.649226E+03	3.412247E-15	2.013004E-16
4.659139E+03	3.397164E-15	1.989232E-16
4.669052E+03	3.373367E-15	1.960598E-16
4.678965E+03	3.342120E-15	1.927940E-16
4.688879E+03	3.304892E-15	1.892190E-16
4.698792E+03	3.263124E-15	1.854238E-16
4.708705E+03	3.218291E-15	1.814969E-16
4.718618E+03	3.171768E-15	1.775185E-16
4.728531E+03	3.124858E-15	1.735626E-16
4.738444E+03	3.078727E-15	1.696935E-16
4.748357E+03	3.034304E-15	1.659604E-16
4.758270E+03	2.992420E-15	1.624060E-16
4.768183E+03	2.953762E-15	1.590634E-16
4.778096E+03	2.918838E-15	1.559554E-16
4.788009E+03	2.887921E-15	1.530913E-16
4.797922E+03	2.861199E-15	1.504759E-16
4.807835E+03	2.838684E-15	1.481041E-16
4.817748E+03	2.820299E-15	1.459663E-16
4.827661E+03	2.805862E-15	1.440479E-16
4.837574E+03	2.795033E-15	1.423265E-16
4.847488E+03	2.787446E-15	1.407788E-16
4.857401E+03	2.782712E-15	1.393811E-16
4.867314E+03	2.780358E-15	1.381064E-16
4.877227E+03	2.779967E-15	1.369309E-16
4.887140E+03	2.781106E-15	1.358311E-16
4.897053E+03	2.783414E-15	1.347875E-16
4.906966E+03	2.786490E-15	1.337794E-16
4.916879E+03	2.790104E-15	1.327947E-16
4.926792E+03	2.794074E-15	1.318244E-16
4.936705E+03	2.798349E-15	1.308656E-16
4.946618E+03	2.802911E-15	1.299172E-16
4.956531E+03	2.807874E-15	1.289841E-16
4.966444E+03	2.813475E-15	1.280768E-16
4.976357E+03	2.819971E-15	1.272062E-16
4.986270E+03	2.827756E-15	1.263890E-16
4.996183E+03	2.837246E-15	1.256423E-16
5.006097E+03	2.848904E-15	1.249845E-16
5.016010E+03	2.863186E-15	1.244329E-16
5.025923E+03	2.880653E-15	1.240090E-16
5.035836E+03	2.901746E-15	1.237279E-16
5.045749E+03	2.927012E-15	1.236087E-16
5.055662E+03	2.956914E-15	1.236662E-16
5.065575E+03	2.991821E-15	1.239104E-16
5.075488E+03	3.032219E-15	1.243560E-16
5.085401E+03	3.078350E-15	1.250068E-16
5.095314E+03	3.130597E-15	1.258722E-16
5.105227E+03	3.189111E-15	1.269516E-16
5.115140E+03	3.254103E-15	1.282470E-16
5.125053E+03	3.325563E-15	1.297516E-16
5.134966E+03	3.403489E-15	1.314591E-16
5.144879E+03	3.487779E-15	1.333594E-16
5.154792E+03	3.578152E-15	1.354363E-16
5.164706E+03	3.674239E-15	1.376711E-16
5.174619E+03	3.775554E-15	1.400413E-16
5.184532E+03	3.881487E-15	1.425210E-16
5.194445E+03	3.991358E-15	1.450833E-16
5.204358E+03	4.104341E-15	1.476968E-16
5.214271E+03	4.219480E-15	1.503276E-16
5.224184E+03	4.335796E-15	1.529423E-16
5.234097E+03	4.452320E-15	1.555095E-16
5.244010E+03	4.567992E-15	1.579966E-16
5.253923E+03	4.681879E-15	1.603767E-16
5.263836E+03	4.793077E-15	1.626256E-16
5.273749E+03	4.900741E-15	1.647221E-16
5.283662E+03	5.004270E-15	1.666546E-16
5.293575E+03	5.103131E-15	1.684144E-16
5.303488E+03	5.197086E-15	1.700031E-16
5.313401E+03	5.285994E-15	1.714256E-16
5.323315E+03	5.370017E-15	1.726969E-16
5.333228E+03	5.449394E-15	1.738339E-16
5.343141E+03	5.524632E-15	1.748615E-16
5.353054E+03	5.596246E-15	1.758047E-16
5.362967E+03	5.664940E-15	1.766932E-16
5.372880E+03	5.731325E-15	1.775533E-16
5.382793E+03	5.796088E-15	1.784131E-16
5.392706E+03	5.859635E-15	1.792913E-16
5.402619E+03	5.922161E-15	1.801999E-16
5.412532E+03	5.983628E-15	1.811435E-16
5.422445E+03	6.043614E-15	1.821148E-16
5.432358E+03	6.101610E-15	1.831008E-16
5.442271E+03	6.156845E-15	1.840786E-16
5.452184E+03	6.208309E-15	1.850175E-16
5.462097E+03	6.255036E-15	1.858882E-16
5.472010E+03	6.295836E-15	1.866545E-16
5.481924E+03	6.329484E-15	1.872789E-16
5.491837E+03	6.354772E-15	1.877240E-16
5.501750E+03	6.370593E-15	1.879550E-16
5.511663E+03	6.376009E-15	1.879415E-16
5.521576E+03	6.370326E-15	1.876600E-16
5.531489E+03	6.353085E-15	1.870931E-16
5.541402E+03	6.324306E-15	1.862372E-16
5.551315E+03	6.284312E-15	1.850970E-16
5.561228E+03	6.233738E-15	1.836864E-16
5.571141E+03	6.173753E-15	1.820345E-16
5.581054E+03	6.105647E-15	1.801741E-16
5.590967E+03	6.030958E-15	1.781454E-16
5.600880E+03	5.951574E-15	1.759991E-16
5.610793E+03	5.869302E-15	1.737842E-16
5.620706E+03	5.786022E-15	1.715519E-16
5.630619E+03	5.703552E-15	1.693526E-16
5.640533E+03	5.623647E-15	1.672352E-16
5.650446E+03	5.547765E-15	1.652403E-16
5.660359E+03	5.477254E-15	1.634061E-16
5.670272E+03	5.413094E-15	1.617601E-16
5.680185E+03	5.356042E-15	1.603238E-16
5.690098E+03	5.306618E-15	1.591118E-16
5.700011E+03	5.264991E-15	1.581286E-16
5.709924E+03	5.230987E-15	1.573687E-16
5.719837E+03	5.204248E-15	1.568210E-16
5.729750E+03	5.184049E-15	1.564636E-16
5.739663E+03	5.169513E-15	1.562699E-16
5.749576E+03	5.159445E-15	1.562035E-16
5.759489E+03	5.152565E-15	1.562255E-16
5.769402E+03	5.147401E-15	1.562909E-16
5.779315E+03	5.142341E-15	1.563506E-16
5.789228E+03	5.135782E-15	1.563553E-16
5.799142E+03	5.126199E-15	1.562582E-16
5.809055E+03	5.112054E-15	1.560118E-16
5.818968E+03	5.092047E-15	1.555762E-16
5.828881E+03	5.064928E-15	1.549127E-16
5.838794E+03	5.029891E-15	1.539963E-16
5.848707E+03	4.986258E-15	1.528063E-16
5.858620E+03	4.933645E-15	1.513308E-16
5.868533E+03	4.872123E-15	1.495721E-16
5.878446E+03	4.801819E-15	1.475346E-16
5.888359E+03	4.723425E-15	1.452399E-16
5.898272E+03	4.637599E-15	1.427090E-16
5.908185E+03	4.545439E-15	1.399765E-16
5.918098E+03	4.448068E-15	1.370779E-16
5.928011E+03	4.346732E-15	1.340526E-16
5.937924E+03	4.242823E-15	1.309448E-16
5.947837E+03	4.137671E-15	1.277966E-16
5.957751E+03	4.032623E-15	1.246508E-16
5.967664E+03	3.928924E-15	1.215471E-16
5.977577E+03	3.827800E-15	1.185248E-16
5.987490E+03	3.730246E-15	1.156160E-16
5.997403E+03	3.637228E-15	1.128520E-16
6.007316E+03	3.549495E-15	1.102574E-16
6.017229E+03	3.467640E-15	1.078521E-16
6.027142E+03	3.392143E-15	1.056526E-16
6.037055E+03	3.323332E-15	1.036707E-16
6.046968E+03	3.261333E-15	1.019123E-16
6.056881E+03	3.206210E-15	1.003810E-16
6.066794E+03	3.157908E-15	9.907742E-17
6.076707E+03	3.116200E-15	9.799651E-17
6.086620E+03	3.080867E-15	9.713372E-17
6.096533E+03	3.051539E-15	9.647994E-17
6.106446E+03	3.027783E-15	9.602408E-17
6.116360E+03	3.009139E-15	9.575430E-17
6.126273E+03	2.995140E-15	9.565855E-17
6.136186E+03	2.985261E-15	9.572296E-17
6.146099E+03	2.978945E-15	9.593250E-17
6.156012E+03	2.975702E-15	9.627433E-17
6.165925E+03	2.975017E-15	9.673456E-17
6.175838E+03	2.976485E-15	9.730276E-17
6.185751E+03	2.979738E-15	9.796956E-17
6.195664E+03	2.984523E-15	9.872902E-17
6.205577E+03	2.990650E-15	9.957595E-17
6.215490E+03	2.998023E-15	1.005070E-16
6.225403E+03	3.006709E-15	1.015241E-16
6.235316E+03	3.016769E-15	1.026292E-16
6.245229E+03	3.028437E-15	1.038303E-16
6.255142E+03	3.041941E-15	1.051353E-16
6.265055E+03	3.057547E-15	1.065539E-16
6.274969E+03	3.075587E-15	1.080985E-16
6.284882E+03	3.096284E-15	1.097780E-16
6.294795E+03	3.119836E-15	1.116009E-16
6.304708E+03	3.146443E-15	1.135762E-16
6.314621E+03	3.176181E-15	1.157085E-16
6.324534E+03	3.208929E-15	1.179955E-16
6.334447E+03	3.244615E-15	1.204368E-16
6.344360E+03	3.283077E-15	1.230283E-16
6.354273E+03	3.324114E-15	1.257644E-16
6.364186E+03	3.367532E-15	1.286396E-16
6.374099E+03	3.413122E-15	1.316474E-16
6.384012E+03	3.460646E-15	1.347800E-16
6.393925E+03	3.509732E-15	1.380240E-16
6.403838E+03	3.559896E-15	1.413608E-16
6.413751E+03	3.610495E-15	1.447648E-16
6.423664E+03	3.660774E-15	1.482049E-16
6.433578E+03	3.709997E-15	1.516493E-16
6.443491E+03	3.757268E-15	1.550588E-16
6.453404E+03	3.801677E-15	1.583917E-16
6.463317E+03	3.842243E-15	1.616022E-16
6.473230E+03	3.878070E-15	1.646462E-16
6.483143E+03	3.908124E-15	1.674726E-16
6.493056E+03	3.931610E-15	1.700386E-16
6.502969E+03	3.947742E-15	1.723009E-16
6.512882E+03	3.955811E-15	1.742181E-16
6.522795E+03	3.955395E-15	1.757606E-16
6.532708E+03	3.946104E-15	1.768997E-16
6.542621E+03	3.927774E-15	1.776164E-16
6.552534E+03	3.900426E-15	1.778999E-16
6.562447E+03	3.864267E-15	1.777485E-16
6.572360E+03	3.819726E-15	1.771708E-16
6.582273E+03	3.767347E-15	1.761821E-16
6.592187E+03	3.707771E-15	1.748032E-16
6.602100E+03	3.641848E-15	1.730657E-16
6.612013E+03	3.570470E-15	1.710052E-16
6.621926E+03	3.494587E-15	1.686614E-16
6.631839E+03	3.415227E-15	1.660793E-16
6.641752E+03	3.333331E-15	1.633015E-16
6.651665E+03	3.249901E-15	1.603751E-16
6.661578E+03	3.165812E-15	1.573423E-16
6.671491E+03	3.081987E-15	1.542492E-16
6.681404E+03	2.999117E-15	1.511316E-16
6.691317E+03	2.917946E-15	1.480289E-16
6.701230E+03	2.839012E-15	1.449711E-16
6.711143E+03	2.762786E-15	1.419854E-16
6.721056E+03	2.689672E-15	1.390961E-16
6.730969E+03	2.619939E-15	1.363212E-16
6.740882E+03	2.553739E-15	1.336725E-16
6.750796E+03	2.491232E-15	1.311626E-16
6.760709E+03	2.432381E-15	1.287939E-16
6.770622E+03	2.377179E-15	1.265699E-16
6.780535E+03	2.325568E-15	1.244915E-16
6.790448E+03	2.277389E-15	1.225539E-16
6.800361E+03	2.232479E-15	1.207520E-16
6.810274E+03	2.190658E-15	1.190794E-16
6.820187E+03	2.151760E-15	1.175300E-16
6.830100E+03	2.115559E-15	1.160943E-16
6.840013E+03	2.081886E-15	1.147657E-16
6.849926E+03	2.050526E-15	1.135346E-16
6.859839E+03	2.021327E-15	1.123949E-16
6.869752E+03	1.994104E-15	1.113381E-16
6.879665E+03	1.968737E-15	1.103594E-16
6.889578E+03	1.945100E-15	1.094534E-16
6.899491E+03	1.923063E-15	1.086141E-16
6.909405E+03	1.902535E-15	1.078379E-16
6.919318E+03	1.883501E-15	1.071252E-16
6.929231E+03	1.865833E-15	1.064698E-16
6.939144E+03	1.849569E-15	1.058750E-16
6.949057E+03	1.834616E-15	1.053367E-16
6.958970E+03	1.821015E-15	1.048580E-16
6.968883E+03	1.808772E-15	1.044403E-16
6.978796E+03	1.797879E-15	1.040841E-16
6.988709E+03	1.788362E-15	1.037916E-16
6.998622E+03	1.780254E-15	1.035655E-16
7.008535E+03	1.773594E-15	1.034090E-16
7.018448E+03	1.768449E-15	1.033267E-16
7.028361E+03	1.764819E-15	1.033192E-16
7.038274E+03	1.762776E-15	1.033914E-16
7.048187E+03	1.762363E-15	1.035465E-16
7.058100E+03	1.763599E-15	1.037860E-16
7.068014E+03	1.766541E-15	1.041140E-16
7.077927E+03	1.771195E-15	1.045311E-16
7.087840E+03	1.777572E-15	1.050385E-16
7.097753E+03	1.785674E-15	1.056365E-16
7.107666E+03	1.795464E-15	1.063232E-16
7.117579E+03	1.806958E-15	1.070999E-16
7.127492E+03	1.820035E-15	1.079594E-16
7.137405E+03	1.834649E-15	1.088991E-16
7.147318E+03	1.850737E-15	1.099153E-16
7.157231E+03	1.868121E-15	1.109974E-16
7.167144E+03	1.886724E-15	1.121407E-16
7.177057E+03	1.906383E-15	1.133353E-16
7.186970E+03	1.926919E-15	1.145707E-16
7.196883E+03	1.948196E-15	1.158383E-16
7.206796E+03	1.969992E-15	1.171249E-16
7.216709E+03	1.992133E-15	1.184199E-16
7.226623E+03	2.014476E-15	1.197146E-16
7.236536E+03	2.036799E-15	1.209958E-16
7.246449E+03	2.058944E-15	1.222539E-16
7.256362E+03	2.080738E-15	1.234785E-16
7.266275E+03	2.102077E-15	1.246634E-16
7.276188E+03	2.122789E-15	1.257985E-16
7.286101E+03	2.142746E-15	1.268763E-16
7.296014E+03	2.161898E-15	1.278939E-16
7.305927E+03	2.180150E-15	1.288460E-16
7.315840E+03	2.197424E-15	1.297282E-16
7.325753E+03	2.213685E-15	1.305389E-16
7.335666E+03	2.228848E-15	1.312734E-16
7.345579E+03	2.242928E-15	1.319330E-16
7.355492E+03	2.255918E-15	1.325180E-16
7.365405E+03	2.267725E-15	1.330234E-16
7.375318E+03	2.278418E-15	1.334539E-16
7.385232E+03	2.288011E-15	1.338110E-16
7.395145E+03	2.296527E-15	1.340970E-16
7.405058E+03	2.303998E-15	1.343143E-16
7.414971E+03	2.310506E-15	1.344685E-16
7.424884E+03	2.316113E-15	1.345642E-16
7.434797E+03	2.320936E-15	1.346088E-16
7.444710E+03	2.325108E-15	1.346111E-16
7.454623E+03	2.328794E-15	1.345813E-16
7.464536E+03	2.332075E-15	1.345250E-16
7.474449E+03	2.335257E-15	1.344606E-16
7.484362E+03	2.338433E-15	1.343943E-16
7.494275E+03	2.341911E-15	1.343444E-16
7.504188E+03	2.345912E-15	1.343242E-16
7.514101E+03	2.350627E-15	1.343453E-16
7.524014E+03	2.356343E-15	1.344247E-16
7.533927E+03	2.363239E-15	1.345731E-16
7.543841E+03	2.371573E-15	1.348057E-16
7.553754E+03	2.381474E-15	1.351304E-16
7.563667E+03	2.393072E-15	1.355549E-16
7.573580E+03	2.406483E-15	1.360865E-16
7.583493E+03	2.421742E-15	1.367276E-16
7.593406E+03	2.438826E-15	1.374776E-16
7.603319E+03	2.457654E-15	1.383327E-16
7.613232E+03	2.478082E-15	1.392855E-16
7.623145E+03	2.499938E-15	1.403276E-16
7.633058E+03	2.522953E-15	1.414448E-16
7.642971E+03	2.546759E-15	1.426178E-16
7.652884E+03	2.570970E-15	1.438264E-16
7.662797E+03	2.595188E-15	1.450500E-16
7.672710E+03	2.618896E-15	1.462615E-16
7.682623E+03	2.641624E-15	1.474363E-16
7.692536E+03	2.662802E-15	1.485445E-16
