#wls	flux	fluxerr
1.586090E+03	6.208549E-16	5.686987E-17
1.625742E+03	5.085362E-16	4.643714E-17
1.665394E+03	4.149912E-16	3.777421E-17
1.705047E+03	3.375272E-16	3.062233E-17
1.744699E+03	2.740564E-16	2.478001E-17
1.784351E+03	2.223871E-16	2.003832E-17
1.824003E+03	1.805261E-16	1.620834E-17
1.863656E+03	1.468088E-16	1.313267E-17
1.903308E+03	1.197853E-16	1.067484E-17
1.942960E+03	9.820357E-17	8.717563E-18
1.982612E+03	8.104880E-17	7.165990E-18
2.022265E+03	6.748759E-17	5.942452E-18
2.061917E+03	5.687513E-17	4.986841E-18
2.101569E+03	4.877821E-17	4.258316E-18
2.141221E+03	4.292449E-17	3.730546E-18
2.180874E+03	3.909336E-17	3.381972E-18
2.220526E+03	3.707684E-17	3.192366E-18
2.260178E+03	3.676614E-17	3.150232E-18
2.299830E+03	3.803113E-17	3.242337E-18
2.339483E+03	4.081031E-17	3.461398E-18
2.379135E+03	4.514765E-17	3.809044E-18
2.418787E+03	5.115323E-17	4.292277E-18
2.458439E+03	5.898158E-17	4.921503E-18
2.498092E+03	6.874659E-17	5.703354E-18
2.537744E+03	8.048574E-17	6.637811E-18
2.577396E+03	9.409864E-17	7.713351E-18
2.617048E+03	1.093357E-16	8.906369E-18
2.656701E+03	1.258540E-16	1.018608E-17
2.696353E+03	1.432797E-16	1.151986E-17
2.736005E+03	1.612369E-16	1.287561E-17
2.775657E+03	1.793471E-16	1.422181E-17
2.815310E+03	1.973334E-16	1.553573E-17
2.854962E+03	2.149249E-16	1.679576E-17
2.894614E+03	2.320640E-16	1.799747E-17
2.934266E+03	2.487874E-16	1.914384E-17
2.973919E+03	2.652472E-16	2.024659E-17
2.983832E+03	2.693279E-16	2.051597E-17
2.993745E+03	2.734603E-16	2.078779E-17
3.003658E+03	2.775816E-16	2.105727E-17
3.013571E+03	2.817309E-16	2.132734E-17
3.023484E+03	2.859136E-16	2.159840E-17
3.033397E+03	2.901024E-16	2.186835E-17
3.043310E+03	2.943683E-16	2.214253E-17
3.053223E+03	2.986571E-16	2.241683E-17
3.063136E+03	3.030455E-16	2.269696E-17
3.073049E+03	3.075035E-16	2.298062E-17
3.082962E+03	3.119999E-16	2.326544E-17
3.092875E+03	3.166134E-16	2.355726E-17
3.102789E+03	3.213137E-16	2.385374E-17
3.112702E+03	3.261440E-16	2.415804E-17
3.122615E+03	3.310733E-16	2.446778E-17
3.132528E+03	3.361076E-16	2.478335E-17
3.142441E+03	3.412910E-16	2.510793E-17
3.152354E+03	3.465916E-16	2.543908E-17
3.162267E+03	3.520934E-16	2.578288E-17
3.172180E+03	3.577247E-16	2.613399E-17
3.182093E+03	3.635308E-16	2.649562E-17
3.192006E+03	3.695177E-16	2.686811E-17
3.201919E+03	3.756915E-16	2.725178E-17
3.211832E+03	3.820577E-16	2.764692E-17
3.221745E+03	3.886215E-16	2.805380E-17
3.231658E+03	3.954295E-16	2.847565E-17
3.241571E+03	4.024871E-16	2.891270E-17
3.251484E+03	4.097573E-16	2.936217E-17
3.261398E+03	4.172862E-16	2.982721E-17
3.271311E+03	4.250779E-16	3.030796E-17
3.281224E+03	4.331359E-16	3.080451E-17
3.291137E+03	4.414631E-16	3.131690E-17
3.301050E+03	4.501059E-16	3.184824E-17
3.310963E+03	4.590223E-16	3.239539E-17
3.320876E+03	4.682581E-16	3.296139E-17
3.330789E+03	4.778143E-16	3.354611E-17
3.340702E+03	4.876454E-16	3.414617E-17
3.350615E+03	4.978422E-16	3.476774E-17
3.360528E+03	5.083578E-16	3.540732E-17
3.370441E+03	5.192374E-16	3.606783E-17
3.380354E+03	5.304789E-16	3.674893E-17
3.390267E+03	5.420319E-16	3.744687E-17
3.400180E+03	5.539891E-16	3.816785E-17
3.410093E+03	5.662498E-16	3.890470E-17
3.420007E+03	5.789075E-16	3.966361E-17
3.429920E+03	5.919592E-16	4.044412E-17
3.439833E+03	6.054019E-16	4.124577E-17
3.449746E+03	6.192348E-16	4.206824E-17
3.459659E+03	6.334630E-16	4.291162E-17
3.469572E+03	6.481469E-16	4.377974E-17
3.479485E+03	6.632456E-16	4.466952E-17
3.489398E+03	6.788169E-16	4.558458E-17
3.499311E+03	6.948549E-16	4.652419E-17
3.509224E+03	7.113465E-16	4.748719E-17
3.519137E+03	7.282745E-16	4.847211E-17
3.529050E+03	7.456682E-16	4.948058E-17
3.538963E+03	7.634984E-16	5.051037E-17
3.548876E+03	7.817336E-16	5.155909E-17
3.558789E+03	8.002845E-16	5.262058E-17
3.568702E+03	8.192240E-16	5.369939E-17
3.578616E+03	8.384594E-16	5.478917E-17
3.588529E+03	8.580080E-16	5.589083E-17
3.598442E+03	8.777773E-16	5.699814E-17
3.608355E+03	8.977835E-16	5.811194E-17
3.618268E+03	9.179843E-16	5.922934E-17
3.628181E+03	9.382828E-16	6.034391E-17
3.638094E+03	9.587495E-16	6.146009E-17
3.648007E+03	9.792903E-16	6.257171E-17
3.657920E+03	9.998734E-16	6.367664E-17
3.667833E+03	1.020480E-15	6.477362E-17
3.677746E+03	1.041191E-15	6.586770E-17
3.687659E+03	1.061998E-15	6.695828E-17
3.697572E+03	1.082979E-15	6.805015E-17
3.707485E+03	1.104399E-15	6.915968E-17
3.717398E+03	1.126277E-15	7.028780E-17
3.727311E+03	1.148990E-15	7.145765E-17
3.737225E+03	1.172605E-15	7.267266E-17
3.747138E+03	1.197544E-15	7.395836E-17
3.757051E+03	1.223938E-15	7.532187E-17
3.766964E+03	1.251984E-15	7.677431E-17
3.776877E+03	1.281975E-15	7.833237E-17
3.786790E+03	1.313867E-15	7.999206E-17
3.796703E+03	1.347832E-15	8.176252E-17
3.806616E+03	1.383622E-15	8.362730E-17
3.816529E+03	1.421257E-15	8.558634E-17
3.826442E+03	1.460246E-15	8.760886E-17
3.836355E+03	1.500283E-15	8.967558E-17
3.846268E+03	1.540815E-15	9.175280E-17
3.856181E+03	1.581263E-15	9.380576E-17
3.866094E+03	1.620915E-15	9.579241E-17
3.876007E+03	1.659213E-15	9.768030E-17
3.885920E+03	1.695438E-15	9.942820E-17
3.895834E+03	1.728876E-15	1.009956E-16
3.905747E+03	1.758910E-15	1.023486E-16
3.915660E+03	1.785129E-15	1.034656E-16
3.925573E+03	1.807088E-15	1.043234E-16
3.935486E+03	1.824508E-15	1.049090E-16
3.945399E+03	1.837282E-15	1.052193E-16
3.955312E+03	1.845601E-15	1.052685E-16
3.965225E+03	1.849487E-15	1.050608E-16
3.975138E+03	1.849434E-15	1.046273E-16
3.985051E+03	1.845867E-15	1.039948E-16
3.994964E+03	1.839273E-15	1.031929E-16
4.004877E+03	1.830340E-15	1.022624E-16
4.014790E+03	1.819683E-15	1.012391E-16
4.024703E+03	1.807998E-15	1.001628E-16
4.034616E+03	1.795777E-15	9.906145E-17
4.044529E+03	1.783580E-15	9.796614E-17
4.054443E+03	1.771945E-15	9.690637E-17
4.064356E+03	1.761190E-15	9.589908E-17
4.074269E+03	1.751617E-15	9.496002E-17
4.084182E+03	1.743427E-15	9.409930E-17
4.094095E+03	1.736800E-15	9.332556E-17
4.104008E+03	1.731738E-15	9.263781E-17
4.113921E+03	1.728314E-15	9.203892E-17
4.123834E+03	1.726406E-15	9.152117E-17
4.133747E+03	1.725923E-15	9.107870E-17
4.143660E+03	1.726619E-15	9.069758E-17
4.153573E+03	1.728297E-15	9.036670E-17
4.163486E+03	1.730653E-15	9.006952E-17
4.173399E+03	1.733407E-15	8.979103E-17
4.183312E+03	1.736258E-15	8.951548E-17
4.193225E+03	1.738861E-15	8.922513E-17
4.203138E+03	1.740912E-15	8.890463E-17
4.213052E+03	1.742115E-15	8.853929E-17
4.222965E+03	1.742182E-15	8.811529E-17
4.232878E+03	1.740818E-15	8.761863E-17
4.242791E+03	1.737780E-15	8.703814E-17
4.252704E+03	1.732956E-15	8.636959E-17
4.262617E+03	1.726167E-15	8.560539E-17
4.272530E+03	1.717386E-15	8.474570E-17
4.282443E+03	1.706755E-15	8.379903E-17
4.292356E+03	1.694398E-15	8.277287E-17
4.302269E+03	1.680751E-15	8.168962E-17
4.312182E+03	1.666263E-15	8.057207E-17
4.322095E+03	1.651575E-15	7.945175E-17
4.332008E+03	1.637482E-15	7.836677E-17
4.341921E+03	1.624832E-15	7.735721E-17
4.351834E+03	1.614530E-15	7.646485E-17
4.361747E+03	1.607515E-15	7.573217E-17
4.371661E+03	1.604712E-15	7.520017E-17
4.381574E+03	1.607055E-15	7.490918E-17
4.391487E+03	1.615301E-15	7.489053E-17
4.401400E+03	1.630162E-15	7.517266E-17
4.411313E+03	1.652339E-15	7.578277E-17
4.421226E+03	1.682387E-15	7.674071E-17
4.431139E+03	1.720753E-15	7.806090E-17
4.441052E+03	1.767868E-15	7.975662E-17
4.450965E+03	1.823916E-15	8.182956E-17
4.460878E+03	1.888896E-15	8.427297E-17
4.470791E+03	1.962671E-15	8.707421E-17
4.480704E+03	2.044817E-15	9.020800E-17
4.490617E+03	2.134661E-15	9.363861E-17
4.500530E+03	2.231272E-15	9.731973E-17
4.510443E+03	2.333289E-15	1.011873E-16
4.520356E+03	2.439034E-15	1.051649E-16
4.530270E+03	2.546408E-15	1.091600E-16
4.540183E+03	2.652931E-15	1.130656E-16
4.550096E+03	2.755838E-15	1.167652E-16
4.560009E+03	2.852128E-15	1.201353E-16
4.569922E+03	2.938828E-15	1.230563E-16
4.579835E+03	3.013037E-15	1.254147E-16
4.589748E+03	3.072101E-15	1.271100E-16
4.599661E+03	3.114258E-15	1.280812E-16
4.609574E+03	3.138285E-15	1.282908E-16
4.619487E+03	3.143530E-15	1.277260E-16
4.629400E+03	3.130355E-15	1.264152E-16
4.639313E+03	3.099762E-15	1.244125E-16
4.649226E+03	3.053333E-15	1.217939E-16
4.659139E+03	2.993479E-15	1.186667E-16
4.669052E+03	2.922913E-15	1.151478E-16
4.678965E+03	2.844474E-15	1.113563E-16
4.688879E+03	2.760940E-15	1.074058E-16
4.698792E+03	2.675013E-15	1.034048E-16
4.708705E+03	2.589059E-15	9.944572E-17
4.718618E+03	2.505169E-15	9.560846E-17
4.728531E+03	2.425150E-15	9.195989E-17
4.738444E+03	2.350431E-15	8.855103E-17
4.748357E+03	2.282048E-15	8.541666E-17
4.758270E+03	2.220781E-15	8.258119E-17
4.768183E+03	2.167087E-15	8.005621E-17
4.778096E+03	2.121054E-15	7.783936E-17
4.788009E+03	2.082503E-15	7.591858E-17
4.797922E+03	2.051271E-15	7.428244E-17
4.807835E+03	2.026927E-15	7.291017E-17
4.817748E+03	2.008957E-15	7.177838E-17
4.827661E+03	1.996831E-15	7.086367E-17
4.837574E+03	1.989777E-15	7.013462E-17
4.847488E+03	1.986944E-15	6.955786E-17
4.857401E+03	1.987450E-15	6.909965E-17
4.867314E+03	1.990325E-15	6.872424E-17
4.877227E+03	1.994535E-15	6.839447E-17
4.887140E+03	1.999105E-15	6.807630E-17
4.897053E+03	2.003215E-15	6.774175E-17
4.906966E+03	2.006145E-15	6.736714E-17
4.916879E+03	2.007291E-15	6.693315E-17
4.926792E+03	2.006355E-15	6.643130E-17
4.936705E+03	2.003214E-15	6.585904E-17
4.946618E+03	1.997843E-15	6.521718E-17
4.956531E+03	1.990556E-15	6.451751E-17
4.966444E+03	1.981802E-15	6.377589E-17
4.976357E+03	1.972067E-15	6.300890E-17
4.986270E+03	1.962162E-15	6.224302E-17
4.996183E+03	1.952866E-15	6.150291E-17
5.006097E+03	1.944978E-15	6.081324E-17
5.016010E+03	1.939202E-15	6.019495E-17
5.025923E+03	1.936154E-15	5.966565E-17
5.035836E+03	1.936421E-15	5.924156E-17
5.045749E+03	1.940522E-15	5.893632E-17
5.055662E+03	1.948919E-15	5.876142E-17
5.065575E+03	1.962063E-15	5.872767E-17
5.075488E+03	1.980339E-15	5.884356E-17
5.085401E+03	2.004154E-15	5.911789E-17
5.095314E+03	2.033842E-15	5.955714E-17
5.105227E+03	2.069784E-15	6.016882E-17
5.115140E+03	2.112220E-15	6.095619E-17
5.125053E+03	2.161486E-15	6.192510E-17
5.134966E+03	2.217758E-15	6.307667E-17
5.144879E+03	2.281168E-15	6.441076E-17
5.154792E+03	2.351760E-15	6.592469E-17
5.164706E+03	2.429441E-15	6.761206E-17
5.174619E+03	2.513968E-15	6.946252E-17
5.184532E+03	2.604948E-15	7.146196E-17
5.194445E+03	2.701827E-15	7.359220E-17
5.204358E+03	2.803779E-15	7.582838E-17
5.214271E+03	2.909830E-15	7.814230E-17
5.224184E+03	3.018957E-15	8.050537E-17
5.234097E+03	3.129863E-15	8.288259E-17
5.244010E+03	3.241270E-15	8.524048E-17
5.253923E+03	3.351990E-15	8.754889E-17
5.263836E+03	3.460723E-15	8.977569E-17
5.273749E+03	3.566317E-15	9.189349E-17
5.283662E+03	3.667854E-15	9.388167E-17
5.293575E+03	3.764583E-15	9.572446E-17
5.303488E+03	3.855776E-15	9.740715E-17
5.313401E+03	3.941159E-15	9.892684E-17
5.323315E+03	4.020602E-15	1.002843E-16
5.333228E+03	4.094219E-15	1.014863E-16
5.343141E+03	4.162673E-15	1.025531E-16
5.353054E+03	4.226826E-15	1.035093E-16
5.362967E+03	4.287709E-15	1.043830E-16
5.372880E+03	4.347013E-15	1.052175E-16
5.382793E+03	4.405907E-15	1.060428E-16
5.392706E+03	4.465280E-15	1.068815E-16
5.402619E+03	4.526063E-15	1.077565E-16
5.412532E+03	4.589291E-15	1.086931E-16
5.422445E+03	4.655525E-15	1.097048E-16
5.432358E+03	4.725160E-15	1.108010E-16
5.442271E+03	4.798327E-15	1.119846E-16
5.452184E+03	4.874672E-15	1.132468E-16
5.462097E+03	4.952550E-15	1.145492E-16
5.472010E+03	5.029839E-15	1.158431E-16
5.481924E+03	5.103999E-15	1.170709E-16
5.491837E+03	5.171696E-15	1.181579E-16
5.501750E+03	5.229412E-15	1.190261E-16
5.511663E+03	5.273786E-15	1.196023E-16
5.521576E+03	5.302041E-15	1.198270E-16
5.531489E+03	5.311703E-15	1.196482E-16
5.541402E+03	5.301233E-15	1.190352E-16
5.551315E+03	5.270439E-15	1.179875E-16
5.561228E+03	5.219877E-15	1.165209E-16
5.571141E+03	5.150878E-15	1.146679E-16
5.581054E+03	5.066037E-15	1.124883E-16
5.590967E+03	4.968342E-15	1.100498E-16
5.600880E+03	4.861054E-15	1.074254E-16
5.610793E+03	4.747901E-15	1.046973E-16
5.620706E+03	4.632482E-15	1.019441E-16
5.630619E+03	4.518161E-15	9.923870E-17
5.640533E+03	4.408060E-15	9.664804E-17
5.650446E+03	4.304888E-15	9.422969E-17
5.660359E+03	4.210897E-15	9.203098E-17
5.670272E+03	4.127857E-15	9.008857E-17
5.680185E+03	4.057080E-15	8.842908E-17
5.690098E+03	3.999509E-15	8.707125E-17
5.700011E+03	3.955371E-15	8.601827E-17
5.709924E+03	3.924561E-15	8.526639E-17
5.719837E+03	3.906763E-15	8.480746E-17
5.729750E+03	3.900673E-15	8.461219E-17
5.739663E+03	3.904892E-15	8.464937E-17
5.749576E+03	3.917522E-15	8.487733E-17
5.759489E+03	3.936196E-15	8.524441E-17
5.769402E+03	3.958119E-15	8.568989E-17
5.779315E+03	3.980489E-15	8.615299E-17
5.789228E+03	4.000531E-15	8.657370E-17
5.799142E+03	4.015493E-15	8.689244E-17
5.809055E+03	4.022850E-15	8.705455E-17
5.818968E+03	4.020843E-15	8.702189E-17
5.828881E+03	4.008028E-15	8.676298E-17
5.838794E+03	3.983408E-15	8.625595E-17
5.848707E+03	3.946780E-15	8.549591E-17
5.858620E+03	3.898253E-15	8.448467E-17
5.868533E+03	3.838319E-15	8.323221E-17
5.878446E+03	3.767955E-15	8.175893E-17
5.888359E+03	3.688329E-15	8.008933E-17
5.898272E+03	3.600680E-15	7.824944E-17
5.908185E+03	3.506531E-15	7.627147E-17
5.918098E+03	3.407422E-15	7.418805E-17
5.928011E+03	3.304884E-15	7.203173E-17
5.937924E+03	3.200571E-15	6.983777E-17
5.947837E+03	3.096084E-15	6.764047E-17
5.957751E+03	2.992941E-15	6.547253E-17
5.967664E+03	2.892623E-15	6.336592E-17
5.977577E+03	2.796539E-15	6.135131E-17
5.987490E+03	2.705853E-15	5.945418E-17
5.997403E+03	2.621524E-15	5.769574E-17
6.007316E+03	2.544404E-15	5.609502E-17
6.017229E+03	2.475094E-15	5.466573E-17
6.027142E+03	2.413836E-15	5.341382E-17
6.037055E+03	2.360738E-15	5.234240E-17
6.046968E+03	2.315859E-15	5.145358E-17
6.056881E+03	2.278957E-15	5.074292E-17
6.066794E+03	2.249726E-15	5.020455E-17
6.076707E+03	2.227860E-15	4.983269E-17
6.086620E+03	2.212890E-15	4.961792E-17
6.096533E+03	2.204267E-15	4.954897E-17
6.106446E+03	2.201422E-15	4.961414E-17
6.116360E+03	2.203639E-15	4.979830E-17
6.126273E+03	2.210058E-15	5.008296E-17
6.136186E+03	2.219793E-15	5.044898E-17
6.146099E+03	2.231710E-15	5.087124E-17
6.156012E+03	2.244634E-15	5.132351E-17
6.165925E+03	2.257374E-15	5.177887E-17
6.175838E+03	2.268933E-15	5.221449E-17
6.185751E+03	2.278369E-15	5.260855E-17
6.195664E+03	2.284924E-15	5.294313E-17
6.205577E+03	2.288281E-15	5.321023E-17
6.215490E+03	2.288316E-15	5.340599E-17
6.225403E+03	2.285201E-15	5.353342E-17
6.235316E+03	2.279640E-15	5.360797E-17
6.245229E+03	2.272547E-15	5.365028E-17
6.255142E+03	2.264959E-15	5.368425E-17
6.265055E+03	2.258156E-15	5.373994E-17
6.274969E+03	2.253525E-15	5.385044E-17
6.284882E+03	2.252343E-15	5.404683E-17
6.294795E+03	2.255584E-15	5.435332E-17
6.304708E+03	2.264188E-15	5.479383E-17
6.314621E+03	2.278822E-15	5.538604E-17
6.324534E+03	2.299685E-15	5.613657E-17
6.334447E+03	2.326754E-15	5.704671E-17
6.344360E+03	2.359858E-15	5.811407E-17
6.354273E+03	2.398592E-15	5.933058E-17
6.364186E+03	2.442730E-15	6.069230E-17
6.374099E+03	2.492099E-15	6.219667E-17
6.384012E+03	2.546213E-15	6.383315E-17
6.393925E+03	2.604575E-15	6.559075E-17
6.403838E+03	2.666547E-15	6.745466E-17
6.413751E+03	2.731177E-15	6.940183E-17
6.423664E+03	2.797501E-15	7.140845E-17
6.433578E+03	2.864326E-15	7.344439E-17
6.443491E+03	2.930398E-15	7.547742E-17
6.453404E+03	2.994388E-15	7.747267E-17
6.463317E+03	3.054858E-15	7.939191E-17
6.473230E+03	3.110474E-15	8.119891E-17
6.483143E+03	3.159857E-15	8.285559E-17
6.493056E+03	3.201770E-15	8.432702E-17
6.502969E+03	3.235074E-15	8.558019E-17
6.512882E+03	3.258918E-15	8.658931E-17
6.522795E+03	3.272529E-15	8.733020E-17
6.532708E+03	3.275541E-15	8.778934E-17
6.542621E+03	3.267672E-15	8.795522E-17
6.552534E+03	3.248988E-15	8.782569E-17
6.562447E+03	3.219747E-15	8.740389E-17
6.572360E+03	3.180479E-15	8.670047E-17
6.582273E+03	3.131820E-15	8.572931E-17
6.592187E+03	3.074712E-15	8.451303E-17
6.602100E+03	3.010221E-15	8.307816E-17
6.612013E+03	2.939438E-15	8.145241E-17
6.621926E+03	2.863617E-15	7.966860E-17
6.631839E+03	2.784069E-15	7.776169E-17
6.641752E+03	2.702050E-15	7.576575E-17
6.651665E+03	2.618816E-15	7.371545E-17
6.661578E+03	2.535554E-15	7.164404E-17
6.671491E+03	2.453339E-15	6.958210E-17
6.681404E+03	2.373161E-15	6.755835E-17
6.691317E+03	2.295836E-15	6.559686E-17
6.701230E+03	2.222079E-15	6.371919E-17
6.711143E+03	2.152389E-15	6.194100E-17
6.721056E+03	2.087144E-15	6.027462E-17
6.730969E+03	2.026560E-15	5.872780E-17
6.740882E+03	1.970718E-15	5.730444E-17
6.750796E+03	1.919530E-15	5.600354E-17
6.760709E+03	1.872860E-15	5.482261E-17
6.770622E+03	1.830444E-15	5.375535E-17
6.780535E+03	1.791927E-15	5.279266E-17
6.790448E+03	1.756963E-15	5.192547E-17
6.800361E+03	1.725176E-15	5.114374E-17
6.810274E+03	1.696142E-15	5.043586E-17
6.820187E+03	1.669506E-15	4.979203E-17
6.830100E+03	1.644902E-15	4.920204E-17
6.840013E+03	1.622027E-15	4.865743E-17
6.849926E+03	1.600598E-15	4.815021E-17
6.859839E+03	1.580384E-15	4.767383E-17
6.869752E+03	1.561226E-15	4.722385E-17
6.879665E+03	1.542961E-15	4.679568E-17
6.889578E+03	1.525526E-15	4.638767E-17
6.899491E+03	1.508872E-15	4.599858E-17
6.909405E+03	1.492944E-15	4.562700E-17
6.919318E+03	1.477741E-15	4.527311E-17
6.929231E+03	1.463293E-15	4.493808E-17
6.939144E+03	1.449599E-15	4.462209E-17
6.949057E+03	1.436709E-15	4.432691E-17
6.958970E+03	1.424643E-15	4.405339E-17
6.968883E+03	1.413426E-15	4.380250E-17
6.978796E+03	1.403143E-15	4.357717E-17
6.988709E+03	1.393839E-15	4.337901E-17
6.998622E+03	1.385562E-15	4.320972E-17
7.008535E+03	1.378428E-15	4.307323E-17
7.018448E+03	1.372483E-15	4.297119E-17
7.028361E+03	1.367858E-15	4.290800E-17
7.038274E+03	1.364671E-15	4.288761E-17
7.048187E+03	1.363014E-15	4.291322E-17
7.058100E+03	1.363026E-15	4.298951E-17
7.068014E+03	1.364825E-15	4.312050E-17
7.077927E+03	1.368525E-15	4.331010E-17
7.087840E+03	1.374211E-15	4.356132E-17
7.097753E+03	1.381925E-15	4.387581E-17
7.107666E+03	1.391745E-15	4.425637E-17
7.117579E+03	1.403657E-15	4.470283E-17
7.127492E+03	1.417630E-15	4.521453E-17
7.137405E+03	1.433555E-15	4.578825E-17
7.147318E+03	1.451346E-15	4.642153E-17
7.157231E+03	1.470845E-15	4.710945E-17
7.167144E+03	1.491823E-15	4.784496E-17
7.177057E+03	1.514104E-15	4.862252E-17
7.186970E+03	1.537398E-15	4.943299E-17
7.196883E+03	1.561432E-15	5.026763E-17
7.206796E+03	1.585897E-15	5.111659E-17
7.216709E+03	1.610527E-15	5.197129E-17
7.226623E+03	1.635004E-15	5.282150E-17
7.236536E+03	1.659049E-15	5.365817E-17
7.246449E+03	1.682386E-15	5.447232E-17
7.256362E+03	1.704846E-15	5.525842E-17
7.266275E+03	1.726211E-15	5.600927E-17
7.276188E+03	1.746365E-15	5.672108E-17
7.286101E+03	1.765297E-15	5.739340E-17
7.296014E+03	1.782948E-15	5.802418E-17
7.305927E+03	1.799337E-15	5.861404E-17
7.315840E+03	1.814564E-15	5.916611E-17
7.325753E+03	1.828690E-15	5.968239E-17
7.335666E+03	1.841819E-15	6.016622E-17
7.345579E+03	1.853988E-15	6.061881E-17
7.355492E+03	1.865286E-15	6.104305E-17
7.365405E+03	1.875721E-15	6.143927E-17
7.375318E+03	1.885281E-15	6.180701E-17
7.385232E+03	1.893911E-15	6.214453E-17
7.395145E+03	1.901578E-15	6.245081E-17
7.405058E+03	1.908145E-15	6.272127E-17
7.414971E+03	1.913544E-15	6.295378E-17
7.424884E+03	1.917703E-15	6.314593E-17
7.434797E+03	1.920587E-15	6.329660E-17
7.444710E+03	1.922148E-15	6.340423E-17
7.454623E+03	1.922479E-15	6.347184E-17
7.464536E+03	1.921662E-15	6.350218E-17
7.474449E+03	1.919922E-15	6.350276E-17
7.484362E+03	1.917572E-15	6.348389E-17
7.494275E+03	1.914961E-15	6.345727E-17
7.504188E+03	1.912524E-15	6.343742E-17
7.514101E+03	1.910773E-15	6.344146E-17
7.524014E+03	1.910198E-15	6.348591E-17
7.533927E+03	1.911352E-15	6.358937E-17
7.543841E+03	1.914656E-15	6.376618E-17
7.553754E+03	1.920590E-15	6.403274E-17
7.563667E+03	1.929587E-15	6.440392E-17
7.573580E+03	1.941931E-15	6.488972E-17
7.583493E+03	1.957827E-15	6.549762E-17
7.593406E+03	1.977463E-15	6.623444E-17
7.603319E+03	2.000686E-15	6.709580E-17
7.613232E+03	2.027335E-15	6.807696E-17
7.623145E+03	2.057091E-15	6.916791E-17
7.633058E+03	2.089510E-15	7.035439E-17
7.642971E+03	2.124075E-15	7.161967E-17
7.652884E+03	2.160143E-15	7.294266E-17
7.662797E+03	2.197013E-15	7.430027E-17
7.672710E+03	2.233848E-15	7.566457E-17
7.682623E+03	2.269818E-15	7.700785E-17
7.692536E+03	2.304024E-15	7.829979E-17
