#wls	flux	fluxerr
1.586090E+03	4.315732E-16	1.646212E-17
1.625742E+03	3.611121E-16	1.375072E-17
1.665394E+03	3.014621E-16	1.145903E-17
1.705047E+03	2.513503E-16	9.536856E-18
1.744699E+03	2.094595E-16	7.932583E-18
1.784351E+03	1.746876E-16	6.603033E-18
1.824003E+03	1.459127E-16	5.504508E-18
1.863656E+03	1.222120E-16	4.601082E-18
1.903308E+03	1.027540E-16	3.860486E-18
1.942960E+03	8.685284E-17	3.256113E-18
1.982612E+03	7.390863E-17	2.764762E-18
2.022265E+03	6.347924E-17	2.369277E-18
2.061917E+03	5.521984E-17	2.056243E-18
2.101569E+03	4.889074E-17	1.816243E-18
2.141221E+03	4.429701E-17	1.641581E-18
2.180874E+03	4.125410E-17	1.524990E-18
2.220526E+03	3.960594E-17	1.460304E-18
2.260178E+03	3.918848E-17	1.441101E-18
2.299830E+03	3.991448E-17	1.463825E-18
2.339483E+03	4.173745E-17	1.526427E-18
2.379135E+03	4.464430E-17	1.628080E-18
2.418787E+03	4.869544E-17	1.770618E-18
2.458439E+03	5.393131E-17	1.955108E-18
2.498092E+03	6.040900E-17	2.183183E-18
2.537744E+03	6.818276E-17	2.456331E-18
2.577396E+03	7.728488E-17	2.775203E-18
2.617048E+03	8.767686E-17	3.137879E-18
2.656701E+03	9.932156E-17	3.542486E-18
2.696353E+03	1.121602E-16	3.986376E-18
2.736005E+03	1.261047E-16	4.465872E-18
2.775657E+03	1.410432E-16	4.976483E-18
2.815310E+03	1.569609E-16	5.517166E-18
2.854962E+03	1.738159E-16	6.085919E-18
2.894614E+03	1.916034E-16	6.682040E-18
2.934266E+03	2.104524E-16	7.309455E-18
2.973919E+03	2.305038E-16	7.972406E-18
2.983832E+03	2.357140E-16	8.143944E-18
2.993745E+03	2.410509E-16	8.319422E-18
3.003658E+03	2.464538E-16	8.496734E-18
3.013571E+03	2.519916E-16	8.678244E-18
3.023484E+03	2.576361E-16	8.862962E-18
3.033397E+03	2.633931E-16	9.051072E-18
3.043310E+03	2.692628E-16	9.242564E-18
3.053223E+03	2.752945E-16	9.439113E-18
3.063136E+03	2.814218E-16	9.638419E-18
3.073049E+03	2.877568E-16	9.844308E-18
3.082962E+03	2.941957E-16	1.005320E-17
3.092875E+03	3.008164E-16	1.026775E-17
3.102789E+03	3.076252E-16	1.048813E-17
3.112702E+03	3.145895E-16	1.071321E-17
3.122615E+03	3.217532E-16	1.094446E-17
3.132528E+03	3.291227E-16	1.118208E-17
3.142441E+03	3.366639E-16	1.142488E-17
3.152354E+03	3.444637E-16	1.167577E-17
3.162267E+03	3.524470E-16	1.193218E-17
3.172180E+03	3.606607E-16	1.219566E-17
3.182093E+03	3.691541E-16	1.246786E-17
3.192006E+03	3.778917E-16	1.274752E-17
3.201919E+03	3.868357E-16	1.303335E-17
3.211832E+03	3.961245E-16	1.332997E-17
3.221745E+03	4.056768E-16	1.363460E-17
3.231658E+03	4.154984E-16	1.394739E-17
3.241571E+03	4.256413E-16	1.427005E-17
3.251484E+03	4.361126E-16	1.460278E-17
3.261398E+03	4.468709E-16	1.494413E-17
3.271311E+03	4.579693E-16	1.529583E-17
3.281224E+03	4.694633E-16	1.565970E-17
3.291137E+03	4.813101E-16	1.603424E-17
3.301050E+03	4.934642E-16	1.641790E-17
3.310963E+03	5.060823E-16	1.681582E-17
3.320876E+03	5.190681E-16	1.722474E-17
3.330789E+03	5.324249E-16	1.764473E-17
3.340702E+03	5.462088E-16	1.807757E-17
3.350615E+03	5.604233E-16	1.852333E-17
3.360528E+03	5.750718E-16	1.898204E-17
3.370441E+03	5.901561E-16	1.945370E-17
3.380354E+03	6.056772E-16	1.993827E-17
3.390267E+03	6.216920E-16	2.043756E-17
3.400180E+03	6.381432E-16	2.094961E-17
3.410093E+03	6.550862E-16	2.147617E-17
3.420007E+03	6.724586E-16	2.201511E-17
3.429920E+03	6.903733E-16	2.257006E-17
3.439833E+03	7.087635E-16	2.313875E-17
3.449746E+03	7.275565E-16	2.371875E-17
3.459659E+03	7.469217E-16	2.431548E-17
3.469572E+03	7.667176E-16	2.492426E-17
3.479485E+03	7.869200E-16	2.554424E-17
3.489398E+03	8.075629E-16	2.617644E-17
3.499311E+03	8.286782E-16	2.682183E-17
3.509224E+03	8.500980E-16	2.747490E-17
3.519137E+03	8.719091E-16	2.813839E-17
3.529050E+03	8.939988E-16	2.880861E-17
3.538963E+03	9.163831E-16	2.948600E-17
3.548876E+03	9.390099E-16	3.016886E-17
3.558789E+03	9.617578E-16	3.085322E-17
3.568702E+03	9.847096E-16	3.154172E-17
3.578616E+03	1.007746E-15	3.223049E-17
3.588529E+03	1.030887E-15	3.292014E-17
3.598442E+03	1.054019E-15	3.360703E-17
3.608355E+03	1.077174E-15	3.429218E-17
3.618268E+03	1.100250E-15	3.497228E-17
3.628181E+03	1.123363E-15	3.565105E-17
3.638094E+03	1.146429E-15	3.632583E-17
3.648007E+03	1.169519E-15	3.699879E-17
3.657920E+03	1.192568E-15	3.766793E-17
3.667833E+03	1.215672E-15	3.833621E-17
3.677746E+03	1.238797E-15	3.900259E-17
3.687659E+03	1.262136E-15	3.967309E-17
3.697572E+03	1.285685E-15	4.034754E-17
3.707485E+03	1.309523E-15	4.102838E-17
3.717398E+03	1.333737E-15	4.171830E-17
3.727311E+03	1.358493E-15	4.242232E-17
3.737225E+03	1.383880E-15	4.314324E-17
3.747138E+03	1.409917E-15	4.388144E-17
3.757051E+03	1.436813E-15	4.464333E-17
3.766964E+03	1.464473E-15	4.542583E-17
3.776877E+03	1.493051E-15	4.623357E-17
3.786790E+03	1.522451E-15	4.706342E-17
3.796703E+03	1.552671E-15	4.791512E-17
3.806616E+03	1.583517E-15	4.878264E-17
3.816529E+03	1.614816E-15	4.966046E-17
3.826442E+03	1.646409E-15	5.054366E-17
3.836355E+03	1.678022E-15	5.142376E-17
3.846268E+03	1.709339E-15	5.229108E-17
3.856181E+03	1.739943E-15	5.313289E-17
3.866094E+03	1.769533E-15	5.394015E-17
3.876007E+03	1.797797E-15	5.470352E-17
3.885920E+03	1.824224E-15	5.540766E-17
3.895834E+03	1.848527E-15	5.604418E-17
3.905747E+03	1.870448E-15	5.660559E-17
3.915660E+03	1.889576E-15	5.707987E-17
3.925573E+03	1.905755E-15	5.746275E-17
3.935486E+03	1.918826E-15	5.774995E-17
3.945399E+03	1.928765E-15	5.794126E-17
3.955312E+03	1.935430E-15	5.803298E-17
3.965225E+03	1.938884E-15	5.802748E-17
3.975138E+03	1.939377E-15	5.793280E-17
3.985051E+03	1.936978E-15	5.775151E-17
3.994964E+03	1.931932E-15	5.749140E-17
4.004877E+03	1.924586E-15	5.716321E-17
4.014790E+03	1.915251E-15	5.677657E-17
4.024703E+03	1.904152E-15	5.633847E-17
4.034616E+03	1.891680E-15	5.586080E-17
4.044529E+03	1.878165E-15	5.535352E-17
4.054443E+03	1.863871E-15	5.482455E-17
4.064356E+03	1.849082E-15	5.428243E-17
4.074269E+03	1.834104E-15	5.373619E-17
4.084182E+03	1.819060E-15	5.318949E-17
4.094095E+03	1.804138E-15	5.264779E-17
4.104008E+03	1.789484E-15	5.211538E-17
4.113921E+03	1.775250E-15	5.159661E-17
4.123834E+03	1.761388E-15	5.109006E-17
4.133747E+03	1.747992E-15	5.059837E-17
4.143660E+03	1.735086E-15	5.012214E-17
4.153573E+03	1.722635E-15	4.966032E-17
4.163486E+03	1.710631E-15	4.921260E-17
4.173399E+03	1.698982E-15	4.877625E-17
4.183312E+03	1.687704E-15	4.835170E-17
4.193225E+03	1.676773E-15	4.793818E-17
4.203138E+03	1.666108E-15	4.753332E-17
4.213052E+03	1.655672E-15	4.713608E-17
4.222965E+03	1.645512E-15	4.674771E-17
4.232878E+03	1.635628E-15	4.636818E-17
4.242791E+03	1.626043E-15	4.599811E-17
4.252704E+03	1.616812E-15	4.563897E-17
4.262617E+03	1.608014E-15	4.529300E-17
4.272530E+03	1.599823E-15	4.496494E-17
4.282443E+03	1.592350E-15	4.465785E-17
4.292356E+03	1.585770E-15	4.437651E-17
4.302269E+03	1.580290E-15	4.412650E-17
4.312182E+03	1.576192E-15	4.391550E-17
4.322095E+03	1.573677E-15	4.374887E-17
4.332008E+03	1.573044E-15	4.363460E-17
4.341921E+03	1.574604E-15	4.358095E-17
4.351834E+03	1.578597E-15	4.359416E-17
4.361747E+03	1.585390E-15	4.368387E-17
4.371661E+03	1.595211E-15	4.385588E-17
4.381574E+03	1.608323E-15	4.411681E-17
4.391487E+03	1.625008E-15	4.447380E-17
4.401400E+03	1.645461E-15	4.493149E-17
4.411313E+03	1.669827E-15	4.549311E-17
4.421226E+03	1.698214E-15	4.616090E-17
4.431139E+03	1.730638E-15	4.693455E-17
4.441052E+03	1.767040E-15	4.781171E-17
4.450965E+03	1.807360E-15	4.878998E-17
4.460878E+03	1.851372E-15	4.986256E-17
4.470791E+03	1.898742E-15	5.101984E-17
4.480704E+03	1.949072E-15	5.225041E-17
4.490617E+03	2.001807E-15	5.353898E-17
4.500530E+03	2.056270E-15	5.486696E-17
4.510443E+03	2.111656E-15	5.621264E-17
4.520356E+03	2.167044E-15	5.755136E-17
4.530270E+03	2.221442E-15	5.885686E-17
4.540183E+03	2.273726E-15	6.009961E-17
4.550096E+03	2.322817E-15	6.125156E-17
4.560009E+03	2.367543E-15	6.228249E-17
4.569922E+03	2.406768E-15	6.316341E-17
4.579835E+03	2.439575E-15	6.387135E-17
4.589748E+03	2.465022E-15	6.438291E-17
4.599661E+03	2.482442E-15	6.468214E-17
4.609574E+03	2.491353E-15	6.475802E-17
4.619487E+03	2.491513E-15	6.460588E-17
4.629400E+03	2.482966E-15	6.422851E-17
4.639313E+03	2.465943E-15	6.363352E-17
4.649226E+03	2.440945E-15	6.283543E-17
4.659139E+03	2.408709E-15	6.185467E-17
4.669052E+03	2.370086E-15	6.071439E-17
4.678965E+03	2.326107E-15	5.944216E-17
4.688879E+03	2.277824E-15	5.806582E-17
4.698792E+03	2.226322E-15	5.661374E-17
4.708705E+03	2.172749E-15	5.511570E-17
4.718618E+03	2.118096E-15	5.359712E-17
4.728531E+03	2.063345E-15	5.208301E-17
4.738444E+03	2.009346E-15	5.059478E-17
4.748357E+03	1.956821E-15	4.915046E-17
4.758270E+03	1.906387E-15	4.776520E-17
4.768183E+03	1.858484E-15	4.644962E-17
4.778096E+03	1.813486E-15	4.521259E-17
4.788009E+03	1.771630E-15	4.405943E-17
4.797922E+03	1.733006E-15	4.299178E-17
4.807835E+03	1.697670E-15	4.201045E-17
4.817748E+03	1.665580E-15	4.111383E-17
4.827661E+03	1.636594E-15	4.029776E-17
4.837574E+03	1.610559E-15	3.955793E-17
4.847488E+03	1.587284E-15	3.888912E-17
4.857401E+03	1.566534E-15	3.828509E-17
4.867314E+03	1.548080E-15	3.773978E-17
4.877227E+03	1.531671E-15	3.724671E-17
4.887140E+03	1.517086E-15	3.680010E-17
4.897053E+03	1.504063E-15	3.639332E-17
4.906966E+03	1.492460E-15	3.602263E-17
4.916879E+03	1.482093E-15	3.568338E-17
4.926792E+03	1.472838E-15	3.537236E-17
4.936705E+03	1.464632E-15	3.508786E-17
4.946618E+03	1.457435E-15	3.482877E-17
4.956531E+03	1.451240E-15	3.459473E-17
4.966444E+03	1.446130E-15	3.438753E-17
4.976357E+03	1.442174E-15	3.420866E-17
4.986270E+03	1.439494E-15	3.406078E-17
4.996183E+03	1.438249E-15	3.394745E-17
5.006097E+03	1.438588E-15	3.387194E-17
5.016010E+03	1.440722E-15	3.383891E-17
5.025923E+03	1.444784E-15	3.385121E-17
5.035836E+03	1.451002E-15	3.391386E-17
5.045749E+03	1.459540E-15	3.403033E-17
5.055662E+03	1.470551E-15	3.420377E-17
5.065575E+03	1.484222E-15	3.443816E-17
5.075488E+03	1.500666E-15	3.473569E-17
5.085401E+03	1.520043E-15	3.509959E-17
5.095314E+03	1.542444E-15	3.553155E-17
5.105227E+03	1.567962E-15	3.603319E-17
5.115140E+03	1.596665E-15	3.660564E-17
5.125053E+03	1.628597E-15	3.724943E-17
5.134966E+03	1.663777E-15	3.796448E-17
5.144879E+03	1.702209E-15	3.875047E-17
5.154792E+03	1.743828E-15	3.960545E-17
5.164706E+03	1.788549E-15	4.052706E-17
5.174619E+03	1.836247E-15	4.151203E-17
5.184532E+03	1.886749E-15	4.255611E-17
5.194445E+03	1.939843E-15	4.365416E-17
5.204358E+03	1.995266E-15	4.480000E-17
5.214271E+03	2.052743E-15	4.598719E-17
5.224184E+03	2.111894E-15	4.720702E-17
5.234097E+03	2.172395E-15	4.845218E-17
5.244010E+03	2.233818E-15	4.971301E-17
5.253923E+03	2.295791E-15	5.098125E-17
5.263836E+03	2.357924E-15	5.224831E-17
5.273749E+03	2.419843E-15	5.350604E-17
5.283662E+03	2.481205E-15	5.474702E-17
5.293575E+03	2.541708E-15	5.596480E-17
5.303488E+03	2.601076E-15	5.715360E-17
5.313401E+03	2.659117E-15	5.830947E-17
5.323315E+03	2.715762E-15	5.943123E-17
5.333228E+03	2.770870E-15	6.051615E-17
5.343141E+03	2.824504E-15	6.156592E-17
5.353054E+03	2.876720E-15	6.258209E-17
5.362967E+03	2.927578E-15	6.356629E-17
5.372880E+03	2.977146E-15	6.452030E-17
5.382793E+03	3.025406E-15	6.544402E-17
5.392706E+03	3.072232E-15	6.633504E-17
5.402619E+03	3.117435E-15	6.718961E-17
5.412532E+03	3.160789E-15	6.800315E-17
5.422445E+03	3.202024E-15	6.877026E-17
5.432358E+03	3.240804E-15	6.948410E-17
5.442271E+03	3.276820E-15	7.013841E-17
5.452184E+03	3.309658E-15	7.072473E-17
5.462097E+03	3.338938E-15	7.123535E-17
5.472010E+03	3.364197E-15	7.166083E-17
5.481924E+03	3.384999E-15	7.199233E-17
5.491837E+03	3.400963E-15	7.222227E-17
5.501750E+03	3.411693E-15	7.234269E-17
5.511663E+03	3.416968E-15	7.234944E-17
5.521576E+03	3.416505E-15	7.223705E-17
5.531489E+03	3.410358E-15	7.200716E-17
5.541402E+03	3.398594E-15	7.166163E-17
5.551315E+03	3.381472E-15	7.120636E-17
5.561228E+03	3.359446E-15	7.065131E-17
5.571141E+03	3.333019E-15	7.000739E-17
5.581054E+03	3.302931E-15	6.929039E-17
5.590967E+03	3.270028E-15	6.851825E-17
5.600880E+03	3.235135E-15	6.770837E-17
5.610793E+03	3.199250E-15	6.688166E-17
5.620706E+03	3.163248E-15	6.605639E-17
5.630619E+03	3.128110E-15	6.525293E-17
5.640533E+03	3.094629E-15	6.448769E-17
5.650446E+03	3.063606E-15	6.377713E-17
5.660359E+03	3.035705E-15	6.313485E-17
5.670272E+03	3.011430E-15	6.257108E-17
5.680185E+03	2.991176E-15	6.209371E-17
5.690098E+03	2.975212E-15	6.170808E-17
5.700011E+03	2.963593E-15	6.141502E-17
5.709924E+03	2.956270E-15	6.121327E-17
5.719837E+03	2.952946E-15	6.109646E-17
5.729750E+03	2.953255E-15	6.105679E-17
5.739663E+03	2.956654E-15	6.108287E-17
5.749576E+03	2.962466E-15	6.116060E-17
5.759489E+03	2.969871E-15	6.127295E-17
5.769402E+03	2.978009E-15	6.140211E-17
5.779315E+03	2.985872E-15	6.152734E-17
5.789228E+03	2.992534E-15	6.162955E-17
5.799142E+03	2.996987E-15	6.168806E-17
5.809055E+03	2.998268E-15	6.168313E-17
5.818968E+03	2.995553E-15	6.159789E-17
5.828881E+03	2.988075E-15	6.141671E-17
5.838794E+03	2.975273E-15	6.112818E-17
5.848707E+03	2.956704E-15	6.072327E-17
5.858620E+03	2.932106E-15	6.019674E-17
5.868533E+03	2.901499E-15	5.954908E-17
5.878446E+03	2.864981E-15	5.878235E-17
5.888359E+03	2.822910E-15	5.790391E-17
5.898272E+03	2.775747E-15	5.692327E-17
5.908185E+03	2.724119E-15	5.585321E-17
5.918098E+03	2.668779E-15	5.470916E-17
5.928011E+03	2.610477E-15	5.350642E-17
5.937924E+03	2.550108E-15	5.226326E-17
5.947837E+03	2.488480E-15	5.099611E-17
5.957751E+03	2.426481E-15	4.972309E-17
5.967664E+03	2.364868E-15	4.845956E-17
5.977577E+03	2.304384E-15	4.722066E-17
5.987490E+03	2.245741E-15	4.602086E-17
5.997403E+03	2.189478E-15	4.487110E-17
6.007316E+03	2.136104E-15	4.378172E-17
6.017229E+03	2.086009E-15	4.276062E-17
6.027142E+03	2.039489E-15	4.181382E-17
6.037055E+03	1.996724E-15	4.094497E-17
6.046968E+03	1.957870E-15	4.015721E-17
6.056881E+03	1.922920E-15	3.945039E-17
6.066794E+03	1.891876E-15	3.882454E-17
6.076707E+03	1.864600E-15	3.827686E-17
6.086620E+03	1.840940E-15	3.780423E-17
6.096533E+03	1.820712E-15	3.740293E-17
6.106446E+03	1.803648E-15	3.706747E-17
6.116360E+03	1.789447E-15	3.679171E-17
6.126273E+03	1.777805E-15	3.656945E-17
6.136186E+03	1.768440E-15	3.639497E-17
6.146099E+03	1.761048E-15	3.626202E-17
6.156012E+03	1.755362E-15	3.616520E-17
6.165925E+03	1.751131E-15	3.609934E-17
6.175838E+03	1.748077E-15	3.605880E-17
6.185751E+03	1.745995E-15	3.603933E-17
6.195664E+03	1.744719E-15	3.603758E-17
6.205577E+03	1.744124E-15	3.605097E-17
6.215490E+03	1.744129E-15	3.607780E-17
6.225403E+03	1.744746E-15	3.611836E-17
6.235316E+03	1.746053E-15	3.617425E-17
6.245229E+03	1.748133E-15	3.624722E-17
6.255142E+03	1.751190E-15	3.634150E-17
6.265055E+03	1.755434E-15	3.646151E-17
6.274969E+03	1.761081E-15	3.661177E-17
6.284882E+03	1.768411E-15	3.679818E-17
6.294795E+03	1.777625E-15	3.702501E-17
6.304708E+03	1.788970E-15	3.729750E-17
6.314621E+03	1.802619E-15	3.761942E-17
6.324534E+03	1.818674E-15	3.799302E-17
6.334447E+03	1.837229E-15	3.842041E-17
6.344360E+03	1.858260E-15	3.890127E-17
6.354273E+03	1.881749E-15	3.943536E-17
6.364186E+03	1.907609E-15	4.002108E-17
6.374099E+03	1.935725E-15	4.065613E-17
6.384012E+03	1.965934E-15	4.133729E-17
6.393925E+03	1.997889E-15	4.205738E-17
6.403838E+03	2.031226E-15	4.280892E-17
6.413751E+03	2.065454E-15	4.358162E-17
6.423664E+03	2.100014E-15	4.436378E-17
6.433578E+03	2.134251E-15	4.514158E-17
6.443491E+03	2.167447E-15	4.589976E-17
6.453404E+03	2.198901E-15	4.662344E-17
6.463317E+03	2.227869E-15	4.729668E-17
6.473230E+03	2.253628E-15	4.790388E-17
6.483143E+03	2.275406E-15	4.842839E-17
6.493056E+03	2.292548E-15	4.885593E-17
6.502969E+03	2.304455E-15	4.917329E-17
6.512882E+03	2.310599E-15	4.936875E-17
6.522795E+03	2.310567E-15	4.943301E-17
6.532708E+03	2.304112E-15	4.936021E-17
6.542621E+03	2.291106E-15	4.914702E-17
6.552534E+03	2.271593E-15	4.879383E-17
6.562447E+03	2.245697E-15	4.830267E-17
6.572360E+03	2.213780E-15	4.768079E-17
6.582273E+03	2.176261E-15	4.693661E-17
6.592187E+03	2.133713E-15	4.608202E-17
6.602100E+03	2.086774E-15	4.513032E-17
6.612013E+03	2.036149E-15	4.409631E-17
6.621926E+03	1.982554E-15	4.299521E-17
6.631839E+03	1.926791E-15	4.184407E-17
6.641752E+03	1.869582E-15	4.065839E-17
6.651665E+03	1.811625E-15	3.945318E-17
6.661578E+03	1.753631E-15	3.824385E-17
6.671491E+03	1.696188E-15	3.704323E-17
6.681404E+03	1.639856E-15	3.586355E-17
6.691317E+03	1.585079E-15	3.471462E-17
6.701230E+03	1.532244E-15	3.360504E-17
6.711143E+03	1.481672E-15	3.254203E-17
6.721056E+03	1.433578E-15	3.153049E-17
6.730969E+03	1.388138E-15	3.057453E-17
6.740882E+03	1.345433E-15	2.967615E-17
6.750796E+03	1.305517E-15	2.883677E-17
6.760709E+03	1.268365E-15	2.805612E-17
6.770622E+03	1.233955E-15	2.733393E-17
6.780535E+03	1.202159E-15	2.666762E-17
6.790448E+03	1.172909E-15	2.605592E-17
6.800361E+03	1.146049E-15	2.549558E-17
6.810274E+03	1.121450E-15	2.498396E-17
6.820187E+03	1.098966E-15	2.451800E-17
6.830100E+03	1.078447E-15	2.409454E-17
6.840013E+03	1.059732E-15	2.371018E-17
6.849926E+03	1.042693E-15	2.336221E-17
6.859839E+03	1.027200E-15	2.304785E-17
6.869752E+03	1.013118E-15	2.276422E-17
6.879665E+03	1.000348E-15	2.250925E-17
6.889578E+03	9.887851E-16	2.228065E-17
6.899491E+03	9.783661E-16	2.207715E-17
6.909405E+03	9.689872E-16	2.189648E-17
6.919318E+03	9.606144E-16	2.173799E-17
6.929231E+03	9.532017E-16	2.160072E-17
6.939144E+03	9.467033E-16	2.148373E-17
6.949057E+03	9.410975E-16	2.138660E-17
6.958970E+03	9.363807E-16	2.130934E-17
6.968883E+03	9.325378E-16	2.125168E-17
6.978796E+03	9.295737E-16	2.121383E-17
6.988709E+03	9.274981E-16	2.119609E-17
6.998622E+03	9.263279E-16	2.119893E-17
7.008535E+03	9.260738E-16	2.122267E-17
7.018448E+03	9.267822E-16	2.126848E-17
7.028361E+03	9.284565E-16	2.133651E-17
7.038274E+03	9.311347E-16	2.142774E-17
7.048187E+03	9.348285E-16	2.154254E-17
7.058100E+03	9.395587E-16	2.168147E-17
7.068014E+03	9.453515E-16	2.184524E-17
7.077927E+03	9.522029E-16	2.203387E-17
7.087840E+03	9.601107E-16	2.224740E-17
7.097753E+03	9.690627E-16	2.248565E-17
7.107666E+03	9.790219E-16	2.274785E-17
7.117579E+03	9.899639E-16	2.303355E-17
7.127492E+03	1.001839E-15	2.334167E-17
7.137405E+03	1.014571E-15	2.367052E-17
7.147318E+03	1.028083E-15	2.401839E-17
7.157231E+03	1.042283E-15	2.438321E-17
7.167144E+03	1.057081E-15	2.476296E-17
7.177057E+03	1.072338E-15	2.515437E-17
7.186970E+03	1.087941E-15	2.555489E-17
7.196883E+03	1.103745E-15	2.596113E-17
7.206796E+03	1.119642E-15	2.637056E-17
7.216709E+03	1.135452E-15	2.677894E-17
7.226623E+03	1.151067E-15	2.718373E-17
7.236536E+03	1.166342E-15	2.758149E-17
7.246449E+03	1.181173E-15	2.796972E-17
7.256362E+03	1.195423E-15	2.834512E-17
7.266275E+03	1.209033E-15	2.870624E-17
7.276188E+03	1.221899E-15	2.905057E-17
7.286101E+03	1.233999E-15	2.937750E-17
7.296014E+03	1.245267E-15	2.968541E-17
7.305927E+03	1.255720E-15	2.997461E-17
7.315840E+03	1.265325E-15	3.024424E-17
7.325753E+03	1.274126E-15	3.049530E-17
7.335666E+03	1.282132E-15	3.072790E-17
7.345579E+03	1.289355E-15	3.094229E-17
7.355492E+03	1.295862E-15	3.113999E-17
7.365405E+03	1.301688E-15	3.132177E-17
7.375318E+03	1.306835E-15	3.148766E-17
7.385232E+03	1.311354E-15	3.163879E-17
7.395145E+03	1.315280E-15	3.177597E-17
7.405058E+03	1.318662E-15	3.190035E-17
7.414971E+03	1.321507E-15	3.201200E-17
7.424884E+03	1.323872E-15	3.211232E-17
7.434797E+03	1.325789E-15	3.220201E-17
7.444710E+03	1.327354E-15	3.228337E-17
7.454623E+03	1.328603E-15	3.235725E-17
7.464536E+03	1.329624E-15	3.242581E-17
7.474449E+03	1.330537E-15	3.249190E-17
7.484362E+03	1.331441E-15	3.255799E-17
7.494275E+03	1.332467E-15	3.262727E-17
7.504188E+03	1.333760E-15	3.270332E-17
7.514101E+03	1.335488E-15	3.279028E-17
7.524014E+03	1.337790E-15	3.289165E-17
7.533927E+03	1.340836E-15	3.301169E-17
7.543841E+03	1.344740E-15	3.315326E-17
7.553754E+03	1.349670E-15	3.332061E-17
7.563667E+03	1.355722E-15	3.351622E-17
7.573580E+03	1.362999E-15	3.374281E-17
7.583493E+03	1.371537E-15	3.400137E-17
7.593406E+03	1.381350E-15	3.429241E-17
7.603319E+03	1.392425E-15	3.461572E-17
7.613232E+03	1.404666E-15	3.496910E-17
7.623145E+03	1.417962E-15	3.534990E-17
7.633058E+03	1.432114E-15	3.575326E-17
7.642971E+03	1.446909E-15	3.617402E-17
7.652884E+03	1.462053E-15	3.660484E-17
7.662797E+03	1.477265E-15	3.703877E-17
7.672710E+03	1.492153E-15	3.746595E-17
7.682623E+03	1.506330E-15	3.787672E-17
7.692536E+03	1.519439E-15	3.826193E-17
