#wls	flux	fluxerr
1.586090E+03	4.027825E-16	1.616697E-17
1.625742E+03	3.383751E-16	1.356691E-17
1.665394E+03	2.837013E-16	1.136201E-17
1.705047E+03	2.375856E-16	9.504129E-18
1.744699E+03	1.989926E-16	7.950856E-18
1.784351E+03	1.668078E-16	6.656784E-18
1.824003E+03	1.401025E-16	5.584066E-18
1.863656E+03	1.179964E-16	4.696948E-18
1.903308E+03	9.977897E-17	3.966555E-18
1.942960E+03	8.482141E-17	3.367381E-18
1.982612E+03	7.262027E-17	2.878998E-18
2.022265E+03	6.276142E-17	2.484604E-18
2.061917E+03	5.493577E-17	2.171622E-18
2.101569E+03	4.891978E-17	1.930908E-18
2.141221E+03	4.453879E-17	1.755281E-18
2.180874E+03	4.164411E-17	1.638610E-18
2.220526E+03	4.005271E-17	1.573439E-18
2.260178E+03	3.962540E-17	1.554067E-18
2.299830E+03	4.026643E-17	1.576516E-18
2.339483E+03	4.191885E-17	1.638345E-18
2.379135E+03	4.457898E-17	1.739192E-18
2.418787E+03	4.828383E-17	1.880273E-18
2.458439E+03	5.307251E-17	2.062864E-18
2.498092E+03	5.900575E-17	2.289057E-18
2.537744E+03	6.612881E-17	2.560315E-18
2.577396E+03	7.445680E-17	2.876910E-18
2.617048E+03	8.401674E-17	3.239554E-18
2.656701E+03	9.479085E-17	3.647214E-18
2.696353E+03	1.067232E-16	4.097385E-18
2.736005E+03	1.197754E-16	4.588231E-18
2.775657E+03	1.339119E-16	5.118040E-18
2.815310E+03	1.490912E-16	5.684858E-18
2.854962E+03	1.653404E-16	6.289347E-18
2.894614E+03	1.826797E-16	6.931884E-18
2.934266E+03	2.012524E-16	7.617486E-18
2.973919E+03	2.211789E-16	8.350232E-18
2.983832E+03	2.264203E-16	8.542544E-18
2.993745E+03	2.317353E-16	8.737342E-18
3.003658E+03	2.371889E-16	8.937076E-18
3.013571E+03	2.427545E-16	9.140723E-18
3.023484E+03	2.484358E-16	9.348415E-18
3.033397E+03	2.542386E-16	9.560361E-18
3.043310E+03	2.601968E-16	9.777820E-18
3.053223E+03	2.662911E-16	1.000006E-17
3.063136E+03	2.725255E-16	1.022720E-17
3.073049E+03	2.789039E-16	1.045939E-17
3.082962E+03	2.855023E-16	1.069947E-17
3.092875E+03	2.922187E-16	1.094359E-17
3.102789E+03	2.991673E-16	1.119600E-17
3.112702E+03	3.062426E-16	1.145276E-17
3.122615E+03	3.135624E-16	1.171824E-17
3.132528E+03	3.210568E-16	1.198982E-17
3.142441E+03	3.288097E-16	1.227060E-17
3.152354E+03	3.367489E-16	1.255788E-17
3.162267E+03	3.449196E-16	1.285332E-17
3.172180E+03	3.533284E-16	1.315713E-17
3.182093E+03	3.620236E-16	1.347111E-17
3.192006E+03	3.709279E-16	1.379234E-17
3.201919E+03	3.801323E-16	1.412419E-17
3.211832E+03	3.896447E-16	1.446692E-17
3.221745E+03	3.994281E-16	1.481913E-17
3.231658E+03	4.094884E-16	1.518101E-17
3.241571E+03	4.198767E-16	1.555443E-17
3.251484E+03	4.306001E-16	1.593962E-17
3.261398E+03	4.416182E-16	1.633505E-17
3.271311E+03	4.530311E-16	1.674440E-17
3.281224E+03	4.647984E-16	1.716613E-17
3.291137E+03	4.768759E-16	1.759858E-17
3.301050E+03	4.894172E-16	1.804738E-17
3.310963E+03	5.022782E-16	1.850717E-17
3.320876E+03	5.155637E-16	1.898179E-17
3.330789E+03	5.292266E-16	1.946946E-17
3.340702E+03	5.433753E-16	1.997412E-17
3.350615E+03	5.579080E-16	2.049199E-17
3.360528E+03	5.728798E-16	2.102504E-17
3.370441E+03	5.882924E-16	2.157331E-17
3.380354E+03	6.041464E-16	2.213676E-17
3.390267E+03	6.204980E-16	2.271740E-17
3.400180E+03	6.372901E-16	2.331310E-17
3.410093E+03	6.545778E-16	2.392583E-17
3.420007E+03	6.723581E-16	2.455542E-17
3.429920E+03	6.905665E-16	2.519947E-17
3.439833E+03	7.093147E-16	2.586201E-17
3.449746E+03	7.285333E-16	2.654044E-17
3.459659E+03	7.482077E-16	2.723420E-17
3.469572E+03	7.683185E-16	2.794252E-17
3.479485E+03	7.889037E-16	2.866674E-17
3.489398E+03	8.099342E-16	2.940574E-17
3.499311E+03	8.313739E-16	3.015818E-17
3.509224E+03	8.531804E-16	3.092245E-17
3.519137E+03	8.753720E-16	3.169920E-17
3.529050E+03	8.977651E-16	3.248172E-17
3.538963E+03	9.204359E-16	3.327276E-17
3.548876E+03	9.433285E-16	3.407024E-17
3.558789E+03	9.663858E-16	3.487208E-17
3.568702E+03	9.895514E-16	3.567623E-17
3.578616E+03	1.012771E-15	3.648071E-17
3.588529E+03	1.036063E-15	3.728616E-17
3.598442E+03	1.059310E-15	3.808838E-17
3.608355E+03	1.082544E-15	3.888845E-17
3.618268E+03	1.105727E-15	3.968503E-17
3.628181E+03	1.128762E-15	4.047466E-17
3.638094E+03	1.151769E-15	4.126165E-17
3.648007E+03	1.174736E-15	4.204551E-17
3.657920E+03	1.197518E-15	4.282110E-17
3.667833E+03	1.220336E-15	4.359634E-17
3.677746E+03	1.243074E-15	4.436701E-17
3.687659E+03	1.265911E-15	4.513954E-17
3.697572E+03	1.288763E-15	4.591090E-17
3.707485E+03	1.311843E-15	4.668869E-17
3.717398E+03	1.335171E-15	4.747357E-17
3.727311E+03	1.358915E-15	4.827148E-17
3.737225E+03	1.383179E-15	4.908607E-17
3.747138E+03	1.407998E-15	4.991850E-17
3.757051E+03	1.433602E-15	5.077686E-17
3.766964E+03	1.459921E-15	5.165857E-17
3.776877E+03	1.487130E-15	5.256975E-17
3.786790E+03	1.515156E-15	5.350772E-17
3.796703E+03	1.544006E-15	5.447264E-17
3.806616E+03	1.573568E-15	5.546043E-17
3.816529E+03	1.603600E-15	5.646255E-17
3.826442E+03	1.633948E-15	5.747346E-17
3.836355E+03	1.664335E-15	5.848341E-17
3.846268E+03	1.694379E-15	5.947899E-17
3.856181E+03	1.723872E-15	6.045292E-17
3.866094E+03	1.752380E-15	6.139006E-17
3.876007E+03	1.779600E-15	6.227984E-17
3.885920E+03	1.805035E-15	6.310512E-17
3.895834E+03	1.828476E-15	6.385870E-17
3.905747E+03	1.849545E-15	6.452765E-17
3.915660E+03	1.867976E-15	6.510293E-17
3.925573E+03	1.883622E-15	6.557970E-17
3.935486E+03	1.896262E-15	6.595060E-17
3.945399E+03	1.905811E-15	6.621297E-17
3.955312E+03	1.912310E-15	6.636862E-17
3.965225E+03	1.915688E-15	6.641536E-17
3.975138E+03	1.916182E-15	6.636178E-17
3.985051E+03	1.913905E-15	6.621213E-17
3.994964E+03	1.909029E-15	6.597263E-17
4.004877E+03	1.901937E-15	6.565681E-17
4.014790E+03	1.892818E-15	6.527142E-17
4.024703E+03	1.882043E-15	6.482948E-17
4.034616E+03	1.869879E-15	6.434041E-17
4.044529E+03	1.856646E-15	6.381531E-17
4.054443E+03	1.842641E-15	6.326451E-17
4.064356E+03	1.828136E-15	6.269747E-17
4.074269E+03	1.813329E-15	6.212102E-17
4.084182E+03	1.798431E-15	6.154242E-17
4.094095E+03	1.783620E-15	6.096774E-17
4.104008E+03	1.769035E-15	6.040178E-17
4.113921E+03	1.754746E-15	5.984684E-17
4.123834E+03	1.740794E-15	5.930436E-17
4.133747E+03	1.727278E-15	5.877765E-17
4.143660E+03	1.714159E-15	5.826531E-17
4.153573E+03	1.701496E-15	5.776932E-17
4.163486E+03	1.689262E-15	5.728874E-17
4.173399E+03	1.677425E-15	5.682242E-17
4.183312E+03	1.665985E-15	5.637035E-17
4.193225E+03	1.654909E-15	5.593131E-17
4.203138E+03	1.644172E-15	5.550448E-17
4.213052E+03	1.633820E-15	5.509135E-17
4.222965E+03	1.623816E-15	5.469062E-17
4.232878E+03	1.614201E-15	5.430366E-17
4.242791E+03	1.604971E-15	5.393029E-17
4.252704E+03	1.596234E-15	5.357411E-17
4.262617E+03	1.588032E-15	5.323640E-17
4.272530E+03	1.580486E-15	5.292124E-17
4.282443E+03	1.573712E-15	5.263241E-17
4.292356E+03	1.567826E-15	5.237367E-17
4.302269E+03	1.563026E-15	5.215158E-17
4.312182E+03	1.559530E-15	5.197323E-17
4.322095E+03	1.557525E-15	5.184470E-17
4.332008E+03	1.557247E-15	5.177368E-17
4.341921E+03	1.558944E-15	5.176820E-17
4.351834E+03	1.562873E-15	5.183654E-17
4.361747E+03	1.569317E-15	5.198783E-17
4.371661E+03	1.578508E-15	5.222943E-17
4.381574E+03	1.590683E-15	5.256886E-17
4.391487E+03	1.606078E-15	5.301354E-17
4.401400E+03	1.624849E-15	5.356823E-17
4.411313E+03	1.647171E-15	5.423835E-17
4.421226E+03	1.673093E-15	5.502497E-17
4.431139E+03	1.702659E-15	5.592924E-17
4.441052E+03	1.735800E-15	5.694835E-17
4.450965E+03	1.772384E-15	5.807762E-17
4.460878E+03	1.812200E-15	5.930969E-17
4.470791E+03	1.854963E-15	6.063488E-17
4.480704E+03	1.900209E-15	6.203765E-17
4.490617E+03	1.947468E-15	6.350243E-17
4.500530E+03	1.996092E-15	6.500785E-17
4.510443E+03	2.045386E-15	6.653115E-17
4.520356E+03	2.094533E-15	6.804569E-17
4.530270E+03	2.142640E-15	6.952251E-17
4.540183E+03	2.188750E-15	7.093078E-17
4.550096E+03	2.231906E-15	7.223971E-17
4.560009E+03	2.271117E-15	7.341766E-17
4.569922E+03	2.305431E-15	7.443434E-17
4.579835E+03	2.333967E-15	7.526196E-17
4.589748E+03	2.356018E-15	7.587845E-17
4.599661E+03	2.370912E-15	7.626299E-17
4.609574E+03	2.378273E-15	7.640434E-17
4.619487E+03	2.377868E-15	7.629594E-17
4.629400E+03	2.369676E-15	7.593809E-17
4.639313E+03	2.353895E-15	7.533802E-17
4.649226E+03	2.330919E-15	7.450931E-17
4.659139E+03	2.301394E-15	7.347337E-17
4.669052E+03	2.266001E-15	7.225276E-17
4.678965E+03	2.225648E-15	7.087709E-17
4.688879E+03	2.181216E-15	6.937499E-17
4.698792E+03	2.133758E-15	6.778037E-17
4.708705E+03	2.084191E-15	6.612271E-17
4.718618E+03	2.033454E-15	6.443199E-17
4.728531E+03	1.982446E-15	6.273683E-17
4.738444E+03	1.931976E-15	6.106282E-17
4.748357E+03	1.882700E-15	5.943060E-17
4.758270E+03	1.835185E-15	5.785792E-17
4.768183E+03	1.789924E-15	5.636005E-17
4.778096E+03	1.747240E-15	5.494691E-17
4.788009E+03	1.707333E-15	5.362447E-17
4.797922E+03	1.670365E-15	5.239750E-17
4.807835E+03	1.636374E-15	5.126679E-17
4.817748E+03	1.605327E-15	5.023100E-17
4.827661E+03	1.577156E-15	4.928763E-17
4.837574E+03	1.551722E-15	4.843202E-17
4.847488E+03	1.528873E-15	4.765911E-17
4.857401E+03	1.508398E-15	4.696200E-17
4.867314E+03	1.490118E-15	4.633487E-17
4.877227E+03	1.473798E-15	4.577019E-17
4.887140E+03	1.459228E-15	4.526117E-17
4.897053E+03	1.446242E-15	4.480248E-17
4.906966E+03	1.434626E-15	4.438735E-17
4.916879E+03	1.424266E-15	4.401206E-17
4.926792E+03	1.415050E-15	4.367301E-17
4.936705E+03	1.406886E-15	4.336727E-17
4.946618E+03	1.399760E-15	4.309429E-17
4.956531E+03	1.393684E-15	4.285428E-17
4.966444E+03	1.388708E-15	4.264867E-17
4.976357E+03	1.384930E-15	4.248038E-17
4.986270E+03	1.382450E-15	4.235234E-17
4.996183E+03	1.381405E-15	4.226857E-17
5.006097E+03	1.381975E-15	4.223441E-17
5.016010E+03	1.384270E-15	4.225308E-17
5.025923E+03	1.388496E-15	4.233065E-17
5.035836E+03	1.394791E-15	4.247114E-17
5.045749E+03	1.403284E-15	4.267823E-17
5.055662E+03	1.414124E-15	4.295620E-17
5.065575E+03	1.427445E-15	4.330890E-17
5.075488E+03	1.443320E-15	4.373829E-17
5.085401E+03	1.461853E-15	4.424725E-17
5.095314E+03	1.483136E-15	4.483826E-17
5.105227E+03	1.507195E-15	4.551186E-17
5.115140E+03	1.534108E-15	4.627010E-17
5.125053E+03	1.563885E-15	4.711306E-17
5.134966E+03	1.596535E-15	4.804068E-17
5.144879E+03	1.632044E-15	4.905225E-17
5.154792E+03	1.670371E-15	5.014634E-17
5.164706E+03	1.711462E-15	5.132102E-17
5.174619E+03	1.755178E-15	5.257187E-17
5.184532E+03	1.801413E-15	5.389550E-17
5.194445E+03	1.849969E-15	5.528582E-17
5.204358E+03	1.900626E-15	5.673604E-17
5.214271E+03	1.953109E-15	5.823778E-17
5.224184E+03	2.007171E-15	5.978357E-17
5.234097E+03	2.062478E-15	6.136335E-17
5.244010E+03	2.118696E-15	6.296717E-17
5.253923E+03	2.175465E-15	6.458427E-17
5.263836E+03	2.232467E-15	6.620524E-17
5.273749E+03	2.289393E-15	6.782093E-17
5.283662E+03	2.345887E-15	6.942094E-17
5.293575E+03	2.401661E-15	7.099683E-17
5.303488E+03	2.456486E-15	7.254197E-17
5.313401E+03	2.510146E-15	7.405012E-17
5.323315E+03	2.562464E-15	7.551626E-17
5.333228E+03	2.613254E-15	7.693509E-17
5.343141E+03	2.662473E-15	7.830555E-17
5.353054E+03	2.710066E-15	7.962622E-17
5.362967E+03	2.755980E-15	8.089576E-17
5.372880E+03	2.800181E-15	8.211338E-17
5.382793E+03	2.842671E-15	8.327937E-17
5.392706E+03	2.883314E-15	8.438992E-17
5.402619E+03	2.921997E-15	8.544197E-17
5.412532E+03	2.958574E-15	8.643145E-17
5.422445E+03	2.992936E-15	8.735545E-17
5.432358E+03	3.024893E-15	8.820862E-17
5.442271E+03	3.054284E-15	8.898656E-17
5.452184E+03	3.080881E-15	8.968279E-17
5.462097E+03	3.104377E-15	9.028870E-17
5.472010E+03	3.124467E-15	9.079561E-17
5.481924E+03	3.140856E-15	9.119529E-17
5.491837E+03	3.153221E-15	9.147862E-17
5.501750E+03	3.161235E-15	9.163645E-17
5.511663E+03	3.164665E-15	9.166230E-17
5.521576E+03	3.163426E-15	9.155406E-17
5.531489E+03	3.157419E-15	9.130917E-17
5.541402E+03	3.146761E-15	9.093135E-17
5.551315E+03	3.131682E-15	9.042749E-17
5.561228E+03	3.112513E-15	8.980746E-17
5.571141E+03	3.089807E-15	8.908738E-17
5.581054E+03	3.064143E-15	8.828418E-17
5.590967E+03	3.036225E-15	8.741828E-17
5.600880E+03	3.006823E-15	8.651189E-17
5.610793E+03	2.976748E-15	8.558842E-17
5.620706E+03	2.946824E-15	8.467155E-17
5.630619E+03	2.917850E-15	8.378418E-17
5.640533E+03	2.890553E-15	8.294707E-17
5.650446E+03	2.865676E-15	8.218141E-17
5.660359E+03	2.843756E-15	8.150243E-17
5.670272E+03	2.825299E-15	8.092445E-17
5.680185E+03	2.810640E-15	8.045683E-17
5.690098E+03	2.800028E-15	8.010653E-17
5.700011E+03	2.793510E-15	7.987462E-17
5.709924E+03	2.791011E-15	7.975880E-17
5.719837E+03	2.792338E-15	7.975334E-17
5.729750E+03	2.797086E-15	7.984652E-17
5.739663E+03	2.804710E-15	8.002261E-17
5.749576E+03	2.814593E-15	8.026390E-17
5.759489E+03	2.825971E-15	8.054853E-17
5.769402E+03	2.837960E-15	8.085129E-17
5.779315E+03	2.849673E-15	8.114690E-17
5.789228E+03	2.860138E-15	8.140768E-17
5.799142E+03	2.868382E-15	8.160607E-17
5.809055E+03	2.873565E-15	8.171824E-17
5.818968E+03	2.874846E-15	8.172036E-17
5.828881E+03	2.871494E-15	8.159188E-17
5.838794E+03	2.862948E-15	8.131701E-17
5.848707E+03	2.848845E-15	8.088556E-17
5.858620E+03	2.828935E-15	8.029067E-17
5.868533E+03	2.803178E-15	7.953130E-17
5.878446E+03	2.771708E-15	7.861144E-17
5.888359E+03	2.734796E-15	7.753892E-17
5.898272E+03	2.692910E-15	7.632706E-17
5.908185E+03	2.646613E-15	7.499196E-17
5.918098E+03	2.596536E-15	7.355155E-17
5.928011E+03	2.543385E-15	7.202584E-17
5.937924E+03	2.488006E-15	7.043882E-17
5.947837E+03	2.431113E-15	6.881071E-17
5.957751E+03	2.373495E-15	6.716376E-17
5.967664E+03	2.315954E-15	6.552064E-17
5.977577E+03	2.259182E-15	6.390083E-17
5.987490E+03	2.203805E-15	6.232202E-17
5.997403E+03	2.150403E-15	6.080047E-17
6.007316E+03	2.099512E-15	5.935125E-17
6.017229E+03	2.051474E-15	5.798396E-17
6.027142E+03	2.006640E-15	5.670843E-17
6.037055E+03	1.965232E-15	5.553081E-17
6.046968E+03	1.927349E-15	5.445383E-17
6.056881E+03	1.893083E-15	5.348004E-17
6.066794E+03	1.862384E-15	5.260793E-17
6.076707E+03	1.835200E-15	5.183594E-17
6.086620E+03	1.811386E-15	5.115999E-17
6.096533E+03	1.790760E-15	5.057485E-17
6.106446E+03	1.773122E-15	5.007486E-17
6.116360E+03	1.758242E-15	4.965349E-17
6.126273E+03	1.745835E-15	4.930267E-17
6.136186E+03	1.735651E-15	4.901531E-17
6.146099E+03	1.727391E-15	4.878298E-17
6.156012E+03	1.720821E-15	4.859908E-17
6.165925E+03	1.715646E-15	4.845525E-17
6.175838E+03	1.711637E-15	4.834503E-17
6.185751E+03	1.708553E-15	4.826160E-17
6.195664E+03	1.706191E-15	4.819930E-17
6.205577E+03	1.704418E-15	4.815428E-17
6.215490E+03	1.703137E-15	4.812380E-17
6.225403E+03	1.702311E-15	4.810687E-17
6.235316E+03	1.701977E-15	4.810448E-17
6.245229E+03	1.702269E-15	4.812039E-17
6.255142E+03	1.703306E-15	4.815802E-17
6.265055E+03	1.705332E-15	4.822426E-17
6.274969E+03	1.708576E-15	4.832554E-17
6.284882E+03	1.713312E-15	4.846969E-17
6.294795E+03	1.719819E-15	4.866459E-17
6.304708E+03	1.728306E-15	4.891618E-17
6.314621E+03	1.739013E-15	4.923133E-17
6.324534E+03	1.752076E-15	4.961389E-17
6.334447E+03	1.767623E-15	5.006757E-17
6.344360E+03	1.785669E-15	5.059284E-17
6.354273E+03	1.806192E-15	5.118917E-17
6.364186E+03	1.829086E-15	5.185357E-17
6.374099E+03	1.854211E-15	5.258217E-17
6.384012E+03	1.881349E-15	5.336888E-17
6.393925E+03	1.910163E-15	5.420417E-17
6.403838E+03	1.940257E-15	5.507688E-17
6.413751E+03	1.971200E-15	5.597480E-17
6.423664E+03	2.002404E-15	5.688129E-17
6.433578E+03	2.033281E-15	5.777964E-17
6.443491E+03	2.063190E-15	5.865165E-17
6.453404E+03	2.091433E-15	5.947744E-17
6.463317E+03	2.117293E-15	6.023658E-17
6.473230E+03	2.140035E-15	6.090805E-17
6.483143E+03	2.159036E-15	6.147403E-17
6.493056E+03	2.173588E-15	6.191421E-17
6.502969E+03	2.183195E-15	6.221432E-17
6.512882E+03	2.187338E-15	6.235938E-17
6.522795E+03	2.185705E-15	6.234024E-17
6.532708E+03	2.178043E-15	6.214948E-17
6.542621E+03	2.164277E-15	6.178474E-17
6.552534E+03	2.144429E-15	6.124632E-17
6.562447E+03	2.118702E-15	6.053981E-17
6.572360E+03	2.087402E-15	5.967371E-17
6.582273E+03	2.050930E-15	5.865922E-17
6.592187E+03	2.009853E-15	5.751229E-17
6.602100E+03	1.964746E-15	5.624921E-17
6.612013E+03	1.916264E-15	5.488852E-17
6.621926E+03	1.865096E-15	5.344977E-17
6.631839E+03	1.811964E-15	5.195353E-17
6.641752E+03	1.757538E-15	5.041891E-17
6.651665E+03	1.702504E-15	4.886550E-17
6.661578E+03	1.647466E-15	4.731058E-17
6.671491E+03	1.593010E-15	4.577094E-17
6.681404E+03	1.539638E-15	4.426106E-17
6.691317E+03	1.487783E-15	4.279338E-17
6.701230E+03	1.437789E-15	4.137785E-17
6.711143E+03	1.389961E-15	4.002329E-17
6.721056E+03	1.344530E-15	3.873648E-17
6.730969E+03	1.301617E-15	3.752098E-17
6.740882E+03	1.261328E-15	3.637994E-17
6.750796E+03	1.223713E-15	3.531490E-17
6.760709E+03	1.188733E-15	3.432488E-17
6.770622E+03	1.156366E-15	3.340932E-17
6.780535E+03	1.126518E-15	3.256566E-17
6.790448E+03	1.099081E-15	3.179088E-17
6.800361E+03	1.073945E-15	3.108187E-17
6.810274E+03	1.050962E-15	3.043446E-17
6.820187E+03	1.029989E-15	2.984464E-17
6.830100E+03	1.010885E-15	2.930841E-17
6.840013E+03	9.935239E-16	2.882216E-17
6.849926E+03	9.777600E-16	2.838177E-17
6.859839E+03	9.634711E-16	2.798376E-17
6.869752E+03	9.505552E-16	2.762525E-17
6.879665E+03	9.389014E-16	2.730307E-17
6.889578E+03	9.284200E-16	2.701468E-17
6.899491E+03	9.190350E-16	2.675791E-17
6.909405E+03	9.106935E-16	2.653129E-17
6.919318E+03	9.033309E-16	2.633298E-17
6.929231E+03	8.969047E-16	2.616179E-17
6.939144E+03	8.913817E-16	2.601681E-17
6.949057E+03	8.867383E-16	2.589738E-17
6.958970E+03	8.829590E-16	2.580310E-17
6.968883E+03	8.800361E-16	2.573379E-17
6.978796E+03	8.779587E-16	2.568918E-17
6.988709E+03	8.767542E-16	2.567012E-17
6.998622E+03	8.764130E-16	2.567637E-17
7.008535E+03	8.769624E-16	2.570877E-17
7.018448E+03	8.784230E-16	2.576799E-17
7.028361E+03	8.808063E-16	2.585440E-17
7.038274E+03	8.841348E-16	2.596874E-17
7.048187E+03	8.884406E-16	2.611198E-17
7.058100E+03	8.937306E-16	2.628438E-17
7.068014E+03	9.000163E-16	2.648636E-17
7.077927E+03	9.073020E-16	2.671808E-17
7.087840E+03	9.155828E-16	2.697946E-17
7.097753E+03	9.248423E-16	2.727008E-17
7.107666E+03	9.350539E-16	2.758921E-17
7.117579E+03	9.461654E-16	2.793538E-17
7.127492E+03	9.581362E-16	2.830741E-17
7.137405E+03	9.709004E-16	2.870345E-17
7.147318E+03	9.843585E-16	2.912057E-17
7.157231E+03	9.984438E-16	2.955685E-17
7.167144E+03	1.013043E-15	3.000898E-17
7.177057E+03	1.028059E-15	3.047410E-17
7.186970E+03	1.043342E-15	3.094782E-17
7.196883E+03	1.058779E-15	3.142679E-17
7.206796E+03	1.074234E-15	3.190701E-17
7.216709E+03	1.089576E-15	3.238453E-17
7.226623E+03	1.104654E-15	3.285490E-17
7.236536E+03	1.119356E-15	3.331479E-17
7.246449E+03	1.133553E-15	3.376032E-17
7.256362E+03	1.147159E-15	3.418888E-17
7.266275E+03	1.160075E-15	3.459753E-17
7.276188E+03	1.172257E-15	3.498486E-17
7.286101E+03	1.183650E-15	3.534924E-17
7.296014E+03	1.194234E-15	3.569004E-17
7.305927E+03	1.204027E-15	3.600770E-17
7.315840E+03	1.213034E-15	3.630232E-17
7.325753E+03	1.221285E-15	3.657481E-17
7.335666E+03	1.228850E-15	3.682719E-17
7.345579E+03	1.235729E-15	3.705944E-17
7.355492E+03	1.242014E-15	3.727424E-17
7.365405E+03	1.247713E-15	3.747185E-17
7.375318E+03	1.252882E-15	3.765387E-17
7.385232E+03	1.257566E-15	3.782166E-17
7.395145E+03	1.261775E-15	3.797549E-17
7.405058E+03	1.265513E-15	3.811543E-17
7.414971E+03	1.268799E-15	3.824205E-17
7.424884E+03	1.271669E-15	3.835640E-17
7.434797E+03	1.274130E-15	3.845867E-17
7.444710E+03	1.276215E-15	3.854984E-17
7.454623E+03	1.277968E-15	3.863120E-17
7.464536E+03	1.279447E-15	3.870451E-17
7.474449E+03	1.280709E-15	3.877145E-17
7.484362E+03	1.281879E-15	3.883585E-17
7.494275E+03	1.283035E-15	3.890001E-17
7.504188E+03	1.284302E-15	3.896776E-17
7.514101E+03	1.285852E-15	3.904432E-17
7.524014E+03	1.287800E-15	3.913323E-17
7.533927E+03	1.290315E-15	3.923963E-17
7.543841E+03	1.293526E-15	3.936753E-17
7.553754E+03	1.297590E-15	3.952171E-17
7.563667E+03	1.302629E-15	3.970602E-17
7.573580E+03	1.308726E-15	3.992301E-17
7.583493E+03	1.315968E-15	4.017546E-17
7.593406E+03	1.324387E-15	4.046444E-17
7.603319E+03	1.333969E-15	4.078956E-17
7.613232E+03	1.344626E-15	4.114829E-17
7.623145E+03	1.356280E-15	4.153825E-17
7.633058E+03	1.368722E-15	4.195321E-17
7.642971E+03	1.381753E-15	4.238706E-17
7.652884E+03	1.395107E-15	4.283174E-17
7.662797E+03	1.408466E-15	4.327750E-17
7.672710E+03	1.421533E-15	4.371520E-17
7.682623E+03	1.433933E-15	4.413327E-17
7.692536E+03	1.445293E-15	4.452024E-17
