#wls	flux	fluxerr
1.586090E+03	2.894615E-16	1.409510E-17
1.625742E+03	2.465269E-16	1.198704E-17
1.665394E+03	2.097620E-16	1.018423E-17
1.705047E+03	1.784514E-16	8.650826E-18
1.744699E+03	1.518905E-16	7.351691E-18
1.784351E+03	1.294818E-16	6.257011E-18
1.824003E+03	1.106666E-16	5.338975E-18
1.863656E+03	9.491969E-17	4.571535E-18
1.903308E+03	8.176766E-17	3.931270E-18
1.942960E+03	7.084050E-17	3.399844E-18
1.982612E+03	6.181432E-17	2.961235E-18
2.022265E+03	5.444456E-17	2.603301E-18
2.061917E+03	4.854025E-17	2.316527E-18
2.101569E+03	4.396794E-17	2.094189E-18
2.141221E+03	4.061562E-17	1.930615E-18
2.180874E+03	3.839060E-17	1.821078E-18
2.220526E+03	3.716719E-17	1.759308E-18
2.260178E+03	3.681716E-17	1.738955E-18
2.299830E+03	3.726331E-17	1.756111E-18
2.339483E+03	3.844261E-17	1.807558E-18
2.379135E+03	4.035656E-17	1.893120E-18
2.418787E+03	4.301230E-17	2.012876E-18
2.458439E+03	4.644761E-17	2.168317E-18
2.498092E+03	5.070152E-17	2.360968E-18
2.537744E+03	5.581498E-17	2.592410E-18
2.577396E+03	6.183648E-17	2.864543E-18
2.617048E+03	6.880104E-17	3.178603E-18
2.656701E+03	7.674926E-17	3.536055E-18
2.696353E+03	8.569273E-17	3.936995E-18
2.736005E+03	9.569404E-17	4.383831E-18
2.775657E+03	1.067668E-16	4.876685E-18
2.815310E+03	1.189785E-16	5.418107E-18
2.854962E+03	1.324014E-16	6.010814E-18
2.894614E+03	1.471113E-16	6.657617E-18
2.934266E+03	1.632995E-16	7.366478E-18
2.973919E+03	1.811405E-16	8.144464E-18
2.983832E+03	1.858891E-16	8.351009E-18
2.993745E+03	1.907546E-16	8.562415E-18
3.003658E+03	1.957664E-16	8.779984E-18
3.013571E+03	2.008765E-16	9.001549E-18
3.023484E+03	2.061679E-16	9.230806E-18
3.033397E+03	2.115665E-16	9.464421E-18
3.043310E+03	2.171272E-16	9.704834E-18
3.053223E+03	2.228348E-16	9.951338E-18
3.063136E+03	2.287219E-16	1.020538E-17
3.073049E+03	2.347939E-16	1.046716E-17
3.082962E+03	2.410263E-16	1.073558E-17
3.092875E+03	2.474539E-16	1.101215E-17
3.102789E+03	2.540822E-16	1.129710E-17
3.112702E+03	2.609173E-16	1.159067E-17
3.122615E+03	2.679331E-16	1.189167E-17
3.132528E+03	2.751995E-16	1.220318E-17
3.142441E+03	2.826576E-16	1.252257E-17
3.152354E+03	2.903799E-16	1.285299E-17
3.162267E+03	2.983399E-16	1.319326E-17
3.172180E+03	3.065438E-16	1.354361E-17
3.182093E+03	3.149981E-16	1.390429E-17
3.192006E+03	3.237088E-16	1.427554E-17
3.201919E+03	3.327189E-16	1.465921E-17
3.211832E+03	3.420365E-16	1.505562E-17
3.221745E+03	3.516309E-16	1.546338E-17
3.231658E+03	3.615469E-16	1.588441E-17
3.241571E+03	3.717916E-16	1.631898E-17
3.251484E+03	3.823320E-16	1.676561E-17
3.261398E+03	3.932545E-16	1.722802E-17
3.271311E+03	4.044842E-16	1.770290E-17
3.281224E+03	4.161097E-16	1.819407E-17
3.291137E+03	4.280953E-16	1.869991E-17
3.301050E+03	4.404456E-16	1.922057E-17
3.310963E+03	4.532091E-16	1.975812E-17
3.320876E+03	4.663460E-16	2.031077E-17
3.330789E+03	4.799045E-16	2.088055E-17
3.340702E+03	4.938881E-16	2.146756E-17
3.350615E+03	5.082520E-16	2.206979E-17
3.360528E+03	5.230914E-16	2.269131E-17
3.370441E+03	5.383109E-16	2.332793E-17
3.380354E+03	5.540059E-16	2.398371E-17
3.390267E+03	5.701254E-16	2.465638E-17
3.400180E+03	5.867154E-16	2.534786E-17
3.410093E+03	6.037197E-16	2.605566E-17
3.420007E+03	6.211816E-16	2.678158E-17
3.429920E+03	6.390919E-16	2.752516E-17
3.439833E+03	6.574383E-16	2.828579E-17
3.449746E+03	6.762056E-16	2.906277E-17
3.459659E+03	6.954304E-16	2.985759E-17
3.469572E+03	7.149802E-16	3.066451E-17
3.479485E+03	7.349965E-16	3.148953E-17
3.489398E+03	7.553381E-16	3.232654E-17
3.499311E+03	7.760286E-16	3.317649E-17
3.509224E+03	7.969730E-16	3.403527E-17
3.519137E+03	8.182481E-16	3.490612E-17
3.529050E+03	8.398129E-16	3.578723E-17
3.538963E+03	8.615642E-16	3.667415E-17
3.548876E+03	8.834553E-16	3.756489E-17
3.558789E+03	9.055623E-16	3.846262E-17
3.568702E+03	9.277181E-16	3.936023E-17
3.578616E+03	9.499397E-16	4.025842E-17
3.588529E+03	9.722478E-16	4.115806E-17
3.598442E+03	9.945429E-16	4.205491E-17
3.608355E+03	1.016851E-15	4.295008E-17
3.618268E+03	1.039144E-15	4.384234E-17
3.628181E+03	1.061398E-15	4.473066E-17
3.638094E+03	1.083593E-15	4.561430E-17
3.648007E+03	1.105717E-15	4.649267E-17
3.657920E+03	1.127830E-15	4.736830E-17
3.667833E+03	1.149872E-15	4.823868E-17
3.677746E+03	1.171917E-15	4.910692E-17
3.687659E+03	1.193984E-15	4.997381E-17
3.697572E+03	1.216165E-15	5.084318E-17
3.707485E+03	1.238430E-15	5.171375E-17
3.717398E+03	1.260816E-15	5.258704E-17
3.727311E+03	1.283428E-15	5.346745E-17
3.737225E+03	1.306304E-15	5.435643E-17
3.747138E+03	1.329476E-15	5.525533E-17
3.757051E+03	1.353029E-15	5.616764E-17
3.766964E+03	1.376847E-15	5.708843E-17
3.776877E+03	1.401104E-15	5.802490E-17
3.786790E+03	1.425639E-15	5.897036E-17
3.796703E+03	1.450391E-15	5.992213E-17
3.806616E+03	1.475390E-15	6.088151E-17
3.816529E+03	1.500454E-15	6.184093E-17
3.826442E+03	1.525432E-15	6.279416E-17
3.836355E+03	1.550209E-15	6.373647E-17
3.846268E+03	1.574527E-15	6.465730E-17
3.856181E+03	1.598231E-15	6.555034E-17
3.866094E+03	1.621034E-15	6.640394E-17
3.876007E+03	1.642826E-15	6.721376E-17
3.885920E+03	1.663261E-15	6.796574E-17
3.895834E+03	1.682183E-15	6.865377E-17
3.905747E+03	1.699452E-15	6.927238E-17
3.915660E+03	1.714775E-15	6.980989E-17
3.925573E+03	1.728128E-15	7.026558E-17
3.935486E+03	1.739341E-15	7.063287E-17
3.945399E+03	1.748399E-15	7.091149E-17
3.955312E+03	1.755160E-15	7.109600E-17
3.965225E+03	1.759743E-15	7.119157E-17
3.975138E+03	1.762139E-15	7.119822E-17
3.985051E+03	1.762437E-15	7.111982E-17
3.994964E+03	1.760801E-15	7.096338E-17
4.004877E+03	1.757280E-15	7.073108E-17
4.014790E+03	1.752091E-15	7.043201E-17
4.024703E+03	1.745465E-15	7.007572E-17
4.034616E+03	1.737457E-15	6.966457E-17
4.044529E+03	1.728359E-15	6.921051E-17
4.054443E+03	1.718366E-15	6.872155E-17
4.064356E+03	1.707583E-15	6.820200E-17
4.074269E+03	1.696235E-15	6.766093E-17
4.084182E+03	1.684451E-15	6.710361E-17
4.094095E+03	1.672387E-15	6.653630E-17
4.104008E+03	1.660181E-15	6.596459E-17
4.113921E+03	1.647921E-15	6.539195E-17
4.123834E+03	1.635718E-15	6.482278E-17
4.133747E+03	1.623633E-15	6.425951E-17
4.143660E+03	1.611751E-15	6.370550E-17
4.153573E+03	1.600082E-15	6.316111E-17
4.163486E+03	1.588728E-15	6.263034E-17
4.173399E+03	1.577721E-15	6.211439E-17
4.183312E+03	1.567086E-15	6.161420E-17
4.193225E+03	1.556851E-15	6.113084E-17
4.203138E+03	1.547046E-15	6.066539E-17
4.213052E+03	1.537703E-15	6.021907E-17
4.222965E+03	1.528888E-15	5.979438E-17
4.232878E+03	1.520642E-15	5.939288E-17
4.242791E+03	1.512988E-15	5.901533E-17
4.252704E+03	1.505986E-15	5.866402E-17
4.262617E+03	1.499704E-15	5.834146E-17
4.272530E+03	1.494222E-15	5.805069E-17
4.282443E+03	1.489655E-15	5.779604E-17
4.292356E+03	1.486027E-15	5.757829E-17
4.302269E+03	1.483524E-15	5.740453E-17
4.312182E+03	1.482191E-15	5.727631E-17
4.322095E+03	1.482207E-15	5.720034E-17
4.332008E+03	1.483678E-15	5.718056E-17
4.341921E+03	1.486743E-15	5.722201E-17
4.351834E+03	1.491535E-15	5.732966E-17
4.361747E+03	1.498184E-15	5.750820E-17
4.371661E+03	1.506835E-15	5.776289E-17
4.381574E+03	1.517593E-15	5.809747E-17
4.391487E+03	1.530541E-15	5.851481E-17
4.401400E+03	1.545785E-15	5.901858E-17
4.411313E+03	1.563325E-15	5.960852E-17
4.421226E+03	1.583148E-15	6.028376E-17
4.431139E+03	1.605218E-15	6.104254E-17
4.441052E+03	1.629452E-15	6.188147E-17
4.450965E+03	1.655651E-15	6.279259E-17
4.460878E+03	1.683673E-15	6.377036E-17
4.470791E+03	1.713230E-15	6.480349E-17
4.480704E+03	1.744017E-15	6.588034E-17
4.490617E+03	1.775670E-15	6.698693E-17
4.500530E+03	1.807769E-15	6.810737E-17
4.510443E+03	1.839865E-15	6.922467E-17
4.520356E+03	1.871417E-15	7.031856E-17
4.530270E+03	1.901899E-15	7.136936E-17
4.540183E+03	1.930762E-15	7.235668E-17
4.550096E+03	1.957425E-15	7.325904E-17
4.560009E+03	1.981343E-15	7.405637E-17
4.569922E+03	2.001971E-15	7.472880E-17
4.579835E+03	2.018860E-15	7.526005E-17
4.589748E+03	2.031576E-15	7.563452E-17
4.599661E+03	2.039788E-15	7.584056E-17
4.609574E+03	2.043261E-15	7.587006E-17
4.619487E+03	2.041862E-15	7.571883E-17
4.629400E+03	2.035569E-15	7.538673E-17
4.639313E+03	2.024473E-15	7.487788E-17
4.649226E+03	2.008795E-15	7.420111E-17
4.659139E+03	1.988806E-15	7.336711E-17
4.669052E+03	1.964893E-15	7.239073E-17
4.678965E+03	1.937558E-15	7.129099E-17
4.688879E+03	1.907287E-15	7.008622E-17
4.698792E+03	1.874623E-15	6.879682E-17
4.708705E+03	1.840171E-15	6.744524E-17
4.718618E+03	1.804466E-15	6.605132E-17
4.728531E+03	1.768064E-15	6.463558E-17
4.738444E+03	1.731451E-15	6.321582E-17
4.748357E+03	1.695068E-15	6.180814E-17
4.758270E+03	1.659286E-15	6.042605E-17
4.768183E+03	1.624447E-15	5.908182E-17
4.778096E+03	1.590814E-15	5.778488E-17
4.788009E+03	1.558631E-15	5.654396E-17
4.797922E+03	1.528038E-15	5.536382E-17
4.807835E+03	1.499192E-15	5.425003E-17
4.817748E+03	1.472121E-15	5.320322E-17
4.827661E+03	1.446915E-15	5.222653E-17
4.837574E+03	1.423549E-15	5.131868E-17
4.847488E+03	1.402003E-15	5.047873E-17
4.857401E+03	1.382251E-15	4.970548E-17
4.867314E+03	1.364204E-15	4.899553E-17
4.877227E+03	1.347831E-15	4.834748E-17
4.887140E+03	1.333060E-15	4.775857E-17
4.897053E+03	1.319793E-15	4.722504E-17
4.906966E+03	1.307995E-15	4.674546E-17
4.916879E+03	1.297599E-15	4.631722E-17
4.926792E+03	1.288560E-15	4.593856E-17
4.936705E+03	1.280865E-15	4.560878E-17
4.946618E+03	1.274485E-15	4.532677E-17
4.956531E+03	1.269423E-15	4.509239E-17
4.966444E+03	1.265697E-15	4.490614E-17
4.976357E+03	1.263352E-15	4.476943E-17
4.986270E+03	1.262416E-15	4.468310E-17
4.996183E+03	1.262942E-15	4.464886E-17
5.006097E+03	1.265003E-15	4.466909E-17
5.016010E+03	1.268648E-15	4.474534E-17
5.025923E+03	1.273944E-15	4.487977E-17
5.035836E+03	1.280967E-15	4.507488E-17
5.045749E+03	1.289765E-15	4.533216E-17
5.055662E+03	1.300408E-15	4.565385E-17
5.065575E+03	1.312947E-15	4.604156E-17
5.075488E+03	1.327396E-15	4.649551E-17
5.085401E+03	1.343833E-15	4.701829E-17
5.095314E+03	1.362254E-15	4.760952E-17
5.105227E+03	1.382676E-15	4.826958E-17
5.115140E+03	1.405118E-15	4.899890E-17
5.125053E+03	1.429575E-15	4.979716E-17
5.134966E+03	1.456011E-15	5.066286E-17
5.144879E+03	1.484409E-15	5.159526E-17
5.154792E+03	1.514704E-15	5.259187E-17
5.164706E+03	1.546844E-15	5.365075E-17
5.174619E+03	1.580729E-15	5.476826E-17
5.184532E+03	1.616270E-15	5.594118E-17
5.194445E+03	1.653343E-15	5.716513E-17
5.204358E+03	1.691787E-15	5.843435E-17
5.214271E+03	1.731438E-15	5.974314E-17
5.224184E+03	1.772132E-15	6.108576E-17
5.234097E+03	1.813672E-15	6.245542E-17
5.244010E+03	1.855832E-15	6.384426E-17
5.253923E+03	1.898391E-15	6.524470E-17
5.263836E+03	1.941144E-15	6.664975E-17
5.273749E+03	1.983843E-15	6.805096E-17
5.283662E+03	2.026265E-15	6.944070E-17
5.293575E+03	2.068210E-15	7.081226E-17
5.303488E+03	2.109424E-15	7.215708E-17
5.313401E+03	2.149756E-15	7.347008E-17
5.323315E+03	2.188978E-15	7.474368E-17
5.333228E+03	2.226949E-15	7.597323E-17
5.343141E+03	2.263548E-15	7.715480E-17
5.353054E+03	2.298608E-15	7.828287E-17
5.362967E+03	2.332024E-15	7.935403E-17
5.372880E+03	2.363726E-15	8.036620E-17
5.382793E+03	2.393623E-15	8.131644E-17
5.392706E+03	2.421598E-15	8.220101E-17
5.402619E+03	2.447585E-15	8.301788E-17
5.412532E+03	2.471480E-15	8.376374E-17
5.422445E+03	2.493235E-15	8.443719E-17
5.432358E+03	2.512754E-15	8.503523E-17
5.442271E+03	2.529999E-15	8.555673E-17
5.452184E+03	2.544880E-15	8.599884E-17
5.462097E+03	2.557385E-15	8.636139E-17
5.472010E+03	2.567461E-15	8.664272E-17
5.481924E+03	2.575033E-15	8.684048E-17
5.491837E+03	2.580069E-15	8.695382E-17
5.501750E+03	2.582585E-15	8.698339E-17
5.511663E+03	2.582576E-15	8.692921E-17
5.521576E+03	2.580103E-15	8.679349E-17
5.531489E+03	2.575244E-15	8.657896E-17
5.541402E+03	2.568203E-15	8.629261E-17
5.551315E+03	2.559157E-15	8.594053E-17
5.561228E+03	2.548361E-15	8.553133E-17
5.571141E+03	2.536089E-15	8.507431E-17
5.581054E+03	2.522709E-15	8.458184E-17
5.590967E+03	2.508617E-15	8.406725E-17
5.600880E+03	2.494159E-15	8.354208E-17
5.610793E+03	2.479763E-15	8.302075E-17
5.620706E+03	2.465834E-15	8.251668E-17
5.630619E+03	2.452758E-15	8.204280E-17
5.640533E+03	2.440898E-15	8.161117E-17
5.650446E+03	2.430579E-15	8.123258E-17
5.660359E+03	2.422074E-15	8.091606E-17
5.670272E+03	2.415579E-15	8.066806E-17
5.680185E+03	2.411292E-15	8.049514E-17
5.690098E+03	2.409246E-15	8.039828E-17
5.700011E+03	2.409469E-15	8.037831E-17
5.709924E+03	2.411883E-15	8.043257E-17
5.719837E+03	2.416306E-15	8.055495E-17
5.729750E+03	2.422528E-15	8.073835E-17
5.739663E+03	2.430210E-15	8.097145E-17
5.749576E+03	2.438971E-15	8.124152E-17
5.759489E+03	2.448392E-15	8.153460E-17
5.769402E+03	2.457960E-15	8.183359E-17
5.779315E+03	2.467148E-15	8.212096E-17
5.789228E+03	2.475414E-15	8.237869E-17
5.799142E+03	2.482190E-15	8.258795E-17
5.809055E+03	2.486975E-15	8.273208E-17
5.818968E+03	2.489282E-15	8.279491E-17
5.828881E+03	2.488631E-15	8.276055E-17
5.838794E+03	2.484706E-15	8.261852E-17
5.848707E+03	2.477205E-15	8.235886E-17
5.858620E+03	2.465917E-15	8.197452E-17
5.868533E+03	2.450776E-15	8.146338E-17
5.878446E+03	2.431789E-15	8.082572E-17
5.888359E+03	2.409019E-15	8.006354E-17
5.898272E+03	2.382681E-15	7.918410E-17
5.908185E+03	2.353055E-15	7.819658E-17
5.918098E+03	2.320442E-15	7.711101E-17
5.928011E+03	2.285291E-15	7.594226E-17
5.937924E+03	2.248024E-15	7.470430E-17
5.947837E+03	2.209094E-15	7.341214E-17
5.957751E+03	2.168987E-15	7.208186E-17
5.967664E+03	2.128187E-15	7.072951E-17
5.977577E+03	2.087167E-15	6.937075E-17
5.987490E+03	2.046354E-15	6.801968E-17
5.997403E+03	2.006141E-15	6.668934E-17
6.007316E+03	1.966939E-15	6.539330E-17
6.017229E+03	1.929031E-15	6.414098E-17
6.027142E+03	1.892692E-15	6.294146E-17
6.037055E+03	1.858142E-15	6.180205E-17
6.046968E+03	1.825553E-15	6.072840E-17
6.056881E+03	1.795043E-15	5.972447E-17
6.066794E+03	1.766685E-15	5.879269E-17
6.076707E+03	1.740493E-15	5.793350E-17
6.086620E+03	1.716478E-15	5.714726E-17
6.096533E+03	1.694580E-15	5.643205E-17
6.106446E+03	1.674731E-15	5.578557E-17
6.116360E+03	1.656839E-15	5.520481E-17
6.126273E+03	1.640792E-15	5.468602E-17
6.136186E+03	1.626447E-15	5.422455E-17
6.146099E+03	1.613704E-15	5.381703E-17
6.156012E+03	1.602406E-15	5.345829E-17
6.165925E+03	1.592419E-15	5.314388E-17
6.175838E+03	1.583644E-15	5.287055E-17
6.185751E+03	1.575949E-15	5.263388E-17
6.195664E+03	1.569235E-15	5.243061E-17
6.205577E+03	1.563441E-15	5.225870E-17
6.215490E+03	1.558514E-15	5.211641E-17
6.225403E+03	1.554430E-15	5.200296E-17
6.235316E+03	1.551193E-15	5.191849E-17
6.245229E+03	1.548851E-15	5.186458E-17
6.255142E+03	1.547455E-15	5.184308E-17
6.265055E+03	1.547097E-15	5.185698E-17
6.274969E+03	1.547863E-15	5.190927E-17
6.284882E+03	1.549841E-15	5.200295E-17
6.294795E+03	1.553139E-15	5.214166E-17
6.304708E+03	1.557847E-15	5.232853E-17
6.314621E+03	1.564024E-15	5.256559E-17
6.324534E+03	1.571698E-15	5.285385E-17
6.334447E+03	1.580899E-15	5.319443E-17
6.344360E+03	1.591585E-15	5.358600E-17
6.354273E+03	1.603697E-15	5.402662E-17
6.364186E+03	1.617116E-15	5.451242E-17
6.374099E+03	1.631715E-15	5.503918E-17
6.384012E+03	1.647290E-15	5.560007E-17
6.393925E+03	1.663604E-15	5.618717E-17
6.403838E+03	1.680375E-15	5.679102E-17
6.413751E+03	1.697247E-15	5.739959E-17
6.423664E+03	1.713899E-15	5.800203E-17
6.433578E+03	1.729891E-15	5.858344E-17
6.443491E+03	1.744796E-15	5.912928E-17
6.453404E+03	1.758198E-15	5.962541E-17
6.463317E+03	1.769682E-15	6.005757E-17
6.473230E+03	1.778787E-15	6.041003E-17
6.483143E+03	1.785136E-15	6.066978E-17
6.493056E+03	1.788352E-15	6.082377E-17
6.502969E+03	1.788130E-15	6.086139E-17
6.512882E+03	1.784204E-15	6.077328E-17
6.522795E+03	1.776420E-15	6.055391E-17
6.532708E+03	1.764642E-15	6.019834E-17
6.542621E+03	1.748874E-15	5.970635E-17
6.552534E+03	1.729183E-15	5.907991E-17
6.562447E+03	1.705677E-15	5.832236E-17
6.572360E+03	1.678615E-15	5.744226E-17
6.582273E+03	1.648248E-15	5.644786E-17
6.592187E+03	1.614939E-15	5.535129E-17
6.602100E+03	1.579077E-15	5.416567E-17
6.612013E+03	1.541084E-15	5.290522E-17
6.621926E+03	1.501401E-15	5.158487E-17
6.631839E+03	1.460458E-15	5.021925E-17
6.641752E+03	1.418732E-15	4.882464E-17
6.651665E+03	1.376633E-15	4.741504E-17
6.661578E+03	1.334546E-15	4.600370E-17
6.671491E+03	1.292872E-15	4.460441E-17
6.681404E+03	1.251927E-15	4.322808E-17
6.691317E+03	1.212014E-15	4.188523E-17
6.701230E+03	1.173352E-15	4.058350E-17
6.711143E+03	1.136183E-15	3.933134E-17
6.721056E+03	1.100642E-15	3.813355E-17
6.730969E+03	1.066845E-15	3.699429E-17
6.740882E+03	1.034889E-15	3.591706E-17
6.750796E+03	1.004820E-15	3.490359E-17
6.760709E+03	9.766547E-16	3.395463E-17
6.770622E+03	9.503871E-16	3.307011E-17
6.780535E+03	9.259873E-16	3.224916E-17
6.790448E+03	9.033977E-16	3.148992E-17
6.800361E+03	8.825802E-16	3.079124E-17
6.810274E+03	8.634550E-16	3.015046E-17
6.820187E+03	8.459465E-16	2.956509E-17
6.830100E+03	8.299757E-16	2.903252E-17
6.840013E+03	8.154722E-16	2.855041E-17
6.849926E+03	8.023374E-16	2.811544E-17
6.859839E+03	7.905142E-16	2.772571E-17
6.869752E+03	7.799201E-16	2.737848E-17
6.879665E+03	7.704878E-16	2.707145E-17
6.889578E+03	7.621637E-16	2.680287E-17
6.899491E+03	7.548821E-16	2.657052E-17
6.909405E+03	7.485924E-16	2.637271E-17
6.919318E+03	7.432501E-16	2.620796E-17
6.929231E+03	7.388250E-16	2.607530E-17
6.939144E+03	7.352750E-16	2.597332E-17
6.949057E+03	7.325722E-16	2.590111E-17
6.958970E+03	7.307025E-16	2.585826E-17
6.968883E+03	7.296386E-16	2.584387E-17
6.978796E+03	7.293664E-16	2.585753E-17
6.988709E+03	7.298753E-16	2.589893E-17
6.998622E+03	7.311579E-16	2.596788E-17
7.008535E+03	7.332181E-16	2.606459E-17
7.018448E+03	7.360434E-16	2.618869E-17
7.028361E+03	7.396313E-16	2.634017E-17
7.038274E+03	7.439790E-16	2.651900E-17
7.048187E+03	7.490825E-16	2.672512E-17
7.058100E+03	7.549358E-16	2.695837E-17
7.068014E+03	7.615298E-16	2.721851E-17
7.077927E+03	7.688606E-16	2.750547E-17
7.087840E+03	7.768910E-16	2.781799E-17
7.097753E+03	7.856159E-16	2.815597E-17
7.107666E+03	7.949857E-16	2.851767E-17
7.117579E+03	8.049825E-16	2.890254E-17
7.127492E+03	8.155421E-16	2.930831E-17
7.137405E+03	8.266330E-16	2.973393E-17
7.147318E+03	8.381760E-16	3.017658E-17
7.157231E+03	8.501266E-16	3.063471E-17
7.167144E+03	8.623919E-16	3.110502E-17
7.177057E+03	8.749169E-16	3.158554E-17
7.186970E+03	8.875981E-16	3.207257E-17
7.196883E+03	9.003739E-16	3.256389E-17
7.206796E+03	9.131362E-16	3.305561E-17
7.216709E+03	9.258233E-16	3.354549E-17
7.226623E+03	9.383295E-16	3.402969E-17
7.236536E+03	9.506009E-16	3.450623E-17
7.246449E+03	9.625417E-16	3.497163E-17
7.256362E+03	9.741153E-16	3.542451E-17
7.266275E+03	9.852423E-16	3.586195E-17
7.276188E+03	9.959069E-16	3.628334E-17
7.286101E+03	1.006066E-15	3.668704E-17
7.296014E+03	1.015686E-15	3.707183E-17
7.305927E+03	1.024786E-15	3.743830E-17
7.315840E+03	1.033353E-15	3.778594E-17
7.325753E+03	1.041384E-15	3.811460E-17
7.335666E+03	1.048905E-15	3.842520E-17
7.345579E+03	1.055939E-15	3.871849E-17
7.355492E+03	1.062493E-15	3.899470E-17
7.365405E+03	1.068604E-15	3.925518E-17
7.375318E+03	1.074284E-15	3.950026E-17
7.385232E+03	1.079569E-15	3.973126E-17
7.395145E+03	1.084483E-15	3.994905E-17
7.405058E+03	1.089018E-15	4.015327E-17
7.414971E+03	1.093242E-15	4.034642E-17
7.424884E+03	1.097149E-15	4.052820E-17
7.434797E+03	1.100765E-15	4.069958E-17
7.444710E+03	1.104148E-15	4.086268E-17
7.454623E+03	1.107291E-15	4.101722E-17
7.464536E+03	1.110278E-15	4.116628E-17
7.474449E+03	1.113126E-15	4.131048E-17
7.484362E+03	1.115906E-15	4.145249E-17
7.494275E+03	1.118663E-15	4.159390E-17
7.504188E+03	1.121477E-15	4.173774E-17
7.514101E+03	1.124406E-15	4.188618E-17
7.524014E+03	1.127518E-15	4.204179E-17
7.533927E+03	1.130902E-15	4.220785E-17
7.543841E+03	1.134608E-15	4.238633E-17
7.553754E+03	1.138696E-15	4.257945E-17
7.563667E+03	1.143227E-15	4.278960E-17
7.573580E+03	1.148204E-15	4.301687E-17
7.583493E+03	1.153670E-15	4.326301E-17
7.593406E+03	1.159602E-15	4.352716E-17
7.603319E+03	1.165966E-15	4.380814E-17
7.613232E+03	1.172703E-15	4.410377E-17
7.623145E+03	1.179729E-15	4.441089E-17
7.633058E+03	1.186943E-15	4.472577E-17
7.642971E+03	1.194175E-15	4.504203E-17
7.652884E+03	1.201277E-15	4.535411E-17
7.662797E+03	1.208081E-15	4.565562E-17
7.672710E+03	1.214354E-15	4.593769E-17
7.682623E+03	1.219915E-15	4.619349E-17
7.692536E+03	1.224511E-15	4.641334E-17
