#wls	flux	fluxerr
1.586090E+03	4.402439E-16	1.881320E-17
1.625742E+03	3.676792E-16	1.568515E-17
1.665394E+03	3.063328E-16	1.304497E-17
1.705047E+03	2.548720E-16	1.083379E-17
1.744699E+03	2.119227E-16	8.991311E-18
1.784351E+03	1.763321E-16	7.466930E-18
1.824003E+03	1.469318E-16	6.209679E-18
1.863656E+03	1.227596E-16	5.177597E-18
1.903308E+03	1.029502E-16	4.333068E-18
1.942960E+03	8.678936E-17	3.645073E-18
1.982612E+03	7.365444E-17	3.086633E-18
2.022265E+03	6.308498E-17	2.637745E-18
2.061917E+03	5.472242E-17	2.282794E-18
2.101569E+03	4.831744E-17	2.010820E-18
2.141221E+03	4.366892E-17	1.812934E-18
2.180874E+03	4.058889E-17	1.680850E-18
2.220526E+03	3.891961E-17	1.607584E-18
2.260178E+03	3.849731E-17	1.585950E-18
2.299830E+03	3.923469E-17	1.611956E-18
2.339483E+03	4.108553E-17	1.683312E-18
2.379135E+03	4.403778E-17	1.799129E-18
2.418787E+03	4.815310E-17	1.961508E-18
2.458439E+03	5.347387E-17	2.171717E-18
2.498092E+03	6.005771E-17	2.431601E-18
2.537744E+03	6.795674E-17	2.742732E-18
2.577396E+03	7.719749E-17	3.105602E-18
2.617048E+03	8.773174E-17	3.517670E-18
2.656701E+03	9.950926E-17	3.976312E-18
2.696353E+03	1.124563E-16	4.477973E-18
2.736005E+03	1.264695E-16	5.017943E-18
2.775657E+03	1.414223E-16	5.590623E-18
2.815310E+03	1.572870E-16	6.194375E-18
2.854962E+03	1.740110E-16	6.826566E-18
2.894614E+03	1.915811E-16	7.486130E-18
2.934266E+03	2.101204E-16	8.177281E-18
2.973919E+03	2.297655E-16	8.904666E-18
2.983832E+03	2.348588E-16	9.092446E-18
2.993745E+03	2.400724E-16	9.284412E-18
3.003658E+03	2.453457E-16	9.478205E-18
3.013571E+03	2.507477E-16	9.676474E-18
3.023484E+03	2.562498E-16	9.878102E-18
3.033397E+03	2.618582E-16	1.008331E-17
3.043310E+03	2.675726E-16	1.029207E-17
3.053223E+03	2.734425E-16	1.050626E-17
3.063136E+03	2.794016E-16	1.072332E-17
3.073049E+03	2.855612E-16	1.094749E-17
3.082962E+03	2.918183E-16	1.117482E-17
3.092875E+03	2.982503E-16	1.140823E-17
3.102789E+03	3.048632E-16	1.164793E-17
3.112702E+03	3.116247E-16	1.189266E-17
3.122615E+03	3.185783E-16	1.214406E-17
3.132528E+03	3.257304E-16	1.240234E-17
3.142441E+03	3.330472E-16	1.266618E-17
3.152354E+03	3.406145E-16	1.293881E-17
3.162267E+03	3.483579E-16	1.321738E-17
3.172180E+03	3.563240E-16	1.350361E-17
3.182093E+03	3.645612E-16	1.379932E-17
3.192006E+03	3.730347E-16	1.410313E-17
3.201919E+03	3.817067E-16	1.441359E-17
3.211832E+03	3.907139E-16	1.473582E-17
3.221745E+03	3.999762E-16	1.506674E-17
3.231658E+03	4.094989E-16	1.540652E-17
3.241571E+03	4.193334E-16	1.575705E-17
3.251484E+03	4.294865E-16	1.611853E-17
3.261398E+03	4.399173E-16	1.648937E-17
3.271311E+03	4.506783E-16	1.687150E-17
3.281224E+03	4.618235E-16	1.726688E-17
3.291137E+03	4.733112E-16	1.767389E-17
3.301050E+03	4.850961E-16	1.809078E-17
3.310963E+03	4.973323E-16	1.852326E-17
3.320876E+03	5.099253E-16	1.896772E-17
3.330789E+03	5.228780E-16	1.942421E-17
3.340702E+03	5.362453E-16	1.989472E-17
3.350615E+03	5.500310E-16	2.037931E-17
3.360528E+03	5.642378E-16	2.087801E-17
3.370441E+03	5.788678E-16	2.139082E-17
3.380354E+03	5.939217E-16	2.191771E-17
3.390267E+03	6.094554E-16	2.246066E-17
3.400180E+03	6.254124E-16	2.301751E-17
3.410093E+03	6.418468E-16	2.359017E-17
3.420007E+03	6.586974E-16	2.417632E-17
3.429920E+03	6.760747E-16	2.477992E-17
3.439833E+03	6.939130E-16	2.539849E-17
3.449746E+03	7.121409E-16	2.602933E-17
3.459659E+03	7.309243E-16	2.667842E-17
3.469572E+03	7.501253E-16	2.734065E-17
3.479485E+03	7.697202E-16	2.801507E-17
3.489398E+03	7.897435E-16	2.870287E-17
3.499311E+03	8.102274E-16	2.940512E-17
3.509224E+03	8.310092E-16	3.011586E-17
3.519137E+03	8.521754E-16	3.083814E-17
3.529050E+03	8.736174E-16	3.156798E-17
3.538963E+03	8.953526E-16	3.230594E-17
3.548876E+03	9.173318E-16	3.305019E-17
3.558789E+03	9.394378E-16	3.379646E-17
3.568702E+03	9.617526E-16	3.454766E-17
3.578616E+03	9.841606E-16	3.529960E-17
3.588529E+03	1.006683E-15	3.605299E-17
3.598442E+03	1.029209E-15	3.680388E-17
3.608355E+03	1.051771E-15	3.755336E-17
3.618268E+03	1.074269E-15	3.829790E-17
3.628181E+03	1.096822E-15	3.904168E-17
3.638094E+03	1.119349E-15	3.978180E-17
3.648007E+03	1.141917E-15	4.052069E-17
3.657920E+03	1.164474E-15	4.125643E-17
3.667833E+03	1.187114E-15	4.199234E-17
3.677746E+03	1.209810E-15	4.272743E-17
3.687659E+03	1.232752E-15	4.346843E-17
3.697572E+03	1.255942E-15	4.421530E-17
3.707485E+03	1.279457E-15	4.497072E-17
3.717398E+03	1.303387E-15	4.573775E-17
3.727311E+03	1.327889E-15	4.652183E-17
3.737225E+03	1.353053E-15	4.732600E-17
3.747138E+03	1.378888E-15	4.815044E-17
3.757051E+03	1.405597E-15	4.900206E-17
3.766964E+03	1.433080E-15	4.987729E-17
3.776877E+03	1.461484E-15	5.078100E-17
3.786790E+03	1.490707E-15	5.170956E-17
3.796703E+03	1.520745E-15	5.266261E-17
3.806616E+03	1.551403E-15	5.363326E-17
3.816529E+03	1.582508E-15	5.461545E-17
3.826442E+03	1.613903E-15	5.560363E-17
3.836355E+03	1.645317E-15	5.658844E-17
3.846268E+03	1.676436E-15	5.755906E-17
3.856181E+03	1.706848E-15	5.850140E-17
3.866094E+03	1.736254E-15	5.940535E-17
3.876007E+03	1.764341E-15	6.026041E-17
3.885920E+03	1.790603E-15	6.104954E-17
3.895834E+03	1.814753E-15	6.176323E-17
3.905747E+03	1.836530E-15	6.239309E-17
3.915660E+03	1.855525E-15	6.292559E-17
3.925573E+03	1.871583E-15	6.335599E-17
3.935486E+03	1.884545E-15	6.367951E-17
3.945399E+03	1.894390E-15	6.389594E-17
3.955312E+03	1.900982E-15	6.400126E-17
3.965225E+03	1.904384E-15	6.399826E-17
3.975138E+03	1.904850E-15	6.389599E-17
3.985051E+03	1.902455E-15	6.369757E-17
3.994964E+03	1.897451E-15	6.341189E-17
4.004877E+03	1.890183E-15	6.305097E-17
4.014790E+03	1.880967E-15	6.262582E-17
4.024703E+03	1.870033E-15	6.214437E-17
4.034616E+03	1.857771E-15	6.161995E-17
4.044529E+03	1.844513E-15	6.106379E-17
4.054443E+03	1.830522E-15	6.048475E-17
4.064356E+03	1.816083E-15	5.989246E-17
4.074269E+03	1.801499E-15	5.929691E-17
4.084182E+03	1.786894E-15	5.870226E-17
4.094095E+03	1.772453E-15	5.811455E-17
4.104008E+03	1.758317E-15	5.753839E-17
4.113921E+03	1.744635E-15	5.697860E-17
4.123834E+03	1.731354E-15	5.643342E-17
4.133747E+03	1.718559E-15	5.590547E-17
4.143660E+03	1.706268E-15	5.539529E-17
4.153573E+03	1.694435E-15	5.490131E-17
4.163486E+03	1.683043E-15	5.442287E-17
4.173399E+03	1.671989E-15	5.395660E-17
4.183312E+03	1.661276E-15	5.350252E-17
4.193225E+03	1.650872E-15	5.305954E-17
4.203138E+03	1.640682E-15	5.262458E-17
4.213052E+03	1.630662E-15	5.219618E-17
4.222965E+03	1.620848E-15	5.177549E-17
4.232878E+03	1.611236E-15	5.136233E-17
4.242791E+03	1.601844E-15	5.095725E-17
4.252704E+03	1.592726E-15	5.056191E-17
4.262617E+03	1.583963E-15	5.017883E-17
4.272530E+03	1.575731E-15	4.981356E-17
4.282443E+03	1.568150E-15	4.946973E-17
4.292356E+03	1.561405E-15	4.915306E-17
4.302269E+03	1.555710E-15	4.887015E-17
4.312182E+03	1.551365E-15	4.863014E-17
4.322095E+03	1.548581E-15	4.843939E-17
4.332008E+03	1.547673E-15	4.830743E-17
4.341921E+03	1.548964E-15	4.824397E-17
4.351834E+03	1.552710E-15	4.825648E-17
4.361747E+03	1.559286E-15	4.835616E-17
4.371661E+03	1.568938E-15	4.854998E-17
4.381574E+03	1.581936E-15	4.884575E-17
4.391487E+03	1.598575E-15	4.925182E-17
4.401400E+03	1.619059E-15	4.977377E-17
4.411313E+03	1.643544E-15	5.041557E-17
4.421226E+03	1.672150E-15	5.118012E-17
4.431139E+03	1.704901E-15	5.206732E-17
4.441052E+03	1.741745E-15	5.307471E-17
4.450965E+03	1.782635E-15	5.420007E-17
4.460878E+03	1.827356E-15	5.543606E-17
4.470791E+03	1.875581E-15	5.677197E-17
4.480704E+03	1.926912E-15	5.819511E-17
4.490617E+03	1.980790E-15	5.968796E-17
4.500530E+03	2.036523E-15	6.122924E-17
4.510443E+03	2.093283E-15	6.279371E-17
4.520356E+03	2.150122E-15	6.435279E-17
4.530270E+03	2.206007E-15	6.587564E-17
4.540183E+03	2.259770E-15	6.732765E-17
4.550096E+03	2.310284E-15	6.867574E-17
4.560009E+03	2.356327E-15	6.988434E-17
4.569922E+03	2.396714E-15	7.091930E-17
4.579835E+03	2.430484E-15	7.175343E-17
4.589748E+03	2.456659E-15	7.235927E-17
4.599661E+03	2.474549E-15	7.271812E-17
4.609574E+03	2.483664E-15	7.281725E-17
4.619487E+03	2.483763E-15	7.265148E-17
4.629400E+03	2.474910E-15	7.222447E-17
4.639313E+03	2.457365E-15	7.154567E-17
4.649226E+03	2.431673E-15	7.063265E-17
4.659139E+03	2.398619E-15	6.950985E-17
4.669052E+03	2.359104E-15	6.820479E-17
4.678965E+03	2.314211E-15	6.675009E-17
4.688879E+03	2.265041E-15	6.517846E-17
4.698792E+03	2.212719E-15	6.352313E-17
4.708705E+03	2.158428E-15	6.181856E-17
4.718618E+03	2.103183E-15	6.009423E-17
4.728531E+03	2.047983E-15	5.837874E-17
4.738444E+03	1.993683E-15	5.669644E-17
4.748357E+03	1.941009E-15	5.506773E-17
4.758270E+03	1.890572E-15	5.350955E-17
4.768183E+03	1.842802E-15	5.203363E-17
4.778096E+03	1.798063E-15	5.064968E-17
4.788009E+03	1.756579E-15	4.936335E-17
4.797922E+03	1.718422E-15	4.817604E-17
4.807835E+03	1.683636E-15	4.708826E-17
4.817748E+03	1.652161E-15	4.609774E-17
4.827661E+03	1.623838E-15	4.519930E-17
4.837574E+03	1.598497E-15	4.438765E-17
4.847488E+03	1.575930E-15	4.365641E-17
4.857401E+03	1.555888E-15	4.299816E-17
4.867314E+03	1.538126E-15	4.240563E-17
4.877227E+03	1.522383E-15	4.187120E-17
4.887140E+03	1.508423E-15	4.138800E-17
4.897053E+03	1.495978E-15	4.094837E-17
4.906966E+03	1.484898E-15	4.054788E-17
4.916879E+03	1.474994E-15	4.018113E-17
4.926792E+03	1.466139E-15	3.984445E-17
4.936705E+03	1.458266E-15	3.953584E-17
4.946618E+03	1.451338E-15	3.925407E-17
4.956531E+03	1.445347E-15	3.899879E-17
4.966444E+03	1.440379E-15	3.877213E-17
4.976357E+03	1.436506E-15	3.857585E-17
4.986270E+03	1.433857E-15	3.841317E-17
4.996183E+03	1.432599E-15	3.828832E-17
5.006097E+03	1.432886E-15	3.820522E-17
5.016010E+03	1.434938E-15	3.816939E-17
5.025923E+03	1.438903E-15	3.818442E-17
5.035836E+03	1.445018E-15	3.825630E-17
5.045749E+03	1.453462E-15	3.838931E-17
5.055662E+03	1.464400E-15	3.858744E-17
5.065575E+03	1.478038E-15	3.885561E-17
5.075488E+03	1.494502E-15	3.919668E-17
5.085401E+03	1.513965E-15	3.961470E-17
5.095314E+03	1.536537E-15	4.011200E-17
5.105227E+03	1.562319E-15	4.069072E-17
5.115140E+03	1.591394E-15	4.135243E-17
5.125053E+03	1.623814E-15	4.209795E-17
5.134966E+03	1.659604E-15	4.292738E-17
5.144879E+03	1.698772E-15	4.384040E-17
5.154792E+03	1.741254E-15	4.483480E-17
5.164706E+03	1.786964E-15	4.590788E-17
5.174619E+03	1.835769E-15	4.705573E-17
5.184532E+03	1.887492E-15	4.827336E-17
5.194445E+03	1.941905E-15	4.955458E-17
5.204358E+03	1.998736E-15	5.089205E-17
5.214271E+03	2.057691E-15	5.227802E-17
5.224184E+03	2.118371E-15	5.370211E-17
5.234097E+03	2.180435E-15	5.515552E-17
5.244010E+03	2.243432E-15	5.662678E-17
5.253923E+03	2.306970E-15	5.810593E-17
5.263836E+03	2.370639E-15	5.958274E-17
5.273749E+03	2.434050E-15	6.104758E-17
5.283662E+03	2.496851E-15	6.249176E-17
5.293575E+03	2.558732E-15	6.390780E-17
5.303488E+03	2.619424E-15	6.528926E-17
5.313401E+03	2.678747E-15	6.663199E-17
5.323315E+03	2.736657E-15	6.793525E-17
5.333228E+03	2.793048E-15	6.919675E-17
5.343141E+03	2.848025E-15	7.041946E-17
5.353054E+03	2.901697E-15	7.160640E-17
5.362967E+03	2.954173E-15	7.276061E-17
5.372880E+03	3.005590E-15	7.388577E-17
5.382793E+03	3.055951E-15	7.498221E-17
5.392706E+03	3.105111E-15	7.604668E-17
5.402619E+03	3.152865E-15	7.707450E-17
5.412532E+03	3.198959E-15	7.805977E-17
5.422445E+03	3.243085E-15	7.899538E-17
5.432358E+03	3.284861E-15	7.987240E-17
5.442271E+03	3.323924E-15	8.068248E-17
5.452184E+03	3.359803E-15	8.141461E-17
5.462097E+03	3.392061E-15	8.205868E-17
5.472010E+03	3.420170E-15	8.260243E-17
5.481924E+03	3.443639E-15	8.303457E-17
5.491837E+03	3.462029E-15	8.334513E-17
5.501750E+03	3.474891E-15	8.352390E-17
5.511663E+03	3.481962E-15	8.356521E-17
5.521576E+03	3.482920E-15	8.346200E-17
5.531489E+03	3.477794E-15	8.321564E-17
5.541402E+03	3.466636E-15	8.282794E-17
5.551315E+03	3.449702E-15	8.230564E-17
5.561228E+03	3.427459E-15	8.166040E-17
5.571141E+03	3.400435E-15	8.090526E-17
5.581054E+03	3.369404E-15	8.005899E-17
5.590967E+03	3.335256E-15	7.914304E-17
5.600880E+03	3.298868E-15	7.817840E-17
5.610793E+03	3.261292E-15	7.719011E-17
5.620706E+03	3.223462E-15	7.620024E-17
5.630619E+03	3.186411E-15	7.523312E-17
5.640533E+03	3.150981E-15	7.430846E-17
5.650446E+03	3.118022E-15	7.344606E-17
5.660359E+03	3.088233E-15	7.266210E-17
5.670272E+03	3.062149E-15	7.196884E-17
5.680185E+03	3.040191E-15	7.137579E-17
5.690098E+03	3.022642E-15	7.088924E-17
5.700011E+03	3.009567E-15	7.051035E-17
5.709924E+03	3.000921E-15	7.023770E-17
5.719837E+03	2.996404E-15	7.006395E-17
5.729750E+03	2.995645E-15	6.998013E-17
5.739663E+03	2.998092E-15	6.997309E-17
5.749576E+03	3.003055E-15	7.002655E-17
5.759489E+03	3.009693E-15	7.012078E-17
5.769402E+03	3.017132E-15	7.023530E-17
5.779315E+03	3.024339E-15	7.034609E-17
5.789228E+03	3.030371E-15	7.043121E-17
5.799142E+03	3.034194E-15	7.046677E-17
5.809055E+03	3.034824E-15	7.043000E-17
5.818968E+03	3.031413E-15	7.030143E-17
5.828881E+03	3.023177E-15	7.006309E-17
5.838794E+03	3.009540E-15	6.970181E-17
5.848707E+03	2.990044E-15	6.920722E-17
5.858620E+03	2.964424E-15	6.857342E-17
5.868533E+03	2.932700E-15	6.780108E-17
5.878446E+03	2.894976E-15	6.689274E-17
5.888359E+03	2.851624E-15	6.585718E-17
5.898272E+03	2.803124E-15	6.470560E-17
5.908185E+03	2.750124E-15	6.345304E-17
5.918098E+03	2.693407E-15	6.211755E-17
5.928011E+03	2.633750E-15	6.071710E-17
5.937924E+03	2.572076E-15	5.927294E-17
5.947837E+03	2.509220E-15	5.780418E-17
5.957751E+03	2.446092E-15	5.633175E-17
5.967664E+03	2.383470E-15	5.487341E-17
5.977577E+03	2.322110E-15	5.344647E-17
5.987490E+03	2.262737E-15	5.206744E-17
5.997403E+03	2.205893E-15	5.074866E-17
6.007316E+03	2.152091E-15	4.950178E-17
6.017229E+03	2.101721E-15	4.833562E-17
6.027142E+03	2.055073E-15	4.725675E-17
6.037055E+03	2.012325E-15	4.626912E-17
6.046968E+03	1.973624E-15	4.537601E-17
6.056881E+03	1.938956E-15	4.457702E-17
6.066794E+03	1.908313E-15	4.387187E-17
6.076707E+03	1.881548E-15	4.325712E-17
6.086620E+03	1.858492E-15	4.272884E-17
6.096533E+03	1.838951E-15	4.228255E-17
6.106446E+03	1.822636E-15	4.191157E-17
6.116360E+03	1.809230E-15	4.160862E-17
6.126273E+03	1.798414E-15	4.136636E-17
6.136186E+03	1.789888E-15	4.117790E-17
6.146099E+03	1.783332E-15	4.103589E-17
6.156012E+03	1.778471E-15	4.093403E-17
6.165925E+03	1.775044E-15	4.086633E-17
6.175838E+03	1.772769E-15	4.082632E-17
6.185751E+03	1.771439E-15	4.080925E-17
6.195664E+03	1.770897E-15	4.081152E-17
6.205577E+03	1.771026E-15	4.083043E-17
6.215490E+03	1.771753E-15	4.086431E-17
6.225403E+03	1.773107E-15	4.091378E-17
6.235316E+03	1.775179E-15	4.098099E-17
6.245229E+03	1.778067E-15	4.106818E-17
6.255142E+03	1.781988E-15	4.118037E-17
6.265055E+03	1.787162E-15	4.132267E-17
6.274969E+03	1.793814E-15	4.150033E-17
6.284882E+03	1.802230E-15	4.171997E-17
6.294795E+03	1.812609E-15	4.198633E-17
6.304708E+03	1.825202E-15	4.230525E-17
6.314621E+03	1.840177E-15	4.268073E-17
6.324534E+03	1.857626E-15	4.311506E-17
6.334447E+03	1.877639E-15	4.361038E-17
6.344360E+03	1.900173E-15	4.416586E-17
6.354273E+03	1.925191E-15	4.478077E-17
6.364186E+03	1.952633E-15	4.545386E-17
6.374099E+03	1.982393E-15	4.618279E-17
6.384012E+03	2.014320E-15	4.696415E-17
6.393925E+03	2.048063E-15	4.778996E-17
6.403838E+03	2.083263E-15	4.865187E-17
6.413751E+03	2.119418E-15	4.953831E-17
6.423664E+03	2.155960E-15	5.043605E-17
6.433578E+03	2.192218E-15	5.132940E-17
6.443491E+03	2.227450E-15	5.220097E-17
6.453404E+03	2.260934E-15	5.303377E-17
6.463317E+03	2.291895E-15	5.380953E-17
6.473230E+03	2.319582E-15	5.451040E-17
6.483143E+03	2.343187E-15	5.511720E-17
6.493056E+03	2.362027E-15	5.561353E-17
6.502969E+03	2.375467E-15	5.598411E-17
6.512882E+03	2.382950E-15	5.621541E-17
6.522795E+03	2.384037E-15	5.629667E-17
6.532708E+03	2.378458E-15	5.622099E-17
6.542621E+03	2.366066E-15	5.598442E-17
6.552534E+03	2.346898E-15	5.558732E-17
6.562447E+03	2.321074E-15	5.503196E-17
6.572360E+03	2.288958E-15	5.432653E-17
6.582273E+03	2.250979E-15	5.348068E-17
6.592187E+03	2.207730E-15	5.250803E-17
6.602100E+03	2.159870E-15	5.142386E-17
6.612013E+03	2.108128E-15	5.024513E-17
6.621926E+03	2.053252E-15	4.898933E-17
6.631839E+03	1.996072E-15	4.767606E-17
6.641752E+03	1.937343E-15	4.632311E-17
6.651665E+03	1.877790E-15	4.494770E-17
6.661578E+03	1.818155E-15	4.356748E-17
6.671491E+03	1.759052E-15	4.219716E-17
6.681404E+03	1.701063E-15	4.085071E-17
6.691317E+03	1.644653E-15	3.953933E-17
6.701230E+03	1.590221E-15	3.827278E-17
6.711143E+03	1.538105E-15	3.705933E-17
6.721056E+03	1.488529E-15	3.590449E-17
6.730969E+03	1.441675E-15	3.481287E-17
6.740882E+03	1.397628E-15	3.378671E-17
6.750796E+03	1.356444E-15	3.282758E-17
6.760709E+03	1.318098E-15	3.193509E-17
6.770622E+03	1.282566E-15	3.110888E-17
6.780535E+03	1.249719E-15	3.034600E-17
6.790448E+03	1.219484E-15	2.964493E-17
6.800361E+03	1.191701E-15	2.900193E-17
6.810274E+03	1.166237E-15	2.841400E-17
6.820187E+03	1.142940E-15	2.787756E-17
6.830100E+03	1.121654E-15	2.738901E-17
6.840013E+03	1.102215E-15	2.694448E-17
6.849926E+03	1.084490E-15	2.654087E-17
6.859839E+03	1.068341E-15	2.617494E-17
6.869752E+03	1.053630E-15	2.584341E-17
6.879665E+03	1.040255E-15	2.554390E-17
6.889578E+03	1.028104E-15	2.527379E-17
6.899491E+03	1.017115E-15	2.503160E-17
6.909405E+03	1.007179E-15	2.481476E-17
6.919318E+03	9.982600E-16	2.462248E-17
6.929231E+03	9.903128E-16	2.445372E-17
6.939144E+03	9.832912E-16	2.430740E-17
6.949057E+03	9.771728E-16	2.418306E-17
6.958970E+03	9.719572E-16	2.408075E-17
6.968883E+03	9.676308E-16	2.400022E-17
6.978796E+03	9.641987E-16	2.394165E-17
6.988709E+03	9.616737E-16	2.390545E-17
6.998622E+03	9.600764E-16	2.389219E-17
7.008535E+03	9.594176E-16	2.390223E-17
7.018448E+03	9.597489E-16	2.393693E-17
7.028361E+03	9.610747E-16	2.399648E-17
7.038274E+03	9.634353E-16	2.408197E-17
7.048187E+03	9.668455E-16	2.419385E-17
7.058100E+03	9.713275E-16	2.433278E-17
7.068014E+03	9.769096E-16	2.449955E-17
7.077927E+03	9.835903E-16	2.469421E-17
7.087840E+03	9.913684E-16	2.491683E-17
7.097753E+03	1.000233E-15	2.516723E-17
7.107666E+03	1.010150E-15	2.544462E-17
7.117579E+03	1.021096E-15	2.574851E-17
7.127492E+03	1.033020E-15	2.607772E-17
7.137405E+03	1.045845E-15	2.643038E-17
7.147318E+03	1.059495E-15	2.680463E-17
7.157231E+03	1.073877E-15	2.719818E-17
7.167144E+03	1.088897E-15	2.760875E-17
7.177057E+03	1.104412E-15	2.803274E-17
7.186970E+03	1.120309E-15	2.846732E-17
7.196883E+03	1.136438E-15	2.890873E-17
7.206796E+03	1.152688E-15	2.935415E-17
7.216709E+03	1.168874E-15	2.979888E-17
7.226623E+03	1.184885E-15	3.024010E-17
7.236536E+03	1.200574E-15	3.067405E-17
7.246449E+03	1.215832E-15	3.109789E-17
7.256362E+03	1.230517E-15	3.150800E-17
7.266275E+03	1.244563E-15	3.190264E-17
7.276188E+03	1.257865E-15	3.227901E-17
7.286101E+03	1.270391E-15	3.263632E-17
7.296014E+03	1.282072E-15	3.297269E-17
7.305927E+03	1.292916E-15	3.328825E-17
7.315840E+03	1.302883E-15	3.358194E-17
7.325753E+03	1.312013E-15	3.385471E-17
7.335666E+03	1.320306E-15	3.410650E-17
7.345579E+03	1.327769E-15	3.433745E-17
7.355492E+03	1.334467E-15	3.454913E-17
7.365405E+03	1.340430E-15	3.474234E-17
7.375318E+03	1.345662E-15	3.491703E-17
7.385232E+03	1.350213E-15	3.507455E-17
7.395145E+03	1.354121E-15	3.521575E-17
7.405058E+03	1.357442E-15	3.534208E-17
7.414971E+03	1.360185E-15	3.545377E-17
7.424884E+03	1.362420E-15	3.555253E-17
7.434797E+03	1.364186E-15	3.563940E-17
7.444710E+03	1.365592E-15	3.571716E-17
7.454623E+03	1.366685E-15	3.578706E-17
7.464536E+03	1.367564E-15	3.585165E-17
7.474449E+03	1.368364E-15	3.591446E-17
7.484362E+03	1.369194E-15	3.597839E-17
7.494275E+03	1.370199E-15	3.604723E-17
7.504188E+03	1.371532E-15	3.612505E-17
7.514101E+03	1.373371E-15	3.621659E-17
7.524014E+03	1.375861E-15	3.632577E-17
7.533927E+03	1.379182E-15	3.645734E-17
7.543841E+03	1.383446E-15	3.661444E-17
7.553754E+03	1.388825E-15	3.680170E-17
7.563667E+03	1.395415E-15	3.702176E-17
7.573580E+03	1.403316E-15	3.727748E-17
7.583493E+03	1.412562E-15	3.756984E-17
7.593406E+03	1.423159E-15	3.789920E-17
7.603319E+03	1.435092E-15	3.826529E-17
7.613232E+03	1.448254E-15	3.866546E-17
7.623145E+03	1.462530E-15	3.909671E-17
7.633058E+03	1.477708E-15	3.955357E-17
7.642971E+03	1.493571E-15	4.003030E-17
7.652884E+03	1.509809E-15	4.051870E-17
7.662797E+03	1.526127E-15	4.101093E-17
7.672710E+03	1.542118E-15	4.149602E-17
7.682623E+03	1.557379E-15	4.196318E-17
7.692536E+03	1.571531E-15	4.240210E-17
