#wls	flux	fluxerr
1.586090E+03	3.437749E-16	1.645771E-17
1.625742E+03	2.907015E-16	1.390595E-17
1.665394E+03	2.454878E-16	1.173364E-17
1.705047E+03	2.071517E-16	9.893080E-18
1.744699E+03	1.748936E-16	8.345410E-18
1.784351E+03	1.478067E-16	7.046753E-18
1.824003E+03	1.252013E-16	5.963687E-18
1.863656E+03	1.063983E-16	5.063396E-18
1.903308E+03	9.079162E-17	4.316621E-18
1.942960E+03	7.790396E-17	3.700311E-18
1.982612E+03	6.733477E-17	3.195124E-18
2.022265E+03	5.875242E-17	2.785050E-18
2.061917E+03	5.190075E-17	2.457698E-18
2.101569E+03	4.662433E-17	2.205484E-18
2.141221E+03	4.277327E-17	2.021104E-18
2.180874E+03	4.021119E-17	1.897912E-18
2.220526E+03	3.879969E-17	1.829188E-18
2.260178E+03	3.840321E-17	1.808366E-18
2.299830E+03	3.891666E-17	1.830335E-18
2.339483E+03	4.030362E-17	1.893227E-18
2.379135E+03	4.255527E-17	1.996469E-18
2.418787E+03	4.567627E-17	2.140116E-18
2.458439E+03	4.972741E-17	2.326841E-18
2.498092E+03	5.473658E-17	2.557756E-18
2.537744E+03	6.075493E-17	2.835043E-18
2.577396E+03	6.781707E-17	3.160092E-18
2.617048E+03	7.595721E-17	3.534257E-18
2.656701E+03	8.518621E-17	3.957786E-18
2.696353E+03	9.551761E-17	4.431041E-18
2.736005E+03	1.069291E-16	4.952704E-18
2.775657E+03	1.194452E-16	5.523632E-18
2.815310E+03	1.330899E-16	6.144620E-18
2.854962E+03	1.478868E-16	6.816442E-18
2.894614E+03	1.639292E-16	7.543059E-18
2.934266E+03	1.813548E-16	8.330427E-18
2.973919E+03	2.003239E-16	9.185481E-18
2.983832E+03	2.053385E-16	9.411194E-18
2.993745E+03	2.104659E-16	9.641847E-18
3.003658E+03	2.157381E-16	9.878898E-18
3.013571E+03	2.211015E-16	1.011988E-17
3.023484E+03	2.266181E-16	1.036763E-17
3.033397E+03	2.322645E-16	1.062106E-17
3.043310E+03	2.380718E-16	1.088159E-17
3.053223E+03	2.440228E-16	1.114840E-17
3.063136E+03	2.501210E-16	1.142167E-17
3.073049E+03	2.564031E-16	1.170304E-17
3.082962E+03	2.628744E-16	1.199274E-17
3.092875E+03	2.695073E-16	1.228951E-17
3.102789E+03	2.763399E-16	1.259508E-17
3.112702E+03	2.833438E-16	1.290811E-17
3.122615E+03	2.905938E-16	1.323202E-17
3.132528E+03	2.980261E-16	1.356388E-17
3.142441E+03	3.056815E-16	1.390553E-17
3.152354E+03	3.135664E-16	1.425724E-17
3.162267E+03	3.217249E-16	1.462101E-17
3.172180E+03	3.300883E-16	1.499368E-17
3.182093E+03	3.387389E-16	1.537899E-17
3.192006E+03	3.476453E-16	1.577548E-17
3.201919E+03	3.568134E-16	1.618340E-17
3.211832E+03	3.662902E-16	1.660486E-17
3.221745E+03	3.760417E-16	1.703831E-17
3.231658E+03	3.861159E-16	1.748587E-17
3.241571E+03	3.965200E-16	1.794787E-17
3.251484E+03	4.072174E-16	1.842261E-17
3.261398E+03	4.183013E-16	1.891430E-17
3.271311E+03	4.296902E-16	1.941921E-17
3.281224E+03	4.414335E-16	1.993955E-17
3.291137E+03	4.535829E-16	2.047762E-17
3.301050E+03	4.660984E-16	2.103160E-17
3.310963E+03	4.789841E-16	2.160163E-17
3.320876E+03	4.922919E-16	2.219003E-17
3.330789E+03	5.060268E-16	2.279698E-17
3.340702E+03	5.201427E-16	2.342038E-17
3.350615E+03	5.346915E-16	2.406252E-17
3.360528E+03	5.496749E-16	2.472345E-17
3.370441E+03	5.650942E-16	2.540320E-17
3.380354E+03	5.809490E-16	2.610171E-17
3.390267E+03	5.972918E-16	2.682129E-17
3.400180E+03	6.140673E-16	2.755943E-17
3.410093E+03	6.312711E-16	2.831589E-17
3.420007E+03	6.490090E-16	2.909538E-17
3.429920E+03	6.671638E-16	2.989261E-17
3.439833E+03	6.857823E-16	3.070962E-17
3.449746E+03	7.049114E-16	3.154849E-17
3.459659E+03	7.244787E-16	3.240592E-17
3.469572E+03	7.444640E-16	3.328098E-17
3.479485E+03	7.648416E-16	3.417248E-17
3.489398E+03	7.857022E-16	3.508444E-17
3.499311E+03	8.068888E-16	3.600980E-17
3.509224E+03	8.284201E-16	3.694938E-17
3.519137E+03	8.503127E-16	3.790387E-17
3.529050E+03	8.724540E-16	3.886823E-17
3.538963E+03	8.947902E-16	3.984003E-17
3.548876E+03	9.173298E-16	4.081965E-17
3.558789E+03	9.400187E-16	4.180463E-17
3.568702E+03	9.628028E-16	4.279256E-17
3.578616E+03	9.856293E-16	4.378109E-17
3.588529E+03	1.008514E-15	4.477093E-17
3.598442E+03	1.031349E-15	4.575722E-17
3.608355E+03	1.054090E-15	4.673804E-17
3.618268E+03	1.076836E-15	4.771778E-17
3.628181E+03	1.099423E-15	4.868918E-17
3.638094E+03	1.121895E-15	4.965415E-17
3.648007E+03	1.144300E-15	5.061488E-17
3.657920E+03	1.166631E-15	5.157098E-17
3.667833E+03	1.188820E-15	5.251953E-17
3.677746E+03	1.210948E-15	5.346403E-17
3.687659E+03	1.233042E-15	5.440576E-17
3.697572E+03	1.255144E-15	5.534649E-17
3.707485E+03	1.277314E-15	5.628891E-17
3.717398E+03	1.299689E-15	5.723902E-17
3.727311E+03	1.322352E-15	5.820050E-17
3.737225E+03	1.345326E-15	5.917426E-17
3.747138E+03	1.368832E-15	6.017000E-17
3.757051E+03	1.392815E-15	6.118525E-17
3.766964E+03	1.417466E-15	6.222843E-17
3.776877E+03	1.442753E-15	6.329796E-17
3.786790E+03	1.468734E-15	6.439639E-17
3.796703E+03	1.495356E-15	6.552135E-17
3.806616E+03	1.522453E-15	6.666545E-17
3.816529E+03	1.549941E-15	6.782501E-17
3.826442E+03	1.577687E-15	6.899418E-17
3.836355E+03	1.605388E-15	7.015966E-17
3.846268E+03	1.632771E-15	7.130953E-17
3.856181E+03	1.659539E-15	7.243090E-17
3.866094E+03	1.685443E-15	7.351287E-17
3.876007E+03	1.710100E-15	7.453892E-17
3.885920E+03	1.733330E-15	7.550122E-17
3.895834E+03	1.754711E-15	7.638157E-17
3.905747E+03	1.773979E-15	7.716865E-17
3.915660E+03	1.791030E-15	7.785811E-17
3.925573E+03	1.805553E-15	7.843663E-17
3.935486E+03	1.817476E-15	7.890127E-17
3.945399E+03	1.826715E-15	7.924866E-17
3.955312E+03	1.833244E-15	7.947790E-17
3.965225E+03	1.837093E-15	7.959055E-17
3.975138E+03	1.838348E-15	7.959051E-17
3.985051E+03	1.837091E-15	7.948160E-17
3.994964E+03	1.833557E-15	7.927422E-17
4.004877E+03	1.827912E-15	7.897574E-17
4.014790E+03	1.820455E-15	7.859922E-17
4.024703E+03	1.811395E-15	7.815389E-17
4.034616E+03	1.801003E-15	7.765159E-17
4.044529E+03	1.789547E-15	7.710395E-17
4.054443E+03	1.777283E-15	7.652210E-17
4.064356E+03	1.764403E-15	7.591438E-17
4.074269E+03	1.751123E-15	7.529018E-17
4.084182E+03	1.737636E-15	7.465775E-17
4.094095E+03	1.724104E-15	7.402415E-17
4.104008E+03	1.710585E-15	7.339181E-17
4.113921E+03	1.697274E-15	7.276916E-17
4.123834E+03	1.684146E-15	7.215509E-17
4.133747E+03	1.671353E-15	7.155604E-17
4.143660E+03	1.658877E-15	7.097127E-17
4.153573E+03	1.646730E-15	7.040127E-17
4.163486E+03	1.634986E-15	6.984915E-17
4.173399E+03	1.623606E-15	6.931326E-17
4.183312E+03	1.612622E-15	6.879487E-17
4.193225E+03	1.602063E-15	6.829518E-17
4.203138E+03	1.591893E-15	6.781268E-17
4.213052E+03	1.582122E-15	6.734775E-17
4.222965E+03	1.572822E-15	6.690340E-17
4.232878E+03	1.563988E-15	6.647937E-17
4.242791E+03	1.555652E-15	6.607700E-17
4.252704E+03	1.547864E-15	6.569838E-17
4.262617E+03	1.540714E-15	6.534722E-17
4.272530E+03	1.534279E-15	6.502679E-17
4.282443E+03	1.528627E-15	6.473990E-17
4.292356E+03	1.523874E-15	6.449133E-17
4.302269E+03	1.520201E-15	6.428874E-17
4.312182E+03	1.517709E-15	6.413622E-17
4.322095E+03	1.516589E-15	6.404181E-17
4.332008E+03	1.517000E-15	6.401203E-17
4.341921E+03	1.519162E-15	6.405601E-17
4.351834E+03	1.523273E-15	6.418203E-17
4.361747E+03	1.529514E-15	6.439740E-17
4.371661E+03	1.538060E-15	6.470937E-17
4.381574E+03	1.549144E-15	6.512747E-17
4.391487E+03	1.562878E-15	6.565625E-17
4.401400E+03	1.579419E-15	6.630196E-17
4.411313E+03	1.598832E-15	6.706714E-17
4.421226E+03	1.621175E-15	6.795395E-17
4.431139E+03	1.646447E-15	6.896206E-17
4.441052E+03	1.674609E-15	7.008955E-17
4.450965E+03	1.705474E-15	7.132834E-17
4.460878E+03	1.738880E-15	7.267143E-17
4.470791E+03	1.774514E-15	7.410551E-17
4.480704E+03	1.812034E-15	7.561609E-17
4.490617E+03	1.850963E-15	7.718316E-17
4.500530E+03	1.890804E-15	7.878579E-17
4.510443E+03	1.930958E-15	8.039903E-17
4.520356E+03	1.970735E-15	8.199415E-17
4.530270E+03	2.009472E-15	8.354355E-17
4.540183E+03	2.046384E-15	8.501481E-17
4.550096E+03	2.080724E-15	8.637701E-17
4.560009E+03	2.111719E-15	8.759842E-17
4.569922E+03	2.138684E-15	8.865085E-17
4.579835E+03	2.160881E-15	8.950423E-17
4.589748E+03	2.177769E-15	9.013654E-17
4.599661E+03	2.188897E-15	9.052963E-17
4.609574E+03	2.193888E-15	9.066841E-17
4.619487E+03	2.192624E-15	9.054872E-17
4.629400E+03	2.185015E-15	9.016726E-17
4.639313E+03	2.171262E-15	8.953304E-17
4.649226E+03	2.151642E-15	8.865794E-17
4.659139E+03	2.126576E-15	8.755992E-17
4.669052E+03	2.096660E-15	8.626391E-17
4.678965E+03	2.062553E-15	8.479756E-17
4.688879E+03	2.024941E-15	8.318935E-17
4.698792E+03	1.984646E-15	8.147334E-17
4.708705E+03	1.942421E-15	7.968076E-17
4.718618E+03	1.899010E-15	7.784219E-17
4.728531E+03	1.855141E-15	7.598758E-17
4.738444E+03	1.811460E-15	7.414340E-17
4.748357E+03	1.768538E-15	7.233302E-17
4.758270E+03	1.726904E-15	7.057795E-17
4.768183E+03	1.686916E-15	6.889271E-17
4.778096E+03	1.648897E-15	6.729034E-17
4.788009E+03	1.613049E-15	6.577885E-17
4.797922E+03	1.579554E-15	6.436551E-17
4.807835E+03	1.548446E-15	6.305146E-17
4.817748E+03	1.519760E-15	6.183794E-17
4.827661E+03	1.493449E-15	6.072273E-17
4.837574E+03	1.469473E-15	5.970410E-17
4.847488E+03	1.447694E-15	5.877623E-17
4.857401E+03	1.428020E-15	5.793509E-17
4.867314E+03	1.410273E-15	5.717339E-17
4.877227E+03	1.394337E-15	5.648615E-17
4.887140E+03	1.380042E-15	5.586642E-17
4.897053E+03	1.367261E-15	5.530890E-17
4.906966E+03	1.355849E-15	5.480754E-17
4.916879E+03	1.345714E-15	5.435853E-17
4.926792E+03	1.336757E-15	5.395782E-17
4.936705E+03	1.328956E-15	5.360437E-17
4.946618E+03	1.322261E-15	5.329603E-17
4.956531E+03	1.316697E-15	5.303378E-17
4.966444E+03	1.312318E-15	5.281968E-17
4.976357E+03	1.309177E-15	5.265575E-17
4.986270E+03	1.307362E-15	5.254541E-17
4.996183E+03	1.306976E-15	5.249271E-17
5.006097E+03	1.308150E-15	5.250277E-17
5.016010E+03	1.310998E-15	5.258004E-17
5.025923E+03	1.315626E-15	5.272864E-17
5.035836E+03	1.322158E-15	5.295338E-17
5.045749E+03	1.330683E-15	5.325768E-17
5.055662E+03	1.341307E-15	5.364564E-17
5.065575E+03	1.354112E-15	5.412030E-17
5.075488E+03	1.369163E-15	5.468416E-17
5.085401E+03	1.386516E-15	5.533926E-17
5.095314E+03	1.406199E-15	5.608647E-17
5.105227E+03	1.428258E-15	5.692756E-17
5.115140E+03	1.452731E-15	5.786378E-17
5.125053E+03	1.479596E-15	5.889408E-17
5.134966E+03	1.508863E-15	6.001871E-17
5.144879E+03	1.540493E-15	6.123597E-17
5.154792E+03	1.574480E-15	6.254537E-17
5.164706E+03	1.610744E-15	6.394367E-17
5.174619E+03	1.649180E-15	6.542645E-17
5.184532E+03	1.689707E-15	6.699039E-17
5.194445E+03	1.732144E-15	6.862820E-17
5.204358E+03	1.776331E-15	7.033344E-17
5.214271E+03	1.822066E-15	7.209796E-17
5.224184E+03	1.869120E-15	7.391266E-17
5.234097E+03	1.917221E-15	7.576668E-17
5.244010E+03	1.966124E-15	7.765030E-17
5.253923E+03	2.015550E-15	7.955254E-17
5.263836E+03	2.065220E-15	8.146237E-17
5.273749E+03	2.114838E-15	8.336808E-17
5.283662E+03	2.164130E-15	8.525899E-17
5.293575E+03	2.212862E-15	8.712594E-17
5.303488E+03	2.260791E-15	8.895941E-17
5.313401E+03	2.307648E-15	9.074893E-17
5.323315E+03	2.353276E-15	9.248845E-17
5.333228E+03	2.397498E-15	9.417113E-17
5.343141E+03	2.440110E-15	9.578913E-17
5.353054E+03	2.481033E-15	9.733948E-17
5.362967E+03	2.520109E-15	9.881612E-17
5.372880E+03	2.557305E-15	1.002180E-16
5.382793E+03	2.592523E-15	1.015413E-16
5.392706E+03	2.625667E-15	1.027825E-16
5.402619E+03	2.656739E-15	1.039419E-16
5.412532E+03	2.685637E-15	1.050156E-16
5.422445E+03	2.712338E-15	1.060030E-16
5.432358E+03	2.736781E-15	1.069017E-16
5.442271E+03	2.758861E-15	1.077079E-16
5.452184E+03	2.778501E-15	1.084187E-16
5.462097E+03	2.795534E-15	1.090278E-16
5.472010E+03	2.809795E-15	1.095289E-16
5.481924E+03	2.821105E-15	1.099152E-16
5.491837E+03	2.829312E-15	1.101809E-16
5.501750E+03	2.834248E-15	1.103197E-16
5.511663E+03	2.835761E-15	1.103260E-16
5.521576E+03	2.833790E-15	1.101973E-16
5.531489E+03	2.828401E-15	1.099367E-16
5.541402E+03	2.819669E-15	1.095471E-16
5.551315E+03	2.807792E-15	1.090364E-16
5.561228E+03	2.793038E-15	1.084151E-16
5.571141E+03	2.775845E-15	1.077004E-16
5.581054E+03	2.756655E-15	1.069096E-16
5.590967E+03	2.736005E-15	1.060635E-16
5.600880E+03	2.714479E-15	1.051849E-16
5.610793E+03	2.692718E-15	1.042985E-16
5.620706E+03	2.671291E-15	1.034264E-16
5.630619E+03	2.650836E-15	1.025933E-16
5.640533E+03	2.631925E-15	1.018212E-16
5.650446E+03	2.615083E-15	1.011303E-16
5.660359E+03	2.600740E-15	1.005373E-16
5.670272E+03	2.589314E-15	1.000580E-16
5.680185E+03	2.581029E-15	9.970104E-17
5.690098E+03	2.576079E-15	9.947377E-17
5.700011E+03	2.574487E-15	9.937688E-17
5.709924E+03	2.576207E-15	9.940849E-17
5.719837E+03	2.581021E-15	9.956005E-17
5.729750E+03	2.588610E-15	9.981916E-17
5.739663E+03	2.598561E-15	1.001698E-16
5.749576E+03	2.610286E-15	1.005892E-16
5.759489E+03	2.623193E-15	1.010544E-16
5.769402E+03	2.636515E-15	1.015361E-16
5.779315E+03	2.649510E-15	1.020055E-16
5.789228E+03	2.661364E-15	1.024313E-16
5.799142E+03	2.671308E-15	1.027841E-16
5.809055E+03	2.678566E-15	1.030340E-16
5.818968E+03	2.682451E-15	1.031548E-16
5.828881E+03	2.682366E-15	1.031235E-16
5.838794E+03	2.677830E-15	1.029218E-16
5.848707E+03	2.668468E-15	1.025355E-16
5.858620E+03	2.654100E-15	1.019577E-16
5.868533E+03	2.634634E-15	1.011852E-16
5.878446E+03	2.610151E-15	1.002210E-16
5.888359E+03	2.580865E-15	9.907360E-17
5.898272E+03	2.547080E-15	9.775471E-17
5.908185E+03	2.509258E-15	9.628216E-17
5.918098E+03	2.467893E-15	9.467497E-17
5.928011E+03	2.423592E-15	9.295649E-17
5.937924E+03	2.376936E-15	9.114903E-17
5.947837E+03	2.328600E-15	8.927849E-17
5.957751E+03	2.279219E-15	8.736923E-17
5.967664E+03	2.229463E-15	8.544690E-17
5.977577E+03	2.179910E-15	8.353358E-17
5.987490E+03	2.131178E-15	8.165293E-17
5.997403E+03	2.083746E-15	7.982329E-17
6.007316E+03	2.038077E-15	7.806226E-17
6.017229E+03	1.994574E-15	7.638528E-17
6.027142E+03	1.953509E-15	7.480265E-17
6.037055E+03	1.915134E-15	7.332397E-17
6.046968E+03	1.879593E-15	7.195469E-17
6.056881E+03	1.846993E-15	7.069882E-17
6.066794E+03	1.817343E-15	6.955666E-17
6.076707E+03	1.790604E-15	6.852663E-17
6.086620E+03	1.766719E-15	6.760653E-17
6.096533E+03	1.745577E-15	6.679204E-17
6.106446E+03	1.727019E-15	6.607707E-17
6.116360E+03	1.710890E-15	6.545560E-17
6.126273E+03	1.697014E-15	6.492094E-17
6.136186E+03	1.685163E-15	6.446428E-17
6.146099E+03	1.675112E-15	6.407701E-17
6.156012E+03	1.666614E-15	6.374970E-17
6.165925E+03	1.659455E-15	6.347410E-17
6.175838E+03	1.653427E-15	6.324229E-17
6.185751E+03	1.648294E-15	6.304521E-17
6.195664E+03	1.643894E-15	6.287670E-17
6.205577E+03	1.640124E-15	6.273274E-17
6.215490E+03	1.636857E-15	6.260852E-17
6.225403E+03	1.634085E-15	6.250370E-17
6.235316E+03	1.631810E-15	6.241836E-17
6.245229E+03	1.630135E-15	6.235641E-17
6.255142E+03	1.629182E-15	6.232253E-17
6.265055E+03	1.629102E-15	6.232250E-17
6.274969E+03	1.630125E-15	6.236512E-17
6.284882E+03	1.632453E-15	6.245807E-17
6.294795E+03	1.636332E-15	6.261082E-17
6.304708E+03	1.641953E-15	6.283066E-17
6.314621E+03	1.649504E-15	6.312480E-17
6.324534E+03	1.659112E-15	6.349812E-17
6.334447E+03	1.670868E-15	6.395414E-17
6.344360E+03	1.684806E-15	6.449418E-17
6.354273E+03	1.700860E-15	6.511574E-17
6.364186E+03	1.718971E-15	6.581658E-17
6.374099E+03	1.738927E-15	6.658861E-17
6.384012E+03	1.760519E-15	6.742389E-17
6.393925E+03	1.783474E-15	6.831197E-17
6.403838E+03	1.807401E-15	6.923791E-17
6.413751E+03	1.831907E-15	7.018665E-17
6.423664E+03	1.856524E-15	7.114031E-17
6.433578E+03	1.880744E-15	7.207942E-17
6.443491E+03	1.904023E-15	7.298311E-17
6.453404E+03	1.925774E-15	7.382891E-17
6.463317E+03	1.945361E-15	7.459236E-17
6.473230E+03	1.962179E-15	7.525027E-17
6.483143E+03	1.975669E-15	7.578109E-17
6.493056E+03	1.985296E-15	7.616429E-17
6.502969E+03	1.990636E-15	7.638348E-17
6.512882E+03	1.991261E-15	7.642211E-17
6.522795E+03	1.986964E-15	7.627217E-17
6.532708E+03	1.977517E-15	7.592478E-17
6.542621E+03	1.962889E-15	7.537862E-17
6.552534E+03	1.943163E-15	7.463675E-17
6.562447E+03	1.918468E-15	7.370394E-17
6.572360E+03	1.889101E-15	7.259150E-17
6.582273E+03	1.855427E-15	7.131333E-17
6.592187E+03	1.817910E-15	6.988713E-17
6.602100E+03	1.777019E-15	6.833078E-17
6.612013E+03	1.733321E-15	6.666604E-17
6.621926E+03	1.687398E-15	6.491512E-17
6.631839E+03	1.639853E-15	6.310120E-17
6.641752E+03	1.591248E-15	6.124583E-17
6.651665E+03	1.542141E-15	5.937043E-17
6.661578E+03	1.493074E-15	5.749581E-17
6.671491E+03	1.444508E-15	5.563978E-17
6.681404E+03	1.396889E-15	5.381940E-17
6.691317E+03	1.350584E-15	5.204895E-17
6.701230E+03	1.305905E-15	5.034037E-17
6.711143E+03	1.263085E-15	4.870273E-17
6.721056E+03	1.222346E-15	4.714460E-17
6.730969E+03	1.183796E-15	4.567022E-17
6.740882E+03	1.147548E-15	4.428399E-17
6.750796E+03	1.113626E-15	4.298691E-17
6.760709E+03	1.082034E-15	4.177917E-17
6.770622E+03	1.052746E-15	4.065988E-17
6.780535E+03	1.025692E-15	3.962632E-17
6.790448E+03	1.000787E-15	3.867536E-17
6.800361E+03	9.779444E-16	3.780365E-17
6.810274E+03	9.570537E-16	3.700699E-17
6.820187E+03	9.379895E-16	3.628061E-17
6.830100E+03	9.206353E-16	3.562003E-17
6.840013E+03	9.048872E-16	3.502130E-17
6.849926E+03	8.906355E-16	3.448022E-17
6.859839E+03	8.777668E-16	3.399245E-17
6.869752E+03	8.662075E-16	3.355518E-17
6.879665E+03	8.558410E-16	3.316393E-17
6.889578E+03	8.466227E-16	3.281701E-17
6.899491E+03	8.384661E-16	3.251111E-17
6.909405E+03	8.313143E-16	3.224406E-17
6.919318E+03	8.251391E-16	3.201480E-17
6.929231E+03	8.198805E-16	3.182103E-17
6.939144E+03	8.155062E-16	3.166153E-17
6.949057E+03	8.120005E-16	3.153572E-17
6.958970E+03	8.093449E-16	3.144292E-17
6.968883E+03	8.075168E-16	3.138228E-17
6.978796E+03	8.065096E-16	3.135357E-17
6.988709E+03	8.063313E-16	3.135714E-17
6.998622E+03	8.069852E-16	3.139314E-17
7.008535E+03	8.084687E-16	3.146152E-17
7.018448E+03	8.107920E-16	3.156269E-17
7.028361E+03	8.139671E-16	3.169715E-17
7.038274E+03	8.180163E-16	3.186582E-17
7.048187E+03	8.229308E-16	3.206838E-17
7.058100E+03	8.287390E-16	3.230598E-17
7.068014E+03	8.354338E-16	3.257838E-17
7.077927E+03	8.430123E-16	3.288550E-17
7.087840E+03	8.514638E-16	3.322697E-17
7.097753E+03	8.607677E-16	3.360201E-17
7.107666E+03	8.708832E-16	3.400908E-17
7.117579E+03	8.817916E-16	3.444748E-17
7.127492E+03	8.934204E-16	3.491441E-17
7.137405E+03	9.057190E-16	3.540792E-17
7.147318E+03	9.186164E-16	3.592528E-17
7.157231E+03	9.320195E-16	3.646287E-17
7.167144E+03	9.458495E-16	3.701763E-17
7.177057E+03	9.600068E-16	3.758569E-17
7.186970E+03	9.743730E-16	3.816242E-17
7.196883E+03	9.888356E-16	3.874343E-17
7.206796E+03	1.003291E-15	3.932467E-17
7.216709E+03	1.017622E-15	3.990156E-17
7.226623E+03	1.031689E-15	4.046858E-17
7.236536E+03	1.045409E-15	4.102250E-17
7.246449E+03	1.058683E-15	4.155943E-17
7.256362E+03	1.071415E-15	4.207558E-17
7.266275E+03	1.083534E-15	4.256814E-17
7.276188E+03	1.095007E-15	4.303577E-17
7.286101E+03	1.105776E-15	4.347617E-17
7.296014E+03	1.115856E-15	4.388991E-17
7.305927E+03	1.125255E-15	4.427727E-17
7.315840E+03	1.133978E-15	4.463844E-17
7.325753E+03	1.142043E-15	4.497410E-17
7.335666E+03	1.149519E-15	4.528690E-17
7.345579E+03	1.156447E-15	4.557846E-17
7.355492E+03	1.162841E-15	4.584927E-17
7.365405E+03	1.168767E-15	4.610200E-17
7.375318E+03	1.174229E-15	4.633669E-17
7.385232E+03	1.179282E-15	4.655558E-17
7.395145E+03	1.183918E-15	4.675825E-17
7.405058E+03	1.188178E-15	4.694639E-17
7.414971E+03	1.192062E-15	4.711990E-17
7.424884E+03	1.195578E-15	4.727913E-17
7.434797E+03	1.198738E-15	4.742457E-17
7.444710E+03	1.201562E-15	4.755692E-17
7.454623E+03	1.204078E-15	4.767732E-17
7.464536E+03	1.206324E-15	4.778727E-17
7.474449E+03	1.208337E-15	4.788819E-17
7.484362E+03	1.210217E-15	4.798407E-17
7.494275E+03	1.212016E-15	4.807696E-17
7.504188E+03	1.213847E-15	4.817133E-17
7.514101E+03	1.215807E-15	4.827105E-17
7.524014E+03	1.218031E-15	4.838148E-17
7.533927E+03	1.220641E-15	4.850749E-17
7.543841E+03	1.223745E-15	4.865339E-17
7.553754E+03	1.227472E-15	4.882439E-17
7.563667E+03	1.231927E-15	4.902464E-17
7.573580E+03	1.237176E-15	4.925685E-17
7.583493E+03	1.243279E-15	4.952345E-17
7.593406E+03	1.250277E-15	4.982617E-17
7.603319E+03	1.258137E-15	5.016370E-17
7.613232E+03	1.266820E-15	5.053453E-17
7.623145E+03	1.276222E-15	5.093462E-17
7.633058E+03	1.286164E-15	5.135682E-17
7.642971E+03	1.296507E-15	5.179565E-17
7.652884E+03	1.306996E-15	5.224094E-17
7.662797E+03	1.317372E-15	5.268237E-17
7.672710E+03	1.327376E-15	5.310952E-17
7.682623E+03	1.336690E-15	5.350970E-17
7.692536E+03	1.345025E-15	5.387133E-17
