#wls	flux	fluxerr
1.586090E+03	7.013706E-17	4.246605E-18
1.625742E+03	6.718427E-17	4.065577E-18
1.665394E+03	6.442635E-17	3.896480E-18
1.705047E+03	6.188166E-17	3.740408E-18
1.744699E+03	5.953303E-17	3.596307E-18
1.784351E+03	5.735943E-17	3.462892E-18
1.824003E+03	5.536658E-17	3.340494E-18
1.863656E+03	5.353766E-17	3.228083E-18
1.903308E+03	5.184691E-17	3.124091E-18
1.942960E+03	5.028066E-17	3.027684E-18
1.982612E+03	4.884973E-17	2.939500E-18
2.022265E+03	4.755807E-17	2.859763E-18
2.061917E+03	4.644933E-17	2.791083E-18
2.101569E+03	4.560055E-17	2.738064E-18
2.141221E+03	4.511353E-17	2.706781E-18
2.180874E+03	4.502661E-17	2.699484E-18
2.220526E+03	4.533605E-17	2.715893E-18
2.260178E+03	4.598785E-17	2.752720E-18
2.299830E+03	4.690350E-17	2.805216E-18
2.339483E+03	4.804529E-17	2.871084E-18
2.379135E+03	4.937348E-17	2.947915E-18
2.418787E+03	5.090637E-17	3.036767E-18
2.458439E+03	5.263904E-17	3.137308E-18
2.498092E+03	5.460427E-17	3.251452E-18
2.537744E+03	5.682449E-17	3.380489E-18
2.577396E+03	5.932490E-17	3.525866E-18
2.617048E+03	6.214137E-17	3.689657E-18
2.656701E+03	6.529551E-17	3.873078E-18
2.696353E+03	6.884633E-17	4.079557E-18
2.736005E+03	7.282179E-17	4.310664E-18
2.775657E+03	7.727110E-17	4.569218E-18
2.815310E+03	8.223813E-17	4.857705E-18
2.854962E+03	8.778071E-17	5.179425E-18
2.894614E+03	9.396193E-17	5.537965E-18
2.934266E+03	1.008500E-16	5.937194E-18
2.973919E+03	1.085185E-16	6.381273E-18
2.983832E+03	1.105597E-16	6.499404E-18
2.993745E+03	1.126562E-16	6.620708E-18
3.003658E+03	1.148090E-16	6.745244E-18
3.013571E+03	1.170193E-16	6.873071E-18
3.023484E+03	1.192882E-16	7.004254E-18
3.033397E+03	1.216176E-16	7.138898E-18
3.043310E+03	1.240065E-16	7.276950E-18
3.053223E+03	1.264607E-16	7.418734E-18
3.063136E+03	1.289806E-16	7.564277E-18
3.073049E+03	1.315670E-16	7.713627E-18
3.082962E+03	1.342209E-16	7.866825E-18
3.092875E+03	1.369429E-16	8.023910E-18
3.102789E+03	1.397336E-16	8.184913E-18
3.112702E+03	1.425939E-16	8.349886E-18
3.122615E+03	1.455245E-16	8.518856E-18
3.132528E+03	1.485259E-16	8.691859E-18
3.142441E+03	1.516142E-16	8.869824E-18
3.152354E+03	1.547597E-16	9.051010E-18
3.162267E+03	1.579934E-16	9.237232E-18
3.172180E+03	1.613010E-16	9.427637E-18
3.182093E+03	1.646827E-16	9.622241E-18
3.192006E+03	1.681552E-16	9.822015E-18
3.201919E+03	1.716866E-16	1.002509E-17
3.211832E+03	1.753099E-16	1.023338E-17
3.221745E+03	1.790090E-16	1.044595E-17
3.231658E+03	1.828010E-16	1.066380E-17
3.241571E+03	1.866522E-16	1.088493E-17
3.251484E+03	1.905967E-16	1.111135E-17
3.261398E+03	1.946350E-16	1.134308E-17
3.271311E+03	1.987316E-16	1.157804E-17
3.281224E+03	2.029218E-16	1.181827E-17
3.291137E+03	2.072055E-16	1.206378E-17
3.301050E+03	2.115641E-16	1.231348E-17
3.310963E+03	2.159969E-16	1.256730E-17
3.320876E+03	2.205027E-16	1.282519E-17
3.330789E+03	2.251190E-16	1.308932E-17
3.340702E+03	2.297873E-16	1.335627E-17
3.350615E+03	2.345448E-16	1.362822E-17
3.360528E+03	2.393906E-16	1.390509E-17
3.370441E+03	2.443032E-16	1.418564E-17
3.380354E+03	2.493011E-16	1.447094E-17
3.390267E+03	2.543621E-16	1.475968E-17
3.400180E+03	2.595046E-16	1.505293E-17
3.410093E+03	2.647268E-16	1.535059E-17
3.420007E+03	2.700052E-16	1.565128E-17
3.429920E+03	2.753368E-16	1.595483E-17
3.439833E+03	2.807624E-16	1.626360E-17
3.449746E+03	2.862358E-16	1.657490E-17
3.459659E+03	2.917761E-16	1.688984E-17
3.469572E+03	2.973578E-16	1.720694E-17
3.479485E+03	3.030004E-16	1.752732E-17
3.489398E+03	3.087008E-16	1.785079E-17
3.499311E+03	3.144560E-16	1.817719E-17
3.509224E+03	3.202631E-16	1.850633E-17
3.519137E+03	3.260955E-16	1.883669E-17
3.529050E+03	3.319735E-16	1.916942E-17
3.538963E+03	3.378943E-16	1.950437E-17
3.548876E+03	3.438551E-16	1.984136E-17
3.558789E+03	3.498291E-16	2.017886E-17
3.568702E+03	3.558624E-16	2.051950E-17
3.578616E+03	3.619036E-16	2.086035E-17
3.588529E+03	3.680005E-16	2.120413E-17
3.598442E+03	3.741010E-16	2.154785E-17
3.608355E+03	3.802287E-16	2.189287E-17
3.618268E+03	3.863818E-16	2.223907E-17
3.628181E+03	3.925590E-16	2.258639E-17
3.638094E+03	3.987591E-16	2.293476E-17
3.648007E+03	4.049809E-16	2.328409E-17
3.657920E+03	4.112231E-16	2.363432E-17
3.667833E+03	4.174843E-16	2.398536E-17
3.677746E+03	4.237628E-16	2.433712E-17
3.687659E+03	4.300570E-16	2.468950E-17
3.697572E+03	4.363908E-16	2.504386E-17
3.707485E+03	4.427085E-16	2.539702E-17
3.717398E+03	4.490330E-16	2.575029E-17
3.727311E+03	4.553599E-16	2.610341E-17
3.737225E+03	4.616842E-16	2.645610E-17
3.747138E+03	4.679995E-16	2.680799E-17
3.757051E+03	4.742988E-16	2.715868E-17
3.766964E+03	4.806010E-16	2.750925E-17
3.776877E+03	4.868421E-16	2.785604E-17
3.786790E+03	4.930387E-16	2.820001E-17
3.796703E+03	4.992065E-16	2.854205E-17
3.806616E+03	5.052777E-16	2.887829E-17
3.816529E+03	5.112936E-16	2.921110E-17
3.826442E+03	5.171843E-16	2.953649E-17
3.836355E+03	5.229896E-16	2.985674E-17
3.846268E+03	5.286386E-16	3.016781E-17
3.856181E+03	5.341428E-16	3.047037E-17
3.866094E+03	5.395140E-16	3.076509E-17
3.876007E+03	5.446814E-16	3.104795E-17
3.885920E+03	5.496576E-16	3.131969E-17
3.895834E+03	5.544565E-16	3.158111E-17
3.905747E+03	5.590104E-16	3.182836E-17
3.915660E+03	5.633360E-16	3.206242E-17
3.925573E+03	5.674243E-16	3.228278E-17
3.935486E+03	5.712417E-16	3.248755E-17
3.945399E+03	5.748381E-16	3.267959E-17
3.955312E+03	5.781578E-16	3.285574E-17
3.965225E+03	5.812290E-16	3.301763E-17
3.975138E+03	5.840289E-16	3.316398E-17
3.985051E+03	5.866177E-16	3.329823E-17
3.994964E+03	5.889515E-16	3.341789E-17
4.004877E+03	5.910428E-16	3.352370E-17
4.014790E+03	5.929324E-16	3.361798E-17
4.024703E+03	5.946368E-16	3.370169E-17
4.034616E+03	5.961488E-16	3.377443E-17
4.044529E+03	5.975143E-16	3.383881E-17
4.054443E+03	5.987292E-16	3.389461E-17
4.064356E+03	5.998161E-16	3.394312E-17
4.074269E+03	6.007985E-16	3.398567E-17
4.084182E+03	6.017244E-16	3.402500E-17
4.094095E+03	6.025923E-16	3.406102E-17
4.104008E+03	6.034252E-16	3.409504E-17
4.113921E+03	6.042458E-16	3.412833E-17
4.123834E+03	6.050759E-16	3.416214E-17
4.133747E+03	6.059364E-16	3.419765E-17
4.143660E+03	6.068473E-16	3.423597E-17
4.153573E+03	6.078277E-16	3.427819E-17
4.163486E+03	6.088723E-16	3.432400E-17
4.173399E+03	6.100218E-16	3.437570E-17
4.183312E+03	6.112922E-16	3.443418E-17
4.193225E+03	6.126766E-16	3.449904E-17
4.203138E+03	6.142129E-16	3.457241E-17
4.213052E+03	6.158934E-16	3.465385E-17
4.222965E+03	6.177332E-16	3.474421E-17
4.232878E+03	6.197692E-16	3.484554E-17
4.242791E+03	6.219946E-16	3.495746E-17
4.252704E+03	6.244250E-16	3.508083E-17
4.262617E+03	6.270550E-16	3.521533E-17
4.272530E+03	6.299456E-16	3.536438E-17
4.282443E+03	6.330926E-16	3.552773E-17
4.292356E+03	6.364933E-16	3.570521E-17
4.302269E+03	6.401892E-16	3.589914E-17
4.312182E+03	6.442005E-16	3.611063E-17
4.322095E+03	6.485266E-16	3.633963E-17
4.332008E+03	6.532102E-16	3.658852E-17
4.341921E+03	6.582511E-16	3.685725E-17
4.351834E+03	6.636697E-16	3.714697E-17
4.361747E+03	6.695072E-16	3.745994E-17
4.371661E+03	6.757603E-16	3.779596E-17
4.381574E+03	6.824446E-16	3.815588E-17
4.391487E+03	6.895512E-16	3.853919E-17
4.401400E+03	6.971328E-16	3.894880E-17
4.411313E+03	7.051720E-16	3.938371E-17
4.421226E+03	7.136466E-16	3.984266E-17
4.431139E+03	7.225713E-16	4.032645E-17
4.441052E+03	7.319327E-16	4.083431E-17
4.450965E+03	7.416874E-16	4.136380E-17
4.460878E+03	7.518281E-16	4.191448E-17
4.470791E+03	7.622940E-16	4.248296E-17
4.480704E+03	7.730371E-16	4.306655E-17
4.490617E+03	7.840227E-16	4.366329E-17
4.500530E+03	7.951609E-16	4.426818E-17
4.510443E+03	8.063750E-16	4.487694E-17
4.520356E+03	8.175793E-16	4.548481E-17
4.530270E+03	8.287040E-16	4.608790E-17
4.540183E+03	8.396017E-16	4.667803E-17
4.550096E+03	8.501906E-16	4.725066E-17
4.560009E+03	8.603859E-16	4.780112E-17
4.569922E+03	8.700300E-16	4.832067E-17
4.579835E+03	8.790387E-16	4.880467E-17
4.589748E+03	8.873075E-16	4.924737E-17
4.599661E+03	8.947143E-16	4.964202E-17
4.609574E+03	9.011951E-16	4.998514E-17
4.619487E+03	9.066733E-16	5.027252E-17
4.629400E+03	9.110860E-16	5.050074E-17
4.639313E+03	9.143620E-16	5.066591E-17
4.649226E+03	9.164961E-16	5.076781E-17
4.659139E+03	9.174526E-16	5.080453E-17
4.669052E+03	9.172631E-16	5.077787E-17
4.678965E+03	9.159287E-16	5.068796E-17
4.688879E+03	9.135165E-16	5.053857E-17
4.698792E+03	9.100618E-16	5.033171E-17
4.708705E+03	9.056619E-16	5.007281E-17
4.718618E+03	9.004023E-16	4.976665E-17
4.728531E+03	8.943328E-16	4.941602E-17
4.738444E+03	8.876256E-16	4.903048E-17
4.748357E+03	8.803205E-16	4.861224E-17
4.758270E+03	8.725733E-16	4.816995E-17
4.768183E+03	8.644938E-16	4.770968E-17
4.778096E+03	8.561684E-16	4.723622E-17
4.788009E+03	8.477014E-16	4.675532E-17
4.797922E+03	8.392127E-16	4.627360E-17
4.807835E+03	8.307726E-16	4.579493E-17
4.817748E+03	8.224857E-16	4.532508E-17
4.827661E+03	8.144066E-16	4.486705E-17
4.837574E+03	8.066220E-16	4.442559E-17
4.847488E+03	7.991694E-16	4.400276E-17
4.857401E+03	7.921175E-16	4.360232E-17
4.867314E+03	7.854874E-16	4.322541E-17
4.877227E+03	7.793118E-16	4.287381E-17
4.887140E+03	7.736536E-16	4.255096E-17
4.897053E+03	7.684753E-16	4.225477E-17
4.906966E+03	7.638449E-16	4.198896E-17
4.916879E+03	7.597145E-16	4.175087E-17
4.926792E+03	7.561415E-16	4.154362E-17
4.936705E+03	7.530881E-16	4.136513E-17
4.946618E+03	7.505676E-16	4.121610E-17
4.956531E+03	7.485545E-16	4.109510E-17
4.966444E+03	7.470569E-16	4.100256E-17
4.976357E+03	7.460627E-16	4.093780E-17
4.986270E+03	7.455413E-16	4.089911E-17
4.996183E+03	7.454951E-16	4.088661E-17
5.006097E+03	7.459086E-16	4.089943E-17
5.016010E+03	7.467646E-16	4.093663E-17
5.025923E+03	7.480280E-16	4.099623E-17
5.035836E+03	7.496971E-16	4.107816E-17
5.045749E+03	7.517520E-16	4.118131E-17
5.055662E+03	7.541717E-16	4.130450E-17
5.065575E+03	7.569164E-16	4.144555E-17
5.075488E+03	7.599973E-16	4.160506E-17
5.085401E+03	7.633541E-16	4.177974E-17
5.095314E+03	7.669778E-16	4.196906E-17
5.105227E+03	7.708396E-16	4.217147E-17
5.115140E+03	7.749097E-16	4.238531E-17
5.125053E+03	7.791560E-16	4.260883E-17
5.134966E+03	7.835452E-16	4.284021E-17
5.144879E+03	7.880239E-16	4.307654E-17
5.154792E+03	7.925916E-16	4.331777E-17
5.164706E+03	7.971925E-16	4.356087E-17
5.174619E+03	8.017878E-16	4.380371E-17
5.184532E+03	8.063198E-16	4.404316E-17
5.194445E+03	8.107851E-16	4.427903E-17
5.204358E+03	8.151257E-16	4.450816E-17
5.214271E+03	8.192841E-16	4.472742E-17
5.224184E+03	8.232585E-16	4.493672E-17
5.234097E+03	8.269939E-16	4.513307E-17
5.244010E+03	8.304550E-16	4.531456E-17
5.253923E+03	8.336094E-16	4.547943E-17
5.263836E+03	8.364270E-16	4.562603E-17
5.273749E+03	8.388811E-16	4.575295E-17
5.283662E+03	8.409485E-16	4.585892E-17
5.293575E+03	8.426288E-16	4.594392E-17
5.303488E+03	8.438686E-16	4.600508E-17
5.313401E+03	8.446948E-16	4.604385E-17
5.323315E+03	8.450815E-16	4.605885E-17
5.333228E+03	8.450069E-16	4.604890E-17
5.343141E+03	8.445289E-16	4.601716E-17
5.353054E+03	8.435960E-16	4.596084E-17
5.362967E+03	8.422356E-16	4.588143E-17
5.372880E+03	8.404778E-16	4.578059E-17
5.382793E+03	8.383180E-16	4.565808E-17
5.392706E+03	8.357726E-16	4.551478E-17
5.402619E+03	8.328602E-16	4.535171E-17
5.412532E+03	8.296189E-16	4.517096E-17
5.422445E+03	8.260520E-16	4.497270E-17
5.432358E+03	8.221819E-16	4.475815E-17
5.442271E+03	8.180503E-16	4.452959E-17
5.452184E+03	8.136636E-16	4.428735E-17
5.462097E+03	8.090471E-16	4.403283E-17
5.472010E+03	8.042267E-16	4.376742E-17
5.481924E+03	7.992475E-16	4.349357E-17
5.491837E+03	7.941371E-16	4.321280E-17
5.501750E+03	7.888896E-16	4.292477E-17
5.511663E+03	7.835881E-16	4.263399E-17
5.521576E+03	7.782125E-16	4.233939E-17
5.531489E+03	7.728482E-16	4.204558E-17
5.541402E+03	7.674791E-16	4.175171E-17
5.551315E+03	7.621933E-16	4.146254E-17
5.561228E+03	7.569783E-16	4.117741E-17
5.571141E+03	7.519242E-16	4.090120E-17
5.581054E+03	7.470379E-16	4.063429E-17
5.590967E+03	7.423600E-16	4.037888E-17
5.600880E+03	7.379636E-16	4.013893E-17
5.610793E+03	7.338387E-16	3.991392E-17
5.620706E+03	7.300713E-16	3.970849E-17
5.630619E+03	7.266633E-16	3.952277E-17
5.640533E+03	7.236777E-16	3.936016E-17
5.650446E+03	7.210926E-16	3.921948E-17
5.660359E+03	7.189767E-16	3.910446E-17
5.670272E+03	7.173288E-16	3.901503E-17
5.680185E+03	7.161405E-16	3.895074E-17
5.690098E+03	7.154281E-16	3.891246E-17
5.700011E+03	7.151837E-16	3.889977E-17
5.709924E+03	7.153911E-16	3.891180E-17
5.719837E+03	7.160252E-16	3.894717E-17
5.729750E+03	7.170529E-16	3.900409E-17
5.739663E+03	7.184321E-16	3.908026E-17
5.749576E+03	7.201127E-16	3.917296E-17
5.759489E+03	7.220371E-16	3.927908E-17
5.769402E+03	7.241248E-16	3.939421E-17
5.779315E+03	7.263377E-16	3.951630E-17
5.789228E+03	7.286014E-16	3.964130E-17
5.799142E+03	7.308057E-16	3.976321E-17
5.809055E+03	7.328873E-16	3.987859E-17
5.818968E+03	7.347670E-16	3.998313E-17
5.828881E+03	7.363840E-16	4.007352E-17
5.838794E+03	7.376483E-16	4.014485E-17
5.848707E+03	7.384918E-16	4.019343E-17
5.858620E+03	7.388535E-16	4.021592E-17
5.868533E+03	7.386809E-16	4.020946E-17
5.878446E+03	7.379479E-16	4.017263E-17
5.888359E+03	7.366063E-16	4.010278E-17
5.898272E+03	7.346354E-16	3.999880E-17
5.908185E+03	7.320263E-16	3.986017E-17
5.918098E+03	7.287818E-16	3.968704E-17
5.928011E+03	7.249318E-16	3.948104E-17
5.937924E+03	7.205003E-16	3.924345E-17
5.947837E+03	7.154878E-16	3.897430E-17
5.957751E+03	7.099680E-16	3.867758E-17
5.967664E+03	7.039723E-16	3.835499E-17
5.977577E+03	6.975695E-16	3.801027E-17
5.987490E+03	6.907837E-16	3.764473E-17
5.997403E+03	6.837202E-16	3.726409E-17
6.007316E+03	6.763899E-16	3.686894E-17
6.017229E+03	6.688814E-16	3.646409E-17
6.027142E+03	6.612341E-16	3.605169E-17
6.037055E+03	6.535149E-16	3.563539E-17
6.046968E+03	6.457565E-16	3.521695E-17
6.056881E+03	6.380168E-16	3.479953E-17
6.066794E+03	6.303194E-16	3.438442E-17
6.076707E+03	6.226974E-16	3.397341E-17
6.086620E+03	6.151931E-16	3.356882E-17
6.096533E+03	6.078150E-16	3.317110E-17
6.106446E+03	6.005952E-16	3.278202E-17
6.116360E+03	5.935335E-16	3.240155E-17
6.126273E+03	5.866399E-16	3.203024E-17
6.136186E+03	5.799479E-16	3.166992E-17
6.146099E+03	5.734208E-16	3.131859E-17
6.156012E+03	5.670869E-16	3.097780E-17
6.165925E+03	5.609461E-16	3.064755E-17
6.175838E+03	5.549840E-16	3.032704E-17
6.185751E+03	5.491992E-16	3.001620E-17
6.195664E+03	5.436152E-16	2.971632E-17
6.205577E+03	5.381924E-16	2.942522E-17
6.215490E+03	5.329673E-16	2.914492E-17
6.225403E+03	5.279017E-16	2.887332E-17
6.235316E+03	5.230330E-16	2.861246E-17
6.245229E+03	5.183368E-16	2.836102E-17
6.255142E+03	5.138265E-16	2.811973E-17
6.265055E+03	5.094910E-16	2.788799E-17
6.274969E+03	5.053433E-16	2.766650E-17
6.284882E+03	5.013717E-16	2.745464E-17
6.294795E+03	4.975993E-16	2.725367E-17
6.304708E+03	4.940003E-16	2.706218E-17
6.314621E+03	4.905704E-16	2.687994E-17
6.324534E+03	4.873262E-16	2.670786E-17
6.334447E+03	4.842351E-16	2.654416E-17
6.344360E+03	4.812957E-16	2.638876E-17
6.354273E+03	4.784803E-16	2.624015E-17
6.364186E+03	4.757915E-16	2.609848E-17
6.374099E+03	4.731828E-16	2.596119E-17
6.384012E+03	4.706381E-16	2.582740E-17
6.393925E+03	4.681262E-16	2.569541E-17
6.403838E+03	4.656133E-16	2.556335E-17
6.413751E+03	4.630627E-16	2.542920E-17
6.423664E+03	4.604358E-16	2.529084E-17
6.433578E+03	4.576930E-16	2.514610E-17
6.443491E+03	4.547836E-16	2.499218E-17
6.453404E+03	4.516907E-16	2.482814E-17
6.463317E+03	4.483661E-16	2.465133E-17
6.473230E+03	4.447650E-16	2.445926E-17
6.483143E+03	4.408789E-16	2.425147E-17
6.493056E+03	4.366720E-16	2.402596E-17
6.502969E+03	4.321252E-16	2.378166E-17
6.512882E+03	4.272259E-16	2.351788E-17
6.522795E+03	4.219690E-16	2.323430E-17
6.532708E+03	4.163665E-16	2.293158E-17
6.542621E+03	4.104176E-16	2.260966E-17
6.552534E+03	4.041294E-16	2.226891E-17
6.562447E+03	3.975460E-16	2.191173E-17
6.572360E+03	3.906968E-16	2.153976E-17
6.582273E+03	3.835985E-16	2.115387E-17
6.592187E+03	3.763101E-16	2.075733E-17
6.602100E+03	3.688749E-16	2.035250E-17
6.612013E+03	3.613206E-16	1.994091E-17
6.621926E+03	3.537124E-16	1.952615E-17
6.631839E+03	3.460969E-16	1.911079E-17
6.641752E+03	3.385034E-16	1.869645E-17
6.651665E+03	3.309935E-16	1.828652E-17
6.661578E+03	3.236084E-16	1.788328E-17
6.671491E+03	3.163785E-16	1.748843E-17
6.681404E+03	3.093465E-16	1.710432E-17
6.691317E+03	3.025355E-16	1.673224E-17
6.701230E+03	2.959722E-16	1.637368E-17
6.711143E+03	2.896862E-16	1.603028E-17
6.721056E+03	2.836953E-16	1.570304E-17
6.730969E+03	2.780063E-16	1.539234E-17
6.740882E+03	2.726292E-16	1.509877E-17
6.750796E+03	2.675843E-16	1.482344E-17
6.760709E+03	2.628543E-16	1.456542E-17
6.770622E+03	2.584595E-16	1.432585E-17
6.780535E+03	2.543842E-16	1.410387E-17
6.790448E+03	2.506238E-16	1.389924E-17
6.800361E+03	2.471784E-16	1.371198E-17
6.810274E+03	2.440396E-16	1.354163E-17
6.820187E+03	2.411919E-16	1.338735E-17
6.830100E+03	2.386310E-16	1.324891E-17
6.840013E+03	2.363457E-16	1.312572E-17
6.849926E+03	2.343186E-16	1.301680E-17
6.859839E+03	2.325438E-16	1.292184E-17
6.869752E+03	2.310035E-16	1.283987E-17
6.879665E+03	2.296918E-16	1.277057E-17
6.889578E+03	2.285914E-16	1.271299E-17
6.899491E+03	2.277027E-16	1.266715E-17
6.909405E+03	2.269976E-16	1.263152E-17
6.919318E+03	2.264833E-16	1.260648E-17
6.929231E+03	2.261329E-16	1.259056E-17
6.939144E+03	2.259549E-16	1.258424E-17
6.949057E+03	2.259294E-16	1.258641E-17
6.958970E+03	2.260484E-16	1.259664E-17
6.968883E+03	2.263109E-16	1.261488E-17
6.978796E+03	2.267103E-16	1.264076E-17
6.988709E+03	2.272346E-16	1.267362E-17
6.998622E+03	2.278780E-16	1.271316E-17
7.008535E+03	2.286409E-16	1.275939E-17
7.018448E+03	2.295183E-16	1.281204E-17
7.028361E+03	2.304990E-16	1.287048E-17
7.038274E+03	2.315777E-16	1.293445E-17
7.048187E+03	2.327493E-16	1.300363E-17
7.058100E+03	2.340203E-16	1.307842E-17
7.068014E+03	2.353666E-16	1.315746E-17
7.077927E+03	2.367943E-16	1.324110E-17
7.087840E+03	2.382905E-16	1.332862E-17
7.097753E+03	2.398480E-16	1.341962E-17
7.107666E+03	2.414589E-16	1.351367E-17
7.117579E+03	2.431213E-16	1.361065E-17
7.127492E+03	2.448198E-16	1.370972E-17
7.137405E+03	2.465517E-16	1.381071E-17
7.147318E+03	2.482938E-16	1.391234E-17
7.157231E+03	2.500424E-16	1.401439E-17
7.167144E+03	2.517935E-16	1.411664E-17
7.177057E+03	2.535295E-16	1.421811E-17
7.186970E+03	2.552394E-16	1.431817E-17
7.196883E+03	2.569055E-16	1.441583E-17
7.206796E+03	2.585308E-16	1.451126E-17
7.216709E+03	2.600978E-16	1.460348E-17
7.226623E+03	2.615968E-16	1.469193E-17
7.236536E+03	2.630111E-16	1.477568E-17
7.246449E+03	2.643464E-16	1.485503E-17
7.256362E+03	2.655878E-16	1.492915E-17
7.266275E+03	2.667213E-16	1.499726E-17
7.276188E+03	2.677483E-16	1.505940E-17
7.286101E+03	2.686637E-16	1.511532E-17
7.296014E+03	2.694641E-16	1.516479E-17
7.305927E+03	2.701468E-16	1.520767E-17
7.315840E+03	2.707030E-16	1.524345E-17
7.325753E+03	2.711393E-16	1.527250E-17
7.335666E+03	2.714564E-16	1.529485E-17
7.345579E+03	2.716482E-16	1.531015E-17
7.355492E+03	2.717241E-16	1.531893E-17
7.365405E+03	2.716870E-16	1.532135E-17
7.375318E+03	2.715330E-16	1.531717E-17
7.385232E+03	2.712735E-16	1.530704E-17
7.395145E+03	2.709055E-16	1.529078E-17
7.405058E+03	2.704409E-16	1.526905E-17
7.414971E+03	2.698775E-16	1.524174E-17
7.424884E+03	2.692279E-16	1.520954E-17
7.434797E+03	2.684969E-16	1.517273E-17
7.444710E+03	2.676756E-16	1.513079E-17
7.454623E+03	2.667909E-16	1.508525E-17
7.464536E+03	2.658259E-16	1.503514E-17
7.474449E+03	2.648078E-16	1.498199E-17
7.484362E+03	2.637193E-16	1.492484E-17
7.494275E+03	2.625794E-16	1.486474E-17
7.504188E+03	2.613852E-16	1.480153E-17
7.514101E+03	2.601475E-16	1.473582E-17
7.524014E+03	2.588625E-16	1.466740E-17
7.533927E+03	2.575329E-16	1.459641E-17
7.543841E+03	2.561679E-16	1.452338E-17
7.553754E+03	2.547617E-16	1.444797E-17
7.563667E+03	2.533151E-16	1.437023E-17
7.573580E+03	2.518278E-16	1.429013E-17
7.583493E+03	2.503057E-16	1.420801E-17
7.593406E+03	2.487398E-16	1.412336E-17
7.603319E+03	2.471272E-16	1.403602E-17
7.613232E+03	2.454712E-16	1.394615E-17
7.623145E+03	2.437532E-16	1.385272E-17
7.633058E+03	2.419816E-16	1.375618E-17
7.642971E+03	2.401434E-16	1.365580E-17
7.652884E+03	2.382321E-16	1.355121E-17
7.662797E+03	2.362471E-16	1.344237E-17
7.672710E+03	2.341681E-16	1.332812E-17
7.682623E+03	2.320010E-16	1.320879E-17
7.692536E+03	2.297322E-16	1.308359E-17
