#wls	flux	fluxerr
1.600000E+03	6.559643E-14	1.743899E-14
1.640000E+03	5.453801E-14	1.320447E-14
1.680000E+03	4.477367E-14	9.785712E-15
1.720000E+03	3.627082E-14	7.082635E-15
1.760000E+03	2.897599E-14	4.993971E-15
1.800000E+03	2.281525E-14	3.420298E-15
1.840000E+03	1.769013E-14	2.266348E-15
1.880000E+03	1.350131E-14	1.446640E-15
1.920000E+03	1.013802E-14	8.849763E-16
1.960000E+03	7.489855E-15	5.165865E-16
2.000000E+03	5.450318E-15	2.882980E-16
2.040000E+03	3.921120E-15	1.580405E-16
2.080000E+03	2.812405E-15	9.262325E-17
2.120000E+03	2.040844E-15	6.352838E-17
2.160000E+03	1.529475E-15	4.911670E-17
2.200000E+03	1.214270E-15	4.061694E-17
2.240000E+03	1.049239E-15	3.666523E-17
2.280000E+03	1.008338E-15	3.777765E-17
2.320000E+03	1.081761E-15	4.423402E-17
2.360000E+03	1.279789E-15	5.634730E-17
2.400000E+03	1.638576E-15	7.495590E-17
2.440000E+03	2.220328E-15	1.006820E-16
2.480000E+03	3.107253E-15	1.324303E-16
2.520000E+03	4.377420E-15	1.659406E-16
2.560000E+03	6.055215E-15	1.961466E-16
2.600000E+03	8.050345E-15	2.301655E-16
2.640000E+03	1.015532E-14	2.982765E-16
2.680000E+03	1.212529E-14	4.124037E-16
2.720000E+03	1.381153E-14	5.454258E-16
2.760000E+03	1.522840E-14	6.704416E-16
2.800000E+03	1.650412E-14	7.776113E-16
2.840000E+03	1.778930E-14	8.697669E-16
2.880000E+03	1.918525E-14	9.536283E-16
2.920000E+03	2.071639E-14	1.033753E-15
2.960000E+03	2.232437E-14	1.109629E-15
3.000000E+03	2.384598E-14	1.173692E-15
3.010000E+03	2.418434E-14	1.186367E-15
3.020000E+03	2.449600E-14	1.197187E-15
3.030000E+03	2.477619E-14	1.205907E-15
3.040000E+03	2.502143E-14	1.212354E-15
3.050000E+03	2.522705E-14	1.216302E-15
3.060000E+03	2.538953E-14	1.217592E-15
3.070000E+03	2.550678E-14	1.216140E-15
3.080000E+03	2.557663E-14	1.211868E-15
3.090000E+03	2.559866E-14	1.204785E-15
3.100000E+03	2.557479E-14	1.195016E-15
3.110000E+03	2.550611E-14	1.182646E-15
3.120000E+03	2.539657E-14	1.167893E-15
3.130000E+03	2.525025E-14	1.150978E-15
3.140000E+03	2.507417E-14	1.132250E-15
3.150000E+03	2.487310E-14	1.111946E-15
3.160000E+03	2.465427E-14	1.090405E-15
3.170000E+03	2.442507E-14	1.067962E-15
3.180000E+03	2.419234E-14	1.044912E-15
3.190000E+03	2.396170E-14	1.021486E-15
3.200000E+03	2.374056E-14	9.979754E-16
3.210000E+03	2.353343E-14	9.745350E-16
3.220000E+03	2.334540E-14	9.513309E-16
3.230000E+03	2.317989E-14	9.284488E-16
3.240000E+03	2.304036E-14	9.059654E-16
3.250000E+03	2.292897E-14	8.838992E-16
3.260000E+03	2.284714E-14	8.622325E-16
3.270000E+03	2.279511E-14	8.409012E-16
3.280000E+03	2.277320E-14	8.198423E-16
3.290000E+03	2.278068E-14	7.989539E-16
3.300000E+03	2.281583E-14	7.781017E-16
3.310000E+03	2.287713E-14	7.571620E-16
3.320000E+03	2.296182E-14	7.359755E-16
3.330000E+03	2.306741E-14	7.144023E-16
3.340000E+03	2.319027E-14	6.922812E-16
3.350000E+03	2.332672E-14	6.694729E-16
3.360000E+03	2.347276E-14	6.458579E-16
3.370000E+03	2.362402E-14	6.213478E-16
3.380000E+03	2.377579E-14	5.958995E-16
3.390000E+03	2.392271E-14	5.695239E-16
3.400000E+03	2.405988E-14	5.423312E-16
3.410000E+03	2.418111E-14	5.145095E-16
3.420000E+03	2.428154E-14	4.863993E-16
3.430000E+03	2.435489E-14	4.584435E-16
3.440000E+03	2.439572E-14	4.312288E-16
3.450000E+03	2.439881E-14	4.054386E-16
3.460000E+03	2.435887E-14	3.817799E-16
3.470000E+03	2.427156E-14	3.608906E-16
3.480000E+03	2.413215E-14	3.431774E-16
3.490000E+03	2.393616E-14	3.287017E-16
3.500000E+03	2.368008E-14	3.171812E-16
3.510000E+03	2.336149E-14	3.080787E-16
3.520000E+03	2.298056E-14	3.007360E-16
3.530000E+03	2.253880E-14	2.944668E-16
3.540000E+03	2.204174E-14	2.886996E-16
3.550000E+03	2.149743E-14	2.830128E-16
3.560000E+03	2.091708E-14	2.771541E-16
3.570000E+03	2.031379E-14	2.710235E-16
3.580000E+03	1.970261E-14	2.646509E-16
3.590000E+03	1.909992E-14	2.581522E-16
3.600000E+03	1.852113E-14	2.516822E-16
3.610000E+03	1.798170E-14	2.454299E-16
3.620000E+03	1.749520E-14	2.395723E-16
3.630000E+03	1.707327E-14	2.342721E-16
3.640000E+03	1.672595E-14	2.296786E-16
3.650000E+03	1.646159E-14	2.259227E-16
3.660000E+03	1.628663E-14	2.231137E-16
3.670000E+03	1.620669E-14	2.213533E-16
3.680000E+03	1.622551E-14	2.207162E-16
3.690000E+03	1.634646E-14	2.212712E-16
3.700000E+03	1.657193E-14	2.230683E-16
3.710000E+03	1.690360E-14	2.261348E-16
3.720000E+03	1.734209E-14	2.304771E-16
3.730000E+03	1.788751E-14	2.360874E-16
3.740000E+03	1.853881E-14	2.429276E-16
3.750000E+03	1.929396E-14	2.509451E-16
3.760000E+03	2.014946E-14	2.600707E-16
3.770000E+03	2.110045E-14	2.702151E-16
3.780000E+03	2.214002E-14	2.812732E-16
3.790000E+03	2.325930E-14	2.931269E-16
3.800000E+03	2.444791E-14	3.056444E-16
3.810000E+03	2.569217E-14	3.186720E-16
3.820000E+03	2.697733E-14	3.320634E-16
3.830000E+03	2.828705E-14	3.456578E-16
3.840000E+03	2.960302E-14	3.592922E-16
3.850000E+03	3.090707E-14	3.728208E-16
3.860000E+03	3.218178E-14	3.860965E-16
3.870000E+03	3.341071E-14	3.989990E-16
3.880000E+03	3.457953E-14	4.114492E-16
3.890000E+03	3.567639E-14	4.233840E-16
3.900000E+03	3.669331E-14	4.347901E-16
3.910000E+03	3.762537E-14	4.456745E-16
3.920000E+03	3.847084E-14	4.560047E-16
3.930000E+03	3.923077E-14	4.656965E-16
3.940000E+03	3.990805E-14	4.745641E-16
3.950000E+03	4.050693E-14	4.822745E-16
3.960000E+03	4.103167E-14	4.884427E-16
3.970000E+03	4.148598E-14	4.927524E-16
3.980000E+03	4.187375E-14	4.950336E-16
3.990000E+03	4.219658E-14	4.953009E-16
4.000000E+03	4.245530E-14	4.937721E-16
4.010000E+03	4.264850E-14	4.907882E-16
4.020000E+03	4.277273E-14	4.867615E-16
4.030000E+03	4.282446E-14	4.820670E-16
4.040000E+03	4.279809E-14	4.768933E-16
4.050000E+03	4.268855E-14	4.713034E-16
4.060000E+03	4.249103E-14	4.652502E-16
4.070000E+03	4.220200E-14	4.585768E-16
4.080000E+03	4.181945E-14	4.511198E-16
4.090000E+03	4.134344E-14	4.427638E-16
4.100000E+03	4.077517E-14	4.334157E-16
4.110000E+03	4.011834E-14	4.230694E-16
4.120000E+03	3.937960E-14	4.117897E-16
4.130000E+03	3.856671E-14	3.996312E-16
4.140000E+03	3.769107E-14	3.867173E-16
4.150000E+03	3.676654E-14	3.732253E-16
4.160000E+03	3.580969E-14	3.593429E-16
4.170000E+03	3.483904E-14	3.453298E-16
4.180000E+03	3.387441E-14	3.315229E-16
4.190000E+03	3.293631E-14	3.182730E-16
4.200000E+03	3.204472E-14	3.059382E-16
4.210000E+03	3.121812E-14	2.948204E-16
4.220000E+03	3.047285E-14	2.850879E-16
4.230000E+03	2.982222E-14	2.768178E-16
4.240000E+03	2.927630E-14	2.700155E-16
4.250000E+03	2.884155E-14	2.645908E-16
4.260000E+03	2.852046E-14	2.604118E-16
4.270000E+03	2.831106E-14	2.573109E-16
4.280000E+03	2.820802E-14	2.550634E-16
4.290000E+03	2.820242E-14	2.534404E-16
4.300000E+03	2.828262E-14	2.522414E-16
4.310000E+03	2.843458E-14	2.512839E-16
4.320000E+03	2.864256E-14	2.504600E-16
4.330000E+03	2.889111E-14	2.497626E-16
4.340000E+03	2.916388E-14	2.492308E-16
4.350000E+03	2.944686E-14	2.489779E-16
4.360000E+03	2.972772E-14	2.491025E-16
4.370000E+03	2.999758E-14	2.495258E-16
4.380000E+03	3.025151E-14	2.499279E-16
4.390000E+03	3.048741E-14	2.498400E-16
4.400000E+03	3.070374E-14	2.487282E-16
4.410000E+03	3.090017E-14	2.461824E-16
4.420000E+03	3.107678E-14	2.420210E-16
4.430000E+03	3.123479E-14	2.363425E-16
4.440000E+03	3.137784E-14	2.296667E-16
4.450000E+03	3.151177E-14	2.229880E-16
4.460000E+03	3.164557E-14	2.177081E-16
4.470000E+03	3.178931E-14	2.154399E-16
4.480000E+03	3.194744E-14	2.172325E-16
4.490000E+03	3.211134E-14	2.224646E-16
4.500000E+03	3.226273E-14	2.294772E-16
4.510000E+03	3.238169E-14	2.366711E-16
4.520000E+03	3.245084E-14	2.429231E-16
4.530000E+03	3.245646E-14	2.476807E-16
4.540000E+03	3.238922E-14	2.508263E-16
4.550000E+03	3.224437E-14	2.524639E-16
4.560000E+03	3.202164E-14	2.528316E-16
4.570000E+03	3.172533E-14	2.521862E-16
4.580000E+03	3.136465E-14	2.506863E-16
4.590000E+03	3.095100E-14	2.484251E-16
4.600000E+03	3.049835E-14	2.454726E-16
4.610000E+03	3.002228E-14	2.418677E-16
4.620000E+03	2.953803E-14	2.377100E-16
4.630000E+03	2.905890E-14	2.331961E-16
4.640000E+03	2.859765E-14	2.285970E-16
4.650000E+03	2.816225E-14	2.242203E-16
4.660000E+03	2.775875E-14	2.203363E-16
4.670000E+03	2.738819E-14	2.170435E-16
4.680000E+03	2.704810E-14	2.143406E-16
4.690000E+03	2.673299E-14	2.121557E-16
4.700000E+03	2.643471E-14	2.103163E-16
4.710000E+03	2.614419E-14	2.086320E-16
4.720000E+03	2.585117E-14	2.069236E-16
4.730000E+03	2.554609E-14	2.050100E-16
4.740000E+03	2.522120E-14	2.027613E-16
4.750000E+03	2.487062E-14	2.001066E-16
4.760000E+03	2.449284E-14	1.970237E-16
4.770000E+03	2.408833E-14	1.935451E-16
4.780000E+03	2.366229E-14	1.897497E-16
4.790000E+03	2.322266E-14	1.856967E-16
4.800000E+03	2.277932E-14	1.814825E-16
4.810000E+03	2.234421E-14	1.772571E-16
4.820000E+03	2.192968E-14	1.731708E-16
4.830000E+03	2.154705E-14	1.693903E-16
4.840000E+03	2.120702E-14	1.660777E-16
4.850000E+03	2.091799E-14	1.633249E-16
4.860000E+03	2.068633E-14	1.612004E-16
4.870000E+03	2.051679E-14	1.597549E-16
4.880000E+03	2.041234E-14	1.589808E-16
4.890000E+03	2.037398E-14	1.588572E-16
4.900000E+03	2.040184E-14	1.593511E-16
4.910000E+03	2.049407E-14	1.603583E-16
4.920000E+03	2.064836E-14	1.617728E-16
4.930000E+03	2.086128E-14	1.635112E-16
4.940000E+03	2.112810E-14	1.654869E-16
4.950000E+03	2.144358E-14	1.676539E-16
4.960000E+03	2.180106E-14	1.699947E-16
4.970000E+03	2.219311E-14	1.724811E-16
4.980000E+03	2.261083E-14	1.751019E-16
4.990000E+03	2.304464E-14	1.778462E-16
5.000000E+03	2.348385E-14	1.806335E-16
5.010000E+03	2.391809E-14	1.833756E-16
5.020000E+03	2.433616E-14	1.859789E-16
5.030000E+03	2.472781E-14	1.883133E-16
5.040000E+03	2.508405E-14	1.902763E-16
5.050000E+03	2.539683E-14	1.918151E-16
5.060000E+03	2.565999E-14	1.928979E-16
5.070000E+03	2.586909E-14	1.935513E-16
5.080000E+03	2.602129E-14	1.938289E-16
5.090000E+03	2.611489E-14	1.937362E-16
5.100000E+03	2.614947E-14	1.932977E-16
5.110000E+03	2.612546E-14	1.925619E-16
5.120000E+03	2.604284E-14	1.915319E-16
5.130000E+03	2.590298E-14	1.902399E-16
5.140000E+03	2.570649E-14	1.887157E-16
5.150000E+03	2.545628E-14	1.869322E-16
5.160000E+03	2.515574E-14	1.848652E-16
5.170000E+03	2.481051E-14	1.825253E-16
5.180000E+03	2.442856E-14	1.799087E-16
5.190000E+03	2.401954E-14	1.770503E-16
5.200000E+03	2.359470E-14	1.740272E-16
5.210000E+03	2.316587E-14	1.708985E-16
5.220000E+03	2.274530E-14	1.677461E-16
5.230000E+03	2.234261E-14	1.646409E-16
5.240000E+03	2.196612E-14	1.616019E-16
5.250000E+03	2.162137E-14	1.586488E-16
5.260000E+03	2.131109E-14	1.558266E-16
5.270000E+03	2.103480E-14	1.531694E-16
5.280000E+03	2.079049E-14	1.507403E-16
5.290000E+03	2.057423E-14	1.485963E-16
5.300000E+03	2.038148E-14	1.467298E-16
5.310000E+03	2.020739E-14	1.451033E-16
5.320000E+03	2.004812E-14	1.436430E-16
5.330000E+03	1.990025E-14	1.421788E-16
5.340000E+03	1.976193E-14	1.405082E-16
5.350000E+03	1.963197E-14	1.384228E-16
5.360000E+03	1.951008E-14	1.357077E-16
5.370000E+03	1.939511E-14	1.322279E-16
5.380000E+03	1.928586E-14	1.280255E-16
5.390000E+03	1.917922E-14	1.233824E-16
5.400000E+03	1.907063E-14	1.189558E-16
5.410000E+03	1.895408E-14	1.157585E-16
5.420000E+03	1.882452E-14	1.147584E-16
5.430000E+03	1.868188E-14	1.160856E-16
5.440000E+03	1.853053E-14	1.189912E-16
5.450000E+03	1.837769E-14	1.224989E-16
5.460000E+03	1.822993E-14	1.258591E-16
5.470000E+03	1.809314E-14	1.286571E-16
5.480000E+03	1.797274E-14	1.307213E-16
5.490000E+03	1.787201E-14	1.320616E-16
5.500000E+03	1.779358E-14	1.328170E-16
5.510000E+03	1.773844E-14	1.331671E-16
5.520000E+03	1.770696E-14	1.333189E-16
5.530000E+03	1.769736E-14	1.334465E-16
5.540000E+03	1.770706E-14	1.336486E-16
5.550000E+03	1.773195E-14	1.339810E-16
5.560000E+03	1.776753E-14	1.344449E-16
5.570000E+03	1.780784E-14	1.349364E-16
5.580000E+03	1.784684E-14	1.353543E-16
5.590000E+03	1.787863E-14	1.356391E-16
5.600000E+03	1.789858E-14	1.357425E-16
5.610000E+03	1.790245E-14	1.356689E-16
5.620000E+03	1.788744E-14	1.354666E-16
5.630000E+03	1.785223E-14	1.351552E-16
5.640000E+03	1.779646E-14	1.347643E-16
5.650000E+03	1.772091E-14	1.343364E-16
5.660000E+03	1.762698E-14	1.338733E-16
5.670000E+03	1.751714E-14	1.333993E-16
5.680000E+03	1.739426E-14	1.329631E-16
5.690000E+03	1.726151E-14	1.325847E-16
5.700000E+03	1.712218E-14	1.322894E-16
5.710000E+03	1.697955E-14	1.320818E-16
5.720000E+03	1.683719E-14	1.318877E-16
5.730000E+03	1.669758E-14	1.316197E-16
5.740000E+03	1.656309E-14	1.312387E-16
5.750000E+03	1.643478E-14	1.307304E-16
5.760000E+03	1.631237E-14	1.301385E-16
5.770000E+03	1.619458E-14	1.295507E-16
5.780000E+03	1.607865E-14	1.290441E-16
5.790000E+03	1.596027E-14	1.287089E-16
5.800000E+03	1.583434E-14	1.286286E-16
5.810000E+03	1.569550E-14	1.288231E-16
5.820000E+03	1.553780E-14	1.292805E-16
5.830000E+03	1.535676E-14	1.299705E-16
5.840000E+03	1.514944E-14	1.307888E-16
5.850000E+03	1.491482E-14	1.315747E-16
5.860000E+03	1.465422E-14	1.321091E-16
5.870000E+03	1.437076E-14	1.320943E-16
5.880000E+03	1.406971E-14	1.312488E-16
5.890000E+03	1.375645E-14	1.293841E-16
5.900000E+03	1.343661E-14	1.264431E-16
5.910000E+03	1.311549E-14	1.225147E-16
5.920000E+03	1.279776E-14	1.178256E-16
5.930000E+03	1.248752E-14	1.127058E-16
5.940000E+03	1.218767E-14	1.075292E-16
5.950000E+03	1.190072E-14	1.026261E-16
5.960000E+03	1.162878E-14	9.821370E-17
5.970000E+03	1.137344E-14	9.441629E-17
5.980000E+03	1.113594E-14	9.126927E-17
5.990000E+03	1.091814E-14	8.871995E-17
6.000000E+03	1.072132E-14	8.668277E-17
6.010000E+03	1.054749E-14	8.507876E-17
6.020000E+03	1.039779E-14	8.381179E-17
6.030000E+03	1.027379E-14	8.281534E-17
6.040000E+03	1.017727E-14	8.205316E-17
6.050000E+03	1.010979E-14	8.148843E-17
6.060000E+03	1.007319E-14	8.111240E-17
6.070000E+03	1.006915E-14	8.094278E-17
6.080000E+03	1.009959E-14	8.100289E-17
6.090000E+03	1.016560E-14	8.132867E-17
6.100000E+03	1.026832E-14	8.196117E-17
6.110000E+03	1.040750E-14	8.290042E-17
6.120000E+03	1.058186E-14	8.413466E-17
6.130000E+03	1.078900E-14	8.564139E-17
6.140000E+03	1.102518E-14	8.735836E-17
6.150000E+03	1.128490E-14	8.921793E-17
6.160000E+03	1.156161E-14	9.116472E-17
6.170000E+03	1.184801E-14	9.313451E-17
6.180000E+03	1.213542E-14	9.507952E-17
6.190000E+03	1.241546E-14	9.697810E-17
6.200000E+03	1.268017E-14	9.879639E-17
6.210000E+03	1.292241E-14	1.005134E-16
6.220000E+03	1.313611E-14	1.021127E-16
6.230000E+03	1.331725E-14	1.035488E-16
6.240000E+03	1.346384E-14	1.047852E-16
6.250000E+03	1.357541E-14	1.058014E-16
6.260000E+03	1.365364E-14	1.065699E-16
6.270000E+03	1.370128E-14	1.070847E-16
6.280000E+03	1.372206E-14	1.073578E-16
6.290000E+03	1.371994E-14	1.073730E-16
6.300000E+03	1.369885E-14	1.071107E-16
6.310000E+03	1.366255E-14	1.065395E-16
6.320000E+03	1.361442E-14	1.055774E-16
6.330000E+03	1.355698E-14	1.041369E-16
6.340000E+03	1.349287E-14	1.021637E-16
6.350000E+03	1.342478E-14	9.964251E-17
6.360000E+03	1.335526E-14	9.667495E-17
6.370000E+03	1.328797E-14	9.354352E-17
6.380000E+03	1.322704E-14	9.072058E-17
6.390000E+03	1.317702E-14	8.888710E-17
6.400000E+03	1.314201E-14	8.875391E-17
6.410000E+03	1.312389E-14	9.056728E-17
6.420000E+03	1.311941E-14	9.384665E-17
6.430000E+03	1.312404E-14	9.787304E-17
6.440000E+03	1.313299E-14	1.020061E-16
6.450000E+03	1.314206E-14	1.058144E-16
6.460000E+03	1.314799E-14	1.090646E-16
6.470000E+03	1.314819E-14	1.116474E-16
6.480000E+03	1.314102E-14	1.135585E-16
6.490000E+03	1.312480E-14	1.148579E-16
6.500000E+03	1.309920E-14	1.156355E-16
6.510000E+03	1.306389E-14	1.160036E-16
6.520000E+03	1.301870E-14	1.160774E-16
6.530000E+03	1.296423E-14	1.159437E-16
6.540000E+03	1.290114E-14	1.156776E-16
6.550000E+03	1.283027E-14	1.153452E-16
6.560000E+03	1.275263E-14	1.149796E-16
6.570000E+03	1.266954E-14	1.146084E-16
6.580000E+03	1.258183E-14	1.142484E-16
6.590000E+03	1.249049E-14	1.138882E-16
6.600000E+03	1.239657E-14	1.135199E-16
6.610000E+03	1.230075E-14	1.131427E-16
6.620000E+03	1.220340E-14	1.127435E-16
6.630000E+03	1.210514E-14	1.123270E-16
6.640000E+03	1.200608E-14	1.119070E-16
6.650000E+03	1.190691E-14	1.114908E-16
6.660000E+03	1.180742E-14	1.110866E-16
6.670000E+03	1.170779E-14	1.107108E-16
6.680000E+03	1.160837E-14	1.103610E-16
6.690000E+03	1.150931E-14	1.100361E-16
6.700000E+03	1.141054E-14	1.097382E-16
6.710000E+03	1.131218E-14	1.094548E-16
6.720000E+03	1.121454E-14	1.091800E-16
6.730000E+03	1.111749E-14	1.089080E-16
6.740000E+03	1.102129E-14	1.086195E-16
6.750000E+03	1.092557E-14	1.082965E-16
6.760000E+03	1.083072E-14	1.079423E-16
6.770000E+03	1.073636E-14	1.075504E-16
6.780000E+03	1.064287E-14	1.071377E-16
6.790000E+03	1.054987E-14	1.067256E-16
6.800000E+03	1.045760E-14	1.063328E-16
6.810000E+03	1.036613E-14	1.059785E-16
6.820000E+03	1.027539E-14	1.056749E-16
6.830000E+03	1.018578E-14	1.054104E-16
6.840000E+03	1.009736E-14	1.051625E-16
6.850000E+03	1.001067E-14	1.049113E-16
6.860000E+03	9.925721E-15	1.046196E-16
6.870000E+03	9.843361E-15	1.042694E-16
6.880000E+03	9.763894E-15	1.038572E-16
6.890000E+03	9.687849E-15	1.033911E-16
6.900000E+03	9.615577E-15	1.028942E-16
6.910000E+03	9.547949E-15	1.024024E-16
6.920000E+03	9.484868E-15	1.019271E-16
6.930000E+03	9.427252E-15	1.014901E-16
6.940000E+03	9.374991E-15	1.011039E-16
6.950000E+03	9.328184E-15	1.007723E-16
6.960000E+03	9.286971E-15	1.005030E-16
6.970000E+03	9.251004E-15	1.003017E-16
6.980000E+03	9.219998E-15	1.001639E-16
6.990000E+03	9.193561E-15	1.000866E-16
7.000000E+03	9.171225E-15	1.000668E-16
7.010000E+03	9.152451E-15	1.000884E-16
7.020000E+03	9.136461E-15	1.001350E-16
7.030000E+03	9.122959E-15	1.002009E-16
7.040000E+03	9.110694E-15	1.002643E-16
7.050000E+03	9.099449E-15	1.003206E-16
7.060000E+03	9.087874E-15	1.003584E-16
7.070000E+03	9.075479E-15	1.003677E-16
7.080000E+03	9.061214E-15	1.003377E-16
7.090000E+03	9.044237E-15	1.002670E-16
7.100000E+03	9.023947E-15	1.001523E-16
7.110000E+03	8.999296E-15	9.999196E-17
7.120000E+03	8.969949E-15	9.979619E-17
7.130000E+03	8.935413E-15	9.956357E-17
7.140000E+03	8.895761E-15	9.929949E-17
7.150000E+03	8.851078E-15	9.900801E-17
7.160000E+03	8.801460E-15	9.867869E-17
7.170000E+03	8.747504E-15	9.830617E-17
7.180000E+03	8.689361E-15	9.788269E-17
7.190000E+03	8.627946E-15	9.740198E-17
7.200000E+03	8.563653E-15	9.685756E-17
7.210000E+03	8.496851E-15	9.624925E-17
7.220000E+03	8.428213E-15	9.557577E-17
7.230000E+03	8.358188E-15	9.483865E-17
7.240000E+03	8.287025E-15	9.404121E-17
7.250000E+03	8.215137E-15	9.318115E-17
7.260000E+03	8.142919E-15	9.225944E-17
7.270000E+03	8.070745E-15	9.128191E-17
7.280000E+03	7.998970E-15	9.025090E-17
7.290000E+03	7.927573E-15	8.917331E-17
7.300000E+03	7.857112E-15	8.807372E-17
7.310000E+03	7.787546E-15	8.697203E-17
7.320000E+03	7.718741E-15	8.589436E-17
7.330000E+03	7.650794E-15	8.486816E-17
7.340000E+03	7.583242E-15	8.389791E-17
7.350000E+03	7.515899E-15	8.298426E-17
7.360000E+03	7.448576E-15	8.212054E-17
7.370000E+03	7.380968E-15	8.128214E-17
7.380000E+03	7.313157E-15	8.044735E-17
7.390000E+03	7.244735E-15	7.959406E-17
7.400000E+03	7.176235E-15	7.870978E-17
7.410000E+03	7.107745E-15	7.778777E-17
7.420000E+03	7.039969E-15	7.683964E-17
7.430000E+03	6.973460E-15	7.587766E-17
7.440000E+03	6.909037E-15	7.492632E-17
7.450000E+03	6.847706E-15	7.401780E-17
7.460000E+03	6.790177E-15	7.317480E-17
7.470000E+03	6.737682E-15	7.242784E-17
7.480000E+03	6.690599E-15	7.179799E-17
7.490000E+03	6.649699E-15	7.129933E-17
7.500000E+03	6.615138E-15	7.093817E-17
7.510000E+03	6.587468E-15	7.072364E-17
7.520000E+03	6.566481E-15	7.064503E-17
7.530000E+03	6.551961E-15	7.069015E-17
7.540000E+03	6.543726E-15	7.084720E-17
7.550000E+03	6.541353E-15	7.109244E-17
7.560000E+03	6.544628E-15	7.140248E-17
7.570000E+03	6.552698E-15	7.174410E-17
7.580000E+03	6.565063E-15	7.207707E-17
7.590000E+03	6.581155E-15	7.236130E-17
7.600000E+03	6.600035E-15	7.255911E-17
7.610000E+03	6.620973E-15	7.263842E-17
7.620000E+03	6.642832E-15	7.257757E-17
7.630000E+03	6.664802E-15	7.237532E-17
7.640000E+03	6.685345E-15	7.203135E-17
7.650000E+03	6.703377E-15	7.156532E-17
7.660000E+03	6.717074E-15	7.099959E-17
7.670000E+03	6.725111E-15	7.035938E-17
7.680000E+03	6.725459E-15	6.966531E-17
7.690000E+03	6.716683E-15	6.894422E-17
7.700000E+03	6.696958E-15	6.820727E-17
7.710000E+03	6.664746E-15	6.746283E-17
7.720000E+03	6.618779E-15	6.671193E-17
7.730000E+03	6.558202E-15	6.593786E-17
7.740000E+03	6.482614E-15	6.511612E-17
7.750000E+03	6.392000E-15	6.421481E-17
7.760000E+03	6.287421E-15	6.319570E-17
