#wls	flux	fluxerr
1.600000E+03	4.779985E-14	1.296001E-14
1.640000E+03	3.929224E-14	9.724947E-15
1.680000E+03	3.187623E-14	7.142074E-15
1.720000E+03	2.550404E-14	5.123170E-15
1.760000E+03	2.011277E-14	3.581398E-15
1.800000E+03	1.562561E-14	2.433652E-15
1.840000E+03	1.195005E-14	1.602243E-15
1.880000E+03	8.994966E-15	1.018809E-15
1.920000E+03	6.663860E-15	6.237008E-16
1.960000E+03	4.863215E-15	3.671878E-16
2.000000E+03	3.504968E-15	2.091945E-16
2.040000E+03	2.509337E-15	1.185937E-16
2.080000E+03	1.805299E-15	7.167529E-17
2.120000E+03	1.327287E-15	4.964022E-17
2.160000E+03	1.013493E-15	3.860115E-17
2.200000E+03	8.199168E-16	3.246637E-17
2.240000E+03	7.186304E-16	2.977160E-17
2.280000E+03	6.948131E-16	3.053933E-17
2.320000E+03	7.431056E-16	3.490560E-17
2.360000E+03	8.693607E-16	4.310533E-17
2.400000E+03	1.093427E-15	5.564820E-17
2.440000E+03	1.448111E-15	7.290531E-17
2.480000E+03	1.974436E-15	9.440555E-17
2.520000E+03	2.708086E-15	1.183877E-16
2.560000E+03	3.657095E-15	1.434404E-16
2.600000E+03	4.782219E-15	1.741495E-16
2.640000E+03	6.007554E-15	2.243055E-16
2.680000E+03	7.224883E-15	2.999534E-16
2.720000E+03	8.339430E-15	3.901094E-16
2.760000E+03	9.329569E-15	4.811379E-16
2.800000E+03	1.023565E-14	5.657811E-16
2.840000E+03	1.112004E-14	6.431399E-16
2.880000E+03	1.202937E-14	7.149906E-16
2.920000E+03	1.297126E-14	7.822058E-16
2.960000E+03	1.390575E-14	8.426974E-16
3.000000E+03	1.473822E-14	8.903815E-16
3.010000E+03	1.491546E-14	8.993044E-16
3.020000E+03	1.507547E-14	9.067074E-16
3.030000E+03	1.521604E-14	9.124485E-16
3.040000E+03	1.533582E-14	9.164413E-16
3.050000E+03	1.543272E-14	9.185575E-16
3.060000E+03	1.550531E-14	9.187156E-16
3.070000E+03	1.555295E-14	9.168841E-16
3.080000E+03	1.557481E-14	9.130256E-16
3.090000E+03	1.557094E-14	9.071593E-16
3.100000E+03	1.554261E-14	8.993780E-16
3.110000E+03	1.549034E-14	8.897339E-16
3.120000E+03	1.541616E-14	8.783675E-16
3.130000E+03	1.532195E-14	8.654101E-16
3.140000E+03	1.521120E-14	8.510831E-16
3.150000E+03	1.508587E-14	8.355183E-16
3.160000E+03	1.494935E-14	8.189232E-16
3.170000E+03	1.480505E-14	8.015022E-16
3.180000E+03	1.465611E-14	7.834354E-16
3.190000E+03	1.450495E-14	7.648606E-16
3.200000E+03	1.435518E-14	7.459696E-16
3.210000E+03	1.420877E-14	7.268600E-16
3.220000E+03	1.406814E-14	7.076468E-16
3.230000E+03	1.393483E-14	6.883932E-16
3.240000E+03	1.381050E-14	6.691625E-16
3.250000E+03	1.369616E-14	6.499803E-16
3.260000E+03	1.359242E-14	6.308499E-16
3.270000E+03	1.349929E-14	6.117440E-16
3.280000E+03	1.341688E-14	5.926396E-16
3.290000E+03	1.334473E-14	5.734883E-16
3.300000E+03	1.328185E-14	5.542222E-16
3.310000E+03	1.322742E-14	5.347850E-16
3.320000E+03	1.317991E-14	5.150999E-16
3.330000E+03	1.313803E-14	4.951085E-16
3.340000E+03	1.309983E-14	4.747427E-16
3.350000E+03	1.306345E-14	4.539543E-16
3.360000E+03	1.302686E-14	4.327128E-16
3.370000E+03	1.298795E-14	4.110113E-16
3.380000E+03	1.294453E-14	3.888737E-16
3.390000E+03	1.289417E-14	3.663559E-16
3.400000E+03	1.283483E-14	3.435706E-16
3.410000E+03	1.276397E-14	3.206664E-16
3.420000E+03	1.267985E-14	2.978680E-16
3.430000E+03	1.258016E-14	2.754387E-16
3.440000E+03	1.246315E-14	2.537030E-16
3.450000E+03	1.232733E-14	2.330201E-16
3.460000E+03	1.217145E-14	2.137516E-16
3.470000E+03	1.199502E-14	1.962310E-16
3.480000E+03	1.179773E-14	1.807015E-16
3.490000E+03	1.157959E-14	1.672685E-16
3.500000E+03	1.134122E-14	1.559010E-16
3.510000E+03	1.108383E-14	1.464881E-16
3.520000E+03	1.080964E-14	1.388171E-16
3.530000E+03	1.052093E-14	1.325206E-16
3.540000E+03	1.022136E-14	1.272457E-16
3.550000E+03	9.915393E-15	1.227054E-16
3.560000E+03	9.608639E-15	1.186453E-16
3.570000E+03	9.307211E-15	1.149120E-16
3.580000E+03	9.017637E-15	1.114450E-16
3.590000E+03	8.746622E-15	1.082033E-16
3.600000E+03	8.500386E-15	1.051993E-16
3.610000E+03	8.284956E-15	1.024865E-16
3.620000E+03	8.104929E-15	1.000841E-16
3.630000E+03	7.964378E-15	9.802989E-17
3.640000E+03	7.866902E-15	9.637682E-17
3.650000E+03	7.814862E-15	9.513820E-17
3.660000E+03	7.810215E-15	9.434113E-17
3.670000E+03	7.855119E-15	9.403393E-17
3.680000E+03	7.950579E-15	9.422859E-17
3.690000E+03	8.097855E-15	9.496209E-17
3.700000E+03	8.298178E-15	9.628267E-17
3.710000E+03	8.552015E-15	9.818213E-17
3.720000E+03	8.859416E-15	1.006612E-16
3.730000E+03	9.220504E-15	1.037377E-16
3.740000E+03	9.634541E-15	1.073666E-16
3.750000E+03	1.010034E-14	1.115172E-16
3.760000E+03	1.061607E-14	1.161753E-16
3.770000E+03	1.117896E-14	1.212584E-16
3.780000E+03	1.178516E-14	1.266988E-16
3.790000E+03	1.242976E-14	1.324530E-16
3.800000E+03	1.310685E-14	1.384062E-16
3.810000E+03	1.380867E-14	1.444681E-16
3.820000E+03	1.452696E-14	1.506000E-16
3.830000E+03	1.525264E-14	1.566913E-16
3.840000E+03	1.597562E-14	1.626866E-16
3.850000E+03	1.668611E-14	1.685970E-16
3.860000E+03	1.737522E-14	1.743363E-16
3.870000E+03	1.803491E-14	1.798891E-16
3.880000E+03	1.865846E-14	1.853286E-16
3.890000E+03	1.924100E-14	1.906259E-16
3.900000E+03	1.978000E-14	1.958421E-16
3.910000E+03	2.027453E-14	2.011097E-16
3.920000E+03	2.072530E-14	2.063830E-16
3.930000E+03	2.113457E-14	2.116333E-16
3.940000E+03	2.150521E-14	2.167921E-16
3.950000E+03	2.183943E-14	2.214471E-16
3.960000E+03	2.213917E-14	2.251594E-16
3.970000E+03	2.240605E-14	2.276398E-16
3.980000E+03	2.264087E-14	2.286503E-16
3.990000E+03	2.284337E-14	2.281755E-16
4.000000E+03	2.301314E-14	2.264344E-16
4.010000E+03	2.314804E-14	2.236897E-16
4.020000E+03	2.324514E-14	2.203907E-16
4.030000E+03	2.330197E-14	2.170032E-16
4.040000E+03	2.331492E-14	2.136125E-16
4.050000E+03	2.328089E-14	2.102793E-16
4.060000E+03	2.319732E-14	2.070733E-16
4.070000E+03	2.306277E-14	2.037834E-16
4.080000E+03	2.287669E-14	2.002875E-16
4.090000E+03	2.263942E-14	1.965910E-16
4.100000E+03	2.235154E-14	1.925279E-16
4.110000E+03	2.201457E-14	1.880909E-16
4.120000E+03	2.163146E-14	1.834031E-16
4.130000E+03	2.120570E-14	1.783748E-16
4.140000E+03	2.074238E-14	1.730501E-16
4.150000E+03	2.024806E-14	1.675811E-16
4.160000E+03	1.973186E-14	1.619102E-16
4.170000E+03	1.920387E-14	1.561111E-16
4.180000E+03	1.867485E-14	1.503993E-16
4.190000E+03	1.815692E-14	1.448493E-16
4.200000E+03	1.766204E-14	1.396640E-16
4.210000E+03	1.720100E-14	1.350941E-16
4.220000E+03	1.678360E-14	1.311160E-16
4.230000E+03	1.641831E-14	1.277653E-16
4.240000E+03	1.611157E-14	1.251376E-16
4.250000E+03	1.586694E-14	1.230998E-16
4.260000E+03	1.568632E-14	1.216014E-16
4.270000E+03	1.556948E-14	1.206723E-16
4.280000E+03	1.551300E-14	1.201437E-16
4.290000E+03	1.551200E-14	1.199316E-16
4.300000E+03	1.556103E-14	1.200443E-16
4.310000E+03	1.565277E-14	1.203109E-16
4.320000E+03	1.577945E-14	1.206520E-16
4.330000E+03	1.593405E-14	1.210938E-16
4.340000E+03	1.610874E-14	1.214905E-16
4.350000E+03	1.629698E-14	1.218024E-16
4.360000E+03	1.649283E-14	1.221015E-16
4.370000E+03	1.669088E-14	1.222876E-16
4.380000E+03	1.688725E-14	1.223253E-16
4.390000E+03	1.707906E-14	1.222325E-16
4.400000E+03	1.726198E-14	1.217890E-16
4.410000E+03	1.743180E-14	1.209116E-16
4.420000E+03	1.758481E-14	1.196735E-16
4.430000E+03	1.771812E-14	1.179830E-16
4.440000E+03	1.782999E-14	1.159931E-16
4.450000E+03	1.792042E-14	1.141203E-16
4.460000E+03	1.799327E-14	1.126486E-16
4.470000E+03	1.805337E-14	1.120535E-16
4.480000E+03	1.810277E-14	1.127361E-16
4.490000E+03	1.813962E-14	1.143001E-16
4.500000E+03	1.815755E-14	1.161294E-16
4.510000E+03	1.814907E-14	1.177936E-16
4.520000E+03	1.810855E-14	1.188515E-16
4.530000E+03	1.803195E-14	1.192137E-16
4.540000E+03	1.791687E-14	1.190426E-16
4.550000E+03	1.776314E-14	1.182901E-16
4.560000E+03	1.757243E-14	1.170737E-16
4.570000E+03	1.734816E-14	1.156318E-16
4.580000E+03	1.709596E-14	1.138971E-16
4.590000E+03	1.682215E-14	1.119134E-16
4.600000E+03	1.653393E-14	1.098417E-16
4.610000E+03	1.623891E-14	1.075804E-16
4.620000E+03	1.594457E-14	1.051740E-16
4.630000E+03	1.565731E-14	1.028174E-16
4.640000E+03	1.538289E-14	1.005093E-16
4.650000E+03	1.512506E-14	9.839538E-17
4.660000E+03	1.488680E-14	9.670104E-17
4.670000E+03	1.466746E-14	9.529840E-17
4.680000E+03	1.446499E-14	9.414160E-17
4.690000E+03	1.427637E-14	9.328459E-17
4.700000E+03	1.409655E-14	9.250950E-17
4.710000E+03	1.392034E-14	9.170751E-17
4.720000E+03	1.374260E-14	9.089266E-17
4.730000E+03	1.355880E-14	8.987956E-17
4.740000E+03	1.336550E-14	8.861038E-17
4.750000E+03	1.316061E-14	8.716469E-17
4.760000E+03	1.294485E-14	8.547859E-17
4.770000E+03	1.271990E-14	8.362149E-17
4.780000E+03	1.248968E-14	8.176552E-17
4.790000E+03	1.225959E-14	7.986761E-17
4.800000E+03	1.203591E-14	7.799024E-17
4.810000E+03	1.182540E-14	7.629290E-17
4.820000E+03	1.163414E-14	7.473061E-17
4.830000E+03	1.146774E-14	7.336121E-17
4.840000E+03	1.133132E-14	7.232448E-17
4.850000E+03	1.122753E-14	7.152813E-17
4.860000E+03	1.115824E-14	7.097257E-17
4.870000E+03	1.112509E-14	7.076103E-17
4.880000E+03	1.112840E-14	7.080153E-17
4.890000E+03	1.116795E-14	7.110325E-17
4.900000E+03	1.124362E-14	7.176220E-17
4.910000E+03	1.135388E-14	7.263521E-17
4.920000E+03	1.149720E-14	7.365666E-17
4.930000E+03	1.167175E-14	7.486605E-17
4.940000E+03	1.187453E-14	7.611987E-17
4.950000E+03	1.210235E-14	7.738393E-17
4.960000E+03	1.235137E-14	7.874349E-17
4.970000E+03	1.261694E-14	8.010371E-17
4.980000E+03	1.289363E-14	8.148817E-17
4.990000E+03	1.317586E-14	8.302033E-17
5.000000E+03	1.345737E-14	8.455136E-17
5.010000E+03	1.373217E-14	8.602437E-17
5.020000E+03	1.399398E-14	8.749410E-17
5.030000E+03	1.423723E-14	8.876352E-17
5.040000E+03	1.445707E-14	8.976331E-17
5.050000E+03	1.464913E-14	9.058208E-17
5.060000E+03	1.481036E-14	9.110043E-17
5.070000E+03	1.493858E-14	9.136524E-17
5.080000E+03	1.503239E-14	9.155635E-17
5.090000E+03	1.509112E-14	9.154379E-17
5.100000E+03	1.511479E-14	9.133415E-17
5.110000E+03	1.510378E-14	9.108116E-17
5.120000E+03	1.505816E-14	9.064188E-17
5.130000E+03	1.497870E-14	9.003294E-17
5.140000E+03	1.486580E-14	8.940910E-17
5.150000E+03	1.472162E-14	8.861505E-17
5.160000E+03	1.454836E-14	8.763529E-17
5.170000E+03	1.434941E-14	8.660678E-17
5.180000E+03	1.413045E-14	8.539990E-17
5.190000E+03	1.389779E-14	8.403607E-17
5.200000E+03	1.365805E-14	8.268378E-17
5.210000E+03	1.341835E-14	8.126519E-17
5.220000E+03	1.318588E-14	7.984158E-17
5.230000E+03	1.296569E-14	7.857160E-17
5.240000E+03	1.276143E-14	7.732998E-17
5.250000E+03	1.257510E-14	7.610117E-17
5.260000E+03	1.240727E-14	7.499787E-17
5.270000E+03	1.225634E-14	7.392053E-17
5.280000E+03	1.211999E-14	7.290677E-17
5.290000E+03	1.199533E-14	7.209922E-17
5.300000E+03	1.187969E-14	7.138821E-17
5.310000E+03	1.177035E-14	7.076678E-17
5.320000E+03	1.166544E-14	7.032293E-17
5.330000E+03	1.156424E-14	6.988423E-17
5.340000E+03	1.146697E-14	6.937034E-17
5.350000E+03	1.137405E-14	6.880485E-17
5.360000E+03	1.128674E-14	6.800682E-17
5.370000E+03	1.120596E-14	6.691575E-17
5.380000E+03	1.113249E-14	6.563065E-17
5.390000E+03	1.106560E-14	6.414357E-17
5.400000E+03	1.100410E-14	6.265937E-17
5.410000E+03	1.094602E-14	6.159988E-17
5.420000E+03	1.088890E-14	6.120679E-17
5.430000E+03	1.083183E-14	6.155646E-17
5.440000E+03	1.077554E-14	6.252482E-17
5.450000E+03	1.072173E-14	6.372240E-17
5.460000E+03	1.067207E-14	6.490839E-17
5.470000E+03	1.062854E-14	6.602153E-17
5.480000E+03	1.059341E-14	6.688685E-17
5.490000E+03	1.056811E-14	6.746344E-17
5.500000E+03	1.055397E-14	6.785547E-17
5.510000E+03	1.055134E-14	6.805502E-17
5.520000E+03	1.056029E-14	6.816599E-17
5.530000E+03	1.057973E-14	6.836065E-17
5.540000E+03	1.060804E-14	6.860446E-17
5.550000E+03	1.064276E-14	6.892900E-17
5.560000E+03	1.068124E-14	6.942879E-17
5.570000E+03	1.071999E-14	6.995985E-17
5.580000E+03	1.075533E-14	7.045707E-17
5.590000E+03	1.078366E-14	7.096550E-17
5.600000E+03	1.080276E-14	7.136993E-17
5.610000E+03	1.081045E-14	7.166277E-17
5.620000E+03	1.080519E-14	7.193870E-17
5.630000E+03	1.078679E-14	7.210683E-17
5.640000E+03	1.075540E-14	7.216508E-17
5.650000E+03	1.071152E-14	7.220676E-17
5.660000E+03	1.065625E-14	7.214984E-17
5.670000E+03	1.059109E-14	7.200863E-17
5.680000E+03	1.051756E-14	7.189708E-17
5.690000E+03	1.043746E-14	7.176980E-17
5.700000E+03	1.035253E-14	7.166492E-17
5.710000E+03	1.026437E-14	7.167334E-17
5.720000E+03	1.017497E-14	7.166661E-17
5.730000E+03	1.008564E-14	7.156635E-17
5.740000E+03	9.997598E-15	7.139996E-17
5.750000E+03	9.911233E-15	7.110017E-17
5.760000E+03	9.826241E-15	7.070347E-17
5.770000E+03	9.741729E-15	7.033292E-17
5.780000E+03	9.655688E-15	6.998170E-17
5.790000E+03	9.565199E-15	6.971961E-17
5.800000E+03	9.466994E-15	6.967622E-17
5.810000E+03	9.357544E-15	6.981365E-17
5.820000E+03	9.232818E-15	7.013521E-17
5.830000E+03	9.089988E-15	7.069075E-17
5.840000E+03	8.928010E-15	7.136737E-17
5.850000E+03	8.746910E-15	7.205825E-17
5.860000E+03	8.548126E-15	7.265341E-17
5.870000E+03	8.335140E-15	7.287650E-17
5.880000E+03	8.112620E-15	7.248444E-17
5.890000E+03	7.884813E-15	7.135676E-17
5.900000E+03	7.655956E-15	6.944681E-17
5.910000E+03	7.429896E-15	6.682625E-17
5.920000E+03	7.209909E-15	6.367797E-17
5.930000E+03	6.998802E-15	6.024110E-17
5.940000E+03	6.798662E-15	5.682106E-17
5.950000E+03	6.611200E-15	5.368944E-17
5.960000E+03	6.437620E-15	5.094420E-17
5.970000E+03	6.278783E-15	4.865771E-17
5.980000E+03	6.135375E-15	4.687661E-17
5.990000E+03	6.008421E-15	4.550561E-17
6.000000E+03	5.898747E-15	4.447083E-17
6.010000E+03	5.807517E-15	4.374523E-17
6.020000E+03	5.735051E-15	4.322480E-17
6.030000E+03	5.681981E-15	4.286294E-17
6.040000E+03	5.649110E-15	4.266769E-17
6.050000E+03	5.636740E-15	4.257891E-17
6.060000E+03	5.645443E-15	4.258607E-17
6.070000E+03	5.675791E-15	4.272910E-17
6.080000E+03	5.728079E-15	4.298873E-17
6.090000E+03	5.802308E-15	4.339193E-17
6.100000E+03	5.898703E-15	4.400485E-17
6.110000E+03	6.016199E-15	4.479415E-17
6.120000E+03	6.153306E-15	4.575796E-17
6.130000E+03	6.308226E-15	4.692851E-17
6.140000E+03	6.478079E-15	4.822914E-17
6.150000E+03	6.659128E-15	4.961293E-17
6.160000E+03	6.847328E-15	5.108277E-17
6.170000E+03	7.038322E-15	5.255509E-17
6.180000E+03	7.227032E-15	5.399409E-17
6.190000E+03	7.408688E-15	5.542410E-17
6.200000E+03	7.579138E-15	5.677786E-17
6.210000E+03	7.734624E-15	5.804143E-17
6.220000E+03	7.871896E-15	5.925377E-17
6.230000E+03	7.989309E-15	6.034442E-17
6.240000E+03	8.086241E-15	6.129331E-17
6.250000E+03	8.162636E-15	6.213905E-17
6.260000E+03	8.219909E-15	6.282181E-17
6.270000E+03	8.259957E-15	6.333806E-17
6.280000E+03	8.284960E-15	6.374322E-17
6.290000E+03	8.297241E-15	6.398507E-17
6.300000E+03	8.299010E-15	6.405889E-17
6.310000E+03	8.292266E-15	6.400183E-17
6.320000E+03	8.278708E-15	6.372690E-17
6.330000E+03	8.259426E-15	6.318959E-17
6.340000E+03	8.235577E-15	6.241252E-17
6.350000E+03	8.208542E-15	6.135225E-17
6.360000E+03	8.179439E-15	6.006573E-17
6.370000E+03	8.150108E-15	5.873945E-17
6.380000E+03	8.123358E-15	5.755785E-17
6.390000E+03	8.102240E-15	5.684148E-17
6.400000E+03	8.089543E-15	5.696441E-17
6.410000E+03	8.086950E-15	5.799080E-17
6.420000E+03	8.092213E-15	5.968486E-17
6.430000E+03	8.101850E-15	6.173172E-17
6.440000E+03	8.112908E-15	6.378567E-17
6.450000E+03	8.122862E-15	6.563737E-17
6.460000E+03	8.129628E-15	6.720951E-17
6.470000E+03	8.131833E-15	6.841722E-17
6.480000E+03	8.128589E-15	6.926348E-17
6.490000E+03	8.118835E-15	6.981918E-17
6.500000E+03	8.102454E-15	7.010522E-17
6.510000E+03	8.079254E-15	7.018886E-17
6.520000E+03	8.049055E-15	7.016773E-17
6.530000E+03	8.012304E-15	7.004426E-17
6.540000E+03	7.969440E-15	6.984730E-17
6.550000E+03	7.920967E-15	6.963734E-17
6.560000E+03	7.867624E-15	6.938961E-17
6.570000E+03	7.810311E-15	6.911544E-17
6.580000E+03	7.749602E-15	6.885668E-17
6.590000E+03	7.686160E-15	6.857108E-17
6.600000E+03	7.620691E-15	6.825279E-17
6.610000E+03	7.553673E-15	6.793496E-17
6.620000E+03	7.485373E-15	6.758146E-17
6.630000E+03	7.416227E-15	6.719903E-17
6.640000E+03	7.346366E-15	6.683055E-17
6.650000E+03	7.276268E-15	6.645365E-17
6.660000E+03	7.205885E-15	6.607707E-17
6.670000E+03	7.135392E-15	6.574304E-17
6.680000E+03	7.065067E-15	6.542105E-17
6.690000E+03	6.995061E-15	6.510950E-17
6.700000E+03	6.925391E-15	6.483734E-17
6.710000E+03	6.856173E-15	6.456952E-17
6.720000E+03	6.787646E-15	6.430213E-17
6.730000E+03	6.719795E-15	6.405716E-17
6.740000E+03	6.652784E-15	6.379463E-17
6.750000E+03	6.586419E-15	6.349930E-17
6.760000E+03	6.520980E-15	6.319455E-17
6.770000E+03	6.456232E-15	6.285357E-17
6.780000E+03	6.392415E-15	6.248742E-17
6.790000E+03	6.329321E-15	6.213347E-17
6.800000E+03	6.267082E-15	6.178428E-17
6.810000E+03	6.205732E-15	6.145706E-17
6.820000E+03	6.145242E-15	6.118591E-17
6.830000E+03	6.085866E-15	6.094409E-17
6.840000E+03	6.027679E-15	6.071910E-17
6.850000E+03	5.971025E-15	6.052137E-17
6.860000E+03	5.915970E-15	6.030915E-17
6.870000E+03	5.863067E-15	6.006932E-17
6.880000E+03	5.812556E-15	5.981709E-17
6.890000E+03	5.764797E-15	5.954127E-17
6.900000E+03	5.720056E-15	5.925834E-17
6.910000E+03	5.678897E-15	5.900717E-17
6.920000E+03	5.641234E-15	5.877254E-17
6.930000E+03	5.607597E-15	5.856213E-17
6.940000E+03	5.577901E-15	5.839677E-17
6.950000E+03	5.552090E-15	5.825891E-17
6.960000E+03	5.530144E-15	5.815144E-17
6.970000E+03	5.511786E-15	5.809401E-17
6.980000E+03	5.496720E-15	5.806733E-17
6.990000E+03	5.484617E-15	5.807015E-17
7.000000E+03	5.475130E-15	5.811806E-17
7.010000E+03	5.467854E-15	5.818444E-17
7.020000E+03	5.462264E-15	5.825831E-17
7.030000E+03	5.458151E-15	5.835178E-17
7.040000E+03	5.454710E-15	5.843626E-17
7.050000E+03	5.451778E-15	5.850953E-17
7.060000E+03	5.448535E-15	5.858082E-17
7.070000E+03	5.444642E-15	5.862770E-17
7.080000E+03	5.439433E-15	5.864239E-17
7.090000E+03	5.432389E-15	5.863872E-17
7.100000E+03	5.423120E-15	5.859959E-17
7.110000E+03	5.410964E-15	5.852474E-17
7.120000E+03	5.395696E-15	5.843654E-17
7.130000E+03	5.377033E-15	5.832018E-17
7.140000E+03	5.355025E-15	5.818072E-17
7.150000E+03	5.329716E-15	5.803736E-17
7.160000E+03	5.301178E-15	5.786898E-17
7.170000E+03	5.269783E-15	5.767197E-17
7.180000E+03	5.235614E-15	5.745631E-17
7.190000E+03	5.199209E-15	5.720374E-17
7.200000E+03	5.160797E-15	5.690993E-17
7.210000E+03	5.120595E-15	5.658829E-17
7.220000E+03	5.078989E-15	5.622399E-17
7.230000E+03	5.036238E-15	5.581753E-17
7.240000E+03	4.992506E-15	5.538343E-17
7.250000E+03	4.948079E-15	5.490576E-17
7.260000E+03	4.903246E-15	5.438359E-17
7.270000E+03	4.858289E-15	5.383182E-17
7.280000E+03	4.813499E-15	5.323833E-17
7.290000E+03	4.768952E-15	5.260665E-17
7.300000E+03	4.725067E-15	5.196394E-17
7.310000E+03	4.681869E-15	5.131270E-17
7.320000E+03	4.639332E-15	5.067382E-17
7.330000E+03	4.597575E-15	5.008005E-17
7.340000E+03	4.556352E-15	4.952144E-17
7.350000E+03	4.515584E-15	4.899913E-17
7.360000E+03	4.475200E-15	4.852259E-17
7.370000E+03	4.435052E-15	4.806225E-17
7.380000E+03	4.395215E-15	4.760250E-17
7.390000E+03	4.355463E-15	4.714088E-17
7.400000E+03	4.316150E-15	4.665768E-17
7.410000E+03	4.277342E-15	4.614883E-17
7.420000E+03	4.239452E-15	4.563286E-17
7.430000E+03	4.202788E-15	4.510640E-17
7.440000E+03	4.167811E-15	4.458606E-17
7.450000E+03	4.135079E-15	4.410388E-17
7.460000E+03	4.104918E-15	4.366107E-17
7.470000E+03	4.078002E-15	4.327636E-17
7.480000E+03	4.054496E-15	4.297420E-17
7.490000E+03	4.034729E-15	4.274779E-17
7.500000E+03	4.018697E-15	4.259807E-17
7.510000E+03	4.006681E-15	4.253998E-17
7.520000E+03	3.998441E-15	4.255047E-17
7.530000E+03	3.993766E-15	4.261794E-17
7.540000E+03	3.992496E-15	4.274504E-17
7.550000E+03	3.994286E-15	4.290624E-17
7.560000E+03	3.998927E-15	4.308999E-17
7.570000E+03	4.005823E-15	4.329219E-17
7.580000E+03	4.014542E-15	4.348220E-17
7.590000E+03	4.024600E-15	4.364047E-17
7.600000E+03	4.035297E-15	4.376046E-17
7.610000E+03	4.046053E-15	4.381705E-17
7.620000E+03	4.056051E-15	4.380010E-17
7.630000E+03	4.064703E-15	4.372055E-17
7.640000E+03	4.071011E-15	4.356695E-17
7.650000E+03	4.074292E-15	4.334945E-17
7.660000E+03	4.073448E-15	4.308752E-17
7.670000E+03	4.067738E-15	4.277603E-17
7.680000E+03	4.056030E-15	4.241851E-17
7.690000E+03	4.037595E-15	4.203559E-17
7.700000E+03	4.011551E-15	4.161795E-17
7.710000E+03	3.977204E-15	4.117051E-17
7.720000E+03	3.934047E-15	4.070798E-17
7.730000E+03	3.881940E-15	4.021169E-17
7.740000E+03	3.820983E-15	3.967188E-17
7.750000E+03	3.751469E-15	3.908533E-17
7.760000E+03	3.674419E-15	3.841891E-17
