#wls	flux	fluxerr
1.600000E+03	1.235409E-13	3.166702E-14
1.640000E+03	1.049757E-13	2.440644E-14
1.680000E+03	8.816938E-14	1.841568E-14
1.720000E+03	7.315442E-14	1.357207E-14
1.760000E+03	5.992744E-14	9.742566E-15
1.800000E+03	4.844581E-14	6.788366E-15
1.840000E+03	3.861339E-14	4.568645E-15
1.880000E+03	3.032583E-14	2.951760E-15
1.920000E+03	2.344441E-14	1.814945E-15
1.960000E+03	1.781849E-14	1.049859E-15
2.000000E+03	1.329209E-14	5.647636E-16
2.040000E+03	9.715181E-15	2.861782E-16
2.080000E+03	6.953318E-15	1.557886E-16
2.120000E+03	4.916771E-15	1.091223E-16
2.160000E+03	3.541997E-15	8.518025E-17
2.200000E+03	2.701009E-15	6.703162E-17
2.240000E+03	2.259898E-15	5.690477E-17
2.280000E+03	2.132455E-15	5.866540E-17
2.320000E+03	2.282093E-15	7.266681E-17
2.360000E+03	2.734575E-15	9.878274E-17
2.400000E+03	3.596074E-15	1.393441E-16
2.440000E+03	5.064080E-15	1.966627E-16
2.480000E+03	7.429395E-15	2.677349E-16
2.520000E+03	1.101932E-14	3.360427E-16
2.560000E+03	1.600861E-14	3.696105E-16
2.600000E+03	2.205545E-14	3.687535E-16
2.640000E+03	2.803682E-14	4.917274E-16
2.680000E+03	3.289295E-14	7.819221E-16
2.720000E+03	3.638944E-14	1.078089E-15
2.760000E+03	3.889078E-14	1.295594E-15
2.800000E+03	4.108492E-14	1.428351E-15
2.840000E+03	4.358869E-14	1.504951E-15
2.880000E+03	4.666902E-14	1.553266E-15
2.920000E+03	5.037632E-14	1.593830E-15
2.960000E+03	5.462839E-14	1.638076E-15
3.000000E+03	5.905930E-14	1.682856E-15
3.010000E+03	6.011185E-14	1.691721E-15
3.020000E+03	6.110882E-14	1.698617E-15
3.030000E+03	6.203152E-14	1.703026E-15
3.040000E+03	6.286354E-14	1.704554E-15
3.050000E+03	6.358454E-14	1.702762E-15
3.060000E+03	6.417682E-14	1.697354E-15
3.070000E+03	6.462653E-14	1.688193E-15
3.080000E+03	6.492081E-14	1.675192E-15
3.090000E+03	6.505288E-14	1.658434E-15
3.100000E+03	6.502441E-14	1.638200E-15
3.110000E+03	6.483825E-14	1.614744E-15
3.120000E+03	6.450775E-14	1.588520E-15
3.130000E+03	6.404984E-14	1.559991E-15
3.140000E+03	6.349219E-14	1.529792E-15
3.150000E+03	6.285879E-14	1.498415E-15
3.160000E+03	6.218077E-14	1.466510E-15
3.170000E+03	6.148971E-14	1.434724E-15
3.180000E+03	6.081505E-14	1.403644E-15
3.190000E+03	6.018184E-14	1.373712E-15
3.200000E+03	5.961778E-14	1.345359E-15
3.210000E+03	5.914162E-14	1.318750E-15
3.220000E+03	5.877191E-14	1.293995E-15
3.230000E+03	5.852142E-14	1.271025E-15
3.240000E+03	5.840189E-14	1.249750E-15
3.250000E+03	5.842134E-14	1.230041E-15
3.260000E+03	5.858539E-14	1.211782E-15
3.270000E+03	5.889660E-14	1.194883E-15
3.280000E+03	5.935772E-14	1.179361E-15
3.290000E+03	5.996859E-14	1.165241E-15
3.300000E+03	6.072639E-14	1.152531E-15
3.310000E+03	6.162866E-14	1.141194E-15
3.320000E+03	6.266947E-14	1.130999E-15
3.330000E+03	6.384384E-14	1.121644E-15
3.340000E+03	6.514458E-14	1.112741E-15
3.350000E+03	6.656578E-14	1.103891E-15
3.360000E+03	6.810177E-14	1.094678E-15
3.370000E+03	6.974681E-14	1.084630E-15
3.380000E+03	7.149456E-14	1.073170E-15
3.390000E+03	7.333586E-14	1.059673E-15
3.400000E+03	7.526030E-14	1.043606E-15
3.410000E+03	7.724967E-14	1.024563E-15
3.420000E+03	7.928566E-14	1.002602E-15
3.430000E+03	8.134217E-14	9.783800E-16
3.440000E+03	8.339298E-14	9.534959E-16
3.450000E+03	8.541053E-14	9.307444E-16
3.460000E+03	8.736614E-14	9.141353E-16
3.470000E+03	8.923363E-14	9.083441E-16
3.480000E+03	9.097693E-14	9.165735E-16
3.490000E+03	9.253377E-14	9.367713E-16
3.500000E+03	9.383416E-14	9.641709E-16
3.510000E+03	9.480820E-14	9.938132E-16
3.520000E+03	9.539291E-14	1.021647E-15
3.530000E+03	9.552929E-14	1.044820E-15
3.540000E+03	9.517625E-14	1.061754E-15
3.550000E+03	9.430913E-14	1.071769E-15
3.560000E+03	9.292830E-14	1.074769E-15
3.570000E+03	9.105705E-14	1.071059E-15
3.580000E+03	8.874560E-14	1.061280E-15
3.590000E+03	8.607076E-14	1.046292E-15
3.600000E+03	8.312377E-14	1.027087E-15
3.610000E+03	8.001214E-14	1.004842E-15
3.620000E+03	7.684745E-14	9.807590E-16
3.630000E+03	7.373808E-14	9.560237E-16
3.640000E+03	7.078430E-14	9.317610E-16
3.650000E+03	6.807420E-14	9.089580E-16
3.660000E+03	6.567813E-14	8.884372E-16
3.670000E+03	6.365096E-14	8.709108E-16
3.680000E+03	6.202802E-14	8.568903E-16
3.690000E+03	6.083228E-14	8.467426E-16
3.700000E+03	6.007380E-14	8.406263E-16
3.710000E+03	5.975335E-14	8.385071E-16
3.720000E+03	5.986328E-14	8.402126E-16
3.730000E+03	6.039212E-14	8.455675E-16
3.740000E+03	6.132401E-14	8.544304E-16
3.750000E+03	6.264069E-14	8.667477E-16
3.760000E+03	6.432075E-14	8.825336E-16
3.770000E+03	6.634118E-14	9.018681E-16
3.780000E+03	6.867597E-14	9.248706E-16
3.790000E+03	7.129723E-14	9.516587E-16
3.800000E+03	7.417756E-14	9.822974E-16
3.810000E+03	7.728346E-14	1.016680E-15
3.820000E+03	8.058045E-14	1.054546E-15
3.830000E+03	8.402970E-14	1.095376E-15
3.840000E+03	8.758447E-14	1.138401E-15
3.850000E+03	9.119340E-14	1.182723E-15
3.860000E+03	9.480048E-14	1.227361E-15
3.870000E+03	9.834472E-14	1.271313E-15
3.880000E+03	1.017636E-13	1.313616E-15
3.890000E+03	1.049957E-13	1.353340E-15
3.900000E+03	1.079867E-13	1.389671E-15
3.910000E+03	1.106902E-13	1.421921E-15
3.920000E+03	1.130720E-13	1.449531E-15
3.930000E+03	1.151119E-13	1.472114E-15
3.940000E+03	1.168049E-13	1.489454E-15
3.950000E+03	1.181619E-13	1.501516E-15
3.960000E+03	1.192055E-13	1.508472E-15
3.970000E+03	1.199653E-13	1.510696E-15
3.980000E+03	1.204789E-13	1.508750E-15
3.990000E+03	1.207803E-13	1.503289E-15
4.000000E+03	1.208995E-13	1.495049E-15
4.010000E+03	1.208568E-13	1.484656E-15
4.020000E+03	1.206599E-13	1.472576E-15
4.030000E+03	1.203081E-13	1.459116E-15
4.040000E+03	1.197872E-13	1.444282E-15
4.050000E+03	1.190775E-13	1.427898E-15
4.060000E+03	1.181555E-13	1.409613E-15
4.070000E+03	1.169986E-13	1.388949E-15
4.080000E+03	1.155900E-13	1.365404E-15
4.090000E+03	1.139223E-13	1.338500E-15
4.100000E+03	1.119973E-13	1.307770E-15
4.110000E+03	1.098289E-13	1.272881E-15
4.120000E+03	1.074435E-13	1.233716E-15
4.130000E+03	1.048733E-13	1.190315E-15
4.140000E+03	1.021608E-13	1.143014E-15
4.150000E+03	9.935338E-14	1.092411E-15
4.160000E+03	9.650252E-14	1.039372E-15
4.170000E+03	9.366180E-14	9.850854E-16
4.180000E+03	9.088506E-14	9.310767E-16
4.190000E+03	8.822464E-14	8.791661E-16
4.200000E+03	8.572882E-14	8.314216E-16
4.210000E+03	8.344092E-14	7.895220E-16
4.220000E+03	8.140016E-14	7.536062E-16
4.230000E+03	7.963535E-14	7.236729E-16
4.240000E+03	7.816638E-14	6.997278E-16
4.250000E+03	7.701012E-14	6.808196E-16
4.260000E+03	7.616958E-14	6.662863E-16
4.270000E+03	7.563296E-14	6.557410E-16
4.280000E+03	7.538503E-14	6.479222E-16
4.290000E+03	7.539486E-14	6.419503E-16
4.300000E+03	7.561656E-14	6.373787E-16
4.310000E+03	7.599931E-14	6.330649E-16
4.320000E+03	7.647861E-14	6.285049E-16
4.330000E+03	7.698543E-14	6.240627E-16
4.340000E+03	7.746433E-14	6.198517E-16
4.350000E+03	7.786438E-14	6.169185E-16
4.360000E+03	7.814037E-14	6.168379E-16
4.370000E+03	7.828522E-14	6.192885E-16
4.380000E+03	7.832635E-14	6.215590E-16
4.390000E+03	7.830386E-14	6.207413E-16
4.400000E+03	7.826318E-14	6.144767E-16
4.410000E+03	7.824646E-14	6.018160E-16
4.420000E+03	7.828647E-14	5.828422E-16
4.430000E+03	7.841212E-14	5.574585E-16
4.440000E+03	7.864237E-14	5.270524E-16
4.450000E+03	7.898680E-14	4.950783E-16
4.460000E+03	7.946272E-14	4.663125E-16
4.470000E+03	8.007616E-14	4.481507E-16
4.480000E+03	8.081152E-14	4.474658E-16
4.490000E+03	8.162798E-14	4.613294E-16
4.500000E+03	8.245041E-14	4.826260E-16
4.510000E+03	8.319733E-14	5.057898E-16
4.520000E+03	8.382446E-14	5.258264E-16
4.530000E+03	8.429468E-14	5.410461E-16
4.540000E+03	8.457141E-14	5.524817E-16
4.550000E+03	8.463472E-14	5.604248E-16
4.560000E+03	8.446436E-14	5.666752E-16
4.570000E+03	8.404607E-14	5.735536E-16
4.580000E+03	8.340364E-14	5.798407E-16
4.590000E+03	8.256266E-14	5.844327E-16
4.600000E+03	8.155288E-14	5.870068E-16
4.610000E+03	8.043403E-14	5.856978E-16
4.620000E+03	7.926423E-14	5.796882E-16
4.630000E+03	7.809016E-14	5.697263E-16
4.640000E+03	7.696269E-14	5.567934E-16
4.650000E+03	7.591356E-14	5.430706E-16
4.660000E+03	7.496454E-14	5.310308E-16
4.670000E+03	7.413248E-14	5.206281E-16
4.680000E+03	7.341845E-14	5.122140E-16
4.690000E+03	7.280853E-14	5.066906E-16
4.700000E+03	7.228728E-14	5.029983E-16
4.710000E+03	7.182810E-14	5.010471E-16
4.720000E+03	7.139275E-14	5.016161E-16
4.730000E+03	7.095119E-14	5.034550E-16
4.740000E+03	7.046767E-14	5.060135E-16
4.750000E+03	6.990121E-14	5.093285E-16
4.760000E+03	6.923163E-14	5.113718E-16
4.770000E+03	6.843553E-14	5.106640E-16
4.780000E+03	6.749681E-14	5.068352E-16
4.790000E+03	6.642231E-14	4.990425E-16
4.800000E+03	6.522238E-14	4.875387E-16
4.810000E+03	6.391438E-14	4.736342E-16
4.820000E+03	6.253835E-14	4.581755E-16
4.830000E+03	6.113219E-14	4.428278E-16
4.840000E+03	5.973354E-14	4.294683E-16
4.850000E+03	5.839403E-14	4.178785E-16
4.860000E+03	5.715699E-14	4.081719E-16
4.870000E+03	5.605299E-14	4.008875E-16
4.880000E+03	5.510685E-14	3.950258E-16
4.890000E+03	5.433035E-14	3.901852E-16
4.900000E+03	5.372682E-14	3.866842E-16
4.910000E+03	5.329788E-14	3.838446E-16
4.920000E+03	5.303972E-14	3.816674E-16
4.930000E+03	5.294260E-14	3.807178E-16
4.940000E+03	5.300117E-14	3.803776E-16
4.950000E+03	5.320651E-14	3.805578E-16
4.960000E+03	5.354374E-14	3.816452E-16
4.970000E+03	5.400328E-14	3.827361E-16
4.980000E+03	5.456926E-14	3.834451E-16
4.990000E+03	5.522004E-14	3.841279E-16
5.000000E+03	5.593475E-14	3.843445E-16
5.010000E+03	5.668786E-14	3.844789E-16
5.020000E+03	5.744704E-14	3.854694E-16
5.030000E+03	5.818969E-14	3.865858E-16
5.040000E+03	5.889142E-14	3.877386E-16
5.050000E+03	5.952542E-14	3.895102E-16
5.060000E+03	6.007835E-14	3.906823E-16
5.070000E+03	6.053841E-14	3.909002E-16
5.080000E+03	6.089417E-14	3.907731E-16
5.090000E+03	6.114291E-14	3.892326E-16
5.100000E+03	6.128367E-14	3.862295E-16
5.110000E+03	6.131489E-14	3.827507E-16
5.120000E+03	6.123486E-14	3.780547E-16
5.130000E+03	6.104309E-14	3.724871E-16
5.140000E+03	6.073341E-14	3.673017E-16
5.150000E+03	6.030039E-14	3.616379E-16
5.160000E+03	5.973651E-14	3.556388E-16
5.170000E+03	5.903817E-14	3.503818E-16
5.180000E+03	5.821005E-14	3.447197E-16
5.190000E+03	5.726206E-14	3.385414E-16
5.200000E+03	5.621335E-14	3.326861E-16
5.210000E+03	5.509921E-14	3.258171E-16
5.220000E+03	5.396119E-14	3.177091E-16
5.230000E+03	5.283808E-14	3.092810E-16
5.240000E+03	5.177279E-14	2.998776E-16
5.250000E+03	5.080196E-14	2.899842E-16
5.260000E+03	4.995208E-14	2.809275E-16
5.270000E+03	4.923598E-14	2.719651E-16
5.280000E+03	4.865697E-14	2.634034E-16
5.290000E+03	4.820737E-14	2.564556E-16
5.300000E+03	4.787058E-14	2.501257E-16
5.310000E+03	4.762141E-14	2.446809E-16
5.320000E+03	4.743256E-14	2.414006E-16
5.330000E+03	4.728204E-14	2.387197E-16
5.340000E+03	4.714799E-14	2.361728E-16
5.350000E+03	4.700867E-14	2.343494E-16
5.360000E+03	4.685460E-14	2.310616E-16
5.370000E+03	4.667686E-14	2.252861E-16
5.380000E+03	4.646846E-14	2.175542E-16
5.390000E+03	4.622421E-14	2.068294E-16
5.400000E+03	4.594078E-14	1.946637E-16
5.410000E+03	4.561130E-14	1.860941E-16
5.420000E+03	4.521976E-14	1.856344E-16
5.430000E+03	4.477551E-14	1.940393E-16
5.440000E+03	4.430906E-14	2.080697E-16
5.450000E+03	4.384330E-14	2.224108E-16
5.460000E+03	4.339682E-14	2.342110E-16
5.470000E+03	4.298545E-14	2.432671E-16
5.480000E+03	4.261621E-14	2.494756E-16
5.490000E+03	4.228934E-14	2.541650E-16
5.500000E+03	4.200545E-14	2.593821E-16
5.510000E+03	4.176503E-14	2.651777E-16
5.520000E+03	4.156988E-14	2.718922E-16
5.530000E+03	4.141900E-14	2.801220E-16
5.540000E+03	4.131079E-14	2.885194E-16
5.550000E+03	4.124233E-14	2.959496E-16
5.560000E+03	4.121060E-14	3.019730E-16
5.570000E+03	4.120636E-14	3.056594E-16
5.580000E+03	4.121995E-14	3.066470E-16
5.590000E+03	4.124092E-14	3.052781E-16
5.600000E+03	4.125771E-14	3.018737E-16
5.610000E+03	4.125828E-14	2.974278E-16
5.620000E+03	4.123285E-14	2.932185E-16
5.630000E+03	4.117176E-14	2.892624E-16
5.640000E+03	4.106786E-14	2.858886E-16
5.650000E+03	4.091837E-14	2.837364E-16
5.660000E+03	4.072253E-14	2.821422E-16
5.670000E+03	4.048453E-14	2.808907E-16
5.680000E+03	4.021193E-14	2.802953E-16
5.690000E+03	3.991257E-14	2.796705E-16
5.700000E+03	3.959624E-14	2.788666E-16
5.710000E+03	3.927400E-14	2.782846E-16
5.720000E+03	3.895670E-14	2.774651E-16
5.730000E+03	3.865293E-14	2.764240E-16
5.740000E+03	3.837176E-14	2.756580E-16
5.750000E+03	3.811901E-14	2.748210E-16
5.760000E+03	3.789785E-14	2.739943E-16
5.770000E+03	3.770985E-14	2.736916E-16
5.780000E+03	3.755350E-14	2.736304E-16
5.790000E+03	3.742420E-14	2.739229E-16
5.800000E+03	3.731567E-14	2.750692E-16
5.810000E+03	3.721983E-14	2.767676E-16
5.820000E+03	3.712620E-14	2.790420E-16
5.830000E+03	3.702586E-14	2.822367E-16
5.840000E+03	3.691025E-14	2.858314E-16
5.850000E+03	3.677256E-14	2.895630E-16
5.860000E+03	3.660866E-14	2.934228E-16
5.870000E+03	3.641540E-14	2.965502E-16
5.880000E+03	3.619356E-14	2.983368E-16
5.890000E+03	3.594472E-14	2.985800E-16
5.900000E+03	3.567203E-14	2.968153E-16
5.910000E+03	3.537922E-14	2.929937E-16
5.920000E+03	3.506988E-14	2.875193E-16
5.930000E+03	3.474697E-14	2.806728E-16
5.940000E+03	3.441061E-14	2.731394E-16
5.950000E+03	3.406013E-14	2.657828E-16
5.960000E+03	3.369474E-14	2.586697E-16
5.970000E+03	3.331109E-14	2.520463E-16
5.980000E+03	3.290398E-14	2.463068E-16
5.990000E+03	3.247244E-14	2.410274E-16
6.000000E+03	3.201273E-14	2.360586E-16
6.010000E+03	3.152335E-14	2.316008E-16
6.020000E+03	3.100563E-14	2.272244E-16
6.030000E+03	3.046265E-14	2.228968E-16
6.040000E+03	2.989985E-14	2.189300E-16
6.050000E+03	2.933105E-14	2.150026E-16
6.060000E+03	2.877156E-14	2.111472E-16
6.070000E+03	2.823674E-14	2.077216E-16
6.080000E+03	2.775016E-14	2.045253E-16
6.090000E+03	2.733204E-14	2.016588E-16
6.100000E+03	2.700048E-14	1.994933E-16
6.110000E+03	2.677197E-14	1.977700E-16
6.120000E+03	2.665789E-14	1.964516E-16
6.130000E+03	2.666356E-14	1.957102E-16
6.140000E+03	2.678950E-14	1.951081E-16
6.150000E+03	2.702918E-14	1.944521E-16
6.160000E+03	2.737025E-14	1.938800E-16
6.170000E+03	2.779677E-14	1.931257E-16
6.180000E+03	2.828599E-14	1.923545E-16
6.190000E+03	2.881251E-14	1.920911E-16
6.200000E+03	2.935283E-14	1.920645E-16
6.210000E+03	2.988238E-14	1.924242E-16
6.220000E+03	3.037625E-14	1.936709E-16
6.230000E+03	3.081667E-14	1.951244E-16
6.240000E+03	3.119017E-14	1.965173E-16
6.250000E+03	3.148615E-14	1.981190E-16
6.260000E+03	3.170052E-14	1.992356E-16
6.270000E+03	3.183408E-14	1.997268E-16
6.280000E+03	3.189196E-14	2.000243E-16
6.290000E+03	3.187980E-14	1.995585E-16
6.300000E+03	3.180665E-14	1.982764E-16
6.310000E+03	3.168396E-14	1.966206E-16
6.320000E+03	3.151963E-14	1.939688E-16
6.330000E+03	3.132177E-14	1.901500E-16
6.340000E+03	3.110067E-14	1.854022E-16
6.350000E+03	3.086397E-14	1.788277E-16
6.360000E+03	3.061902E-14	1.702113E-16
6.370000E+03	3.037657E-14	1.604179E-16
6.380000E+03	3.014920E-14	1.503754E-16
6.390000E+03	2.994844E-14	1.427550E-16
6.400000E+03	2.978297E-14	1.415192E-16
6.410000E+03	2.965854E-14	1.478903E-16
6.420000E+03	2.956808E-14	1.593043E-16
6.430000E+03	2.950035E-14	1.728707E-16
6.440000E+03	2.944550E-14	1.860810E-16
6.450000E+03	2.939476E-14	1.978952E-16
6.460000E+03	2.934121E-14	2.082829E-16
6.470000E+03	2.928046E-14	2.168043E-16
6.480000E+03	2.921067E-14	2.233911E-16
6.490000E+03	2.912997E-14	2.283543E-16
6.500000E+03	2.903885E-14	2.316673E-16
6.510000E+03	2.893758E-14	2.335690E-16
6.520000E+03	2.882639E-14	2.345637E-16
6.530000E+03	2.870614E-14	2.348077E-16
6.540000E+03	2.857728E-14	2.346885E-16
6.550000E+03	2.844041E-14	2.347340E-16
6.560000E+03	2.829634E-14	2.348526E-16
6.570000E+03	2.814640E-14	2.350911E-16
6.580000E+03	2.799106E-14	2.356659E-16
6.590000E+03	2.783159E-14	2.363267E-16
6.600000E+03	2.766958E-14	2.370151E-16
6.610000E+03	2.750592E-14	2.378784E-16
6.620000E+03	2.734103E-14	2.386839E-16
6.630000E+03	2.717576E-14	2.393981E-16
6.640000E+03	2.700964E-14	2.401771E-16
6.650000E+03	2.684378E-14	2.408594E-16
6.660000E+03	2.667696E-14	2.414327E-16
6.670000E+03	2.650855E-14	2.420579E-16
6.680000E+03	2.633912E-14	2.425939E-16
6.690000E+03	2.616842E-14	2.430334E-16
6.700000E+03	2.599551E-14	2.435058E-16
6.710000E+03	2.582085E-14	2.438710E-16
6.720000E+03	2.564500E-14	2.441221E-16
6.730000E+03	2.546722E-14	2.443778E-16
6.740000E+03	2.528871E-14	2.445273E-16
6.750000E+03	2.510883E-14	2.445713E-16
6.760000E+03	2.492822E-14	2.446533E-16
6.770000E+03	2.474691E-14	2.446821E-16
6.780000E+03	2.456616E-14	2.446925E-16
6.790000E+03	2.438496E-14	2.448085E-16
6.800000E+03	2.420502E-14	2.449647E-16
6.810000E+03	2.402705E-14	2.451745E-16
6.820000E+03	2.385074E-14	2.455212E-16
6.830000E+03	2.367763E-14	2.458873E-16
6.840000E+03	2.350772E-14	2.462045E-16
6.850000E+03	2.334122E-14	2.464806E-16
6.860000E+03	2.317828E-14	2.465440E-16
6.870000E+03	2.302003E-14	2.463136E-16
6.880000E+03	2.286551E-14	2.458016E-16
6.890000E+03	2.271521E-14	2.449759E-16
6.900000E+03	2.256837E-14	2.439033E-16
6.910000E+03	2.242505E-14	2.427381E-16
6.920000E+03	2.228510E-14	2.414791E-16
6.930000E+03	2.215049E-14	2.402142E-16
6.940000E+03	2.202040E-14	2.390572E-16
6.950000E+03	2.189627E-14	2.379712E-16
6.960000E+03	2.177933E-14	2.369740E-16
6.970000E+03	2.166917E-14	2.361271E-16
6.980000E+03	2.156664E-14	2.353522E-16
6.990000E+03	2.147182E-14	2.346316E-16
7.000000E+03	2.138399E-14	2.340148E-16
7.010000E+03	2.130328E-14	2.334310E-16
7.020000E+03	2.122861E-14	2.328712E-16
7.030000E+03	2.115942E-14	2.324044E-16
7.040000E+03	2.109398E-14	2.319567E-16
7.050000E+03	2.103235E-14	2.315388E-16
7.060000E+03	2.097140E-14	2.311904E-16
7.070000E+03	2.091105E-14	2.308584E-16
7.080000E+03	2.084935E-14	2.305321E-16
7.090000E+03	2.078422E-14	2.302615E-16
7.100000E+03	2.071506E-14	2.299878E-16
7.110000E+03	2.063963E-14	2.296960E-16
7.120000E+03	2.055659E-14	2.294384E-16
7.130000E+03	2.046509E-14	2.291393E-16
7.140000E+03	2.036498E-14	2.287796E-16
7.150000E+03	2.025553E-14	2.283807E-16
7.160000E+03	2.013698E-14	2.278395E-16
7.170000E+03	2.001041E-14	2.271113E-16
7.180000E+03	1.987555E-14	2.261916E-16
7.190000E+03	1.973485E-14	2.249983E-16
7.200000E+03	1.958939E-14	2.235046E-16
7.210000E+03	1.943999E-14	2.217571E-16
7.220000E+03	1.928881E-14	2.197331E-16
7.230000E+03	1.913715E-14	2.174771E-16
7.240000E+03	1.898541E-14	2.150904E-16
7.250000E+03	1.883477E-14	2.125790E-16
7.260000E+03	1.868572E-14	2.099967E-16
7.270000E+03	1.853825E-14	2.074357E-16
7.280000E+03	1.839295E-14	2.048700E-16
7.290000E+03	1.824909E-14	2.023087E-16
7.300000E+03	1.810694E-14	1.998251E-16
7.310000E+03	1.796638E-14	1.973758E-16
7.320000E+03	1.782673E-14	1.949703E-16
7.330000E+03	1.768756E-14	1.926744E-16
7.340000E+03	1.754801E-14	1.904306E-16
7.350000E+03	1.740738E-14	1.882301E-16
7.360000E+03	1.726443E-14	1.860994E-16
7.370000E+03	1.711828E-14	1.839458E-16
7.380000E+03	1.696835E-14	1.817324E-16
7.390000E+03	1.681240E-14	1.794626E-16
7.400000E+03	1.665132E-14	1.770701E-16
7.410000E+03	1.648454E-14	1.745448E-16
7.420000E+03	1.631268E-14	1.719567E-16
7.430000E+03	1.613751E-14	1.692828E-16
7.440000E+03	1.596114E-14	1.665660E-16
7.450000E+03	1.578595E-14	1.639033E-16
7.460000E+03	1.561511E-14	1.612807E-16
7.470000E+03	1.545269E-14	1.587495E-16
7.480000E+03	1.530030E-14	1.563956E-16
7.490000E+03	1.516137E-14	1.542233E-16
7.500000E+03	1.503731E-14	1.522872E-16
7.510000E+03	1.492967E-14	1.507095E-16
7.520000E+03	1.483881E-14	1.494903E-16
7.530000E+03	1.476426E-14	1.486821E-16
7.540000E+03	1.470498E-14	1.483744E-16
7.550000E+03	1.466028E-14	1.485075E-16
7.560000E+03	1.462951E-14	1.490422E-16
7.570000E+03	1.461024E-14	1.499246E-16
7.580000E+03	1.460226E-14	1.509247E-16
7.590000E+03	1.460523E-14	1.518162E-16
7.600000E+03	1.461776E-14	1.524183E-16
7.610000E+03	1.463951E-14	1.525225E-16
7.620000E+03	1.466927E-14	1.519910E-16
7.630000E+03	1.470656E-14	1.507973E-16
7.640000E+03	1.474954E-14	1.489373E-16
7.650000E+03	1.479737E-14	1.465417E-16
7.660000E+03	1.484754E-14	1.438136E-16
7.670000E+03	1.489880E-14	1.408888E-16
7.680000E+03	1.494795E-14	1.379785E-16
7.690000E+03	1.499259E-14	1.353336E-16
7.700000E+03	1.502951E-14	1.329233E-16
7.710000E+03	1.505517E-14	1.307606E-16
7.720000E+03	1.506555E-14	1.289052E-16
7.730000E+03	1.505741E-14	1.271462E-16
7.740000E+03	1.502723E-14	1.253776E-16
7.750000E+03	1.497132E-14	1.236142E-16
7.760000E+03	1.488939E-14	1.216647E-16
