#wls	flux	fluxerr
1.600000E+03	2.128623E-13	5.304338E-14
1.640000E+03	1.835774E-13	4.138123E-14
1.680000E+03	1.565268E-13	3.159931E-14
1.720000E+03	1.318661E-13	2.355996E-14
1.760000E+03	1.096982E-13	1.709971E-14
1.800000E+03	9.006160E-14	1.203539E-14
1.840000E+03	7.289760E-14	8.169399E-15
1.880000E+03	5.812751E-14	5.309161E-15
1.920000E+03	4.559891E-14	3.267098E-15
1.960000E+03	3.512319E-14	1.871753E-15
2.000000E+03	2.648639E-14	9.737740E-16
2.040000E+03	1.947309E-14	4.533464E-16
2.080000E+03	1.389008E-14	2.259707E-16
2.120000E+03	9.665867E-15	1.716541E-16
2.160000E+03	6.810118E-15	1.396829E-16
2.200000E+03	5.081190E-15	1.066054E-16
2.240000E+03	4.174082E-15	8.580694E-17
2.280000E+03	3.877538E-15	8.787576E-17
2.320000E+03	4.105088E-15	1.130499E-16
2.360000E+03	4.906263E-15	1.597726E-16
2.400000E+03	6.491217E-15	2.326855E-16
2.440000E+03	9.267723E-15	3.375084E-16
2.480000E+03	1.386824E-14	4.700657E-16
2.520000E+03	2.106135E-14	5.971699E-16
2.560000E+03	3.135600E-14	6.435125E-16
2.600000E+03	4.412980E-14	5.842298E-16
2.640000E+03	5.690230E-14	8.227853E-16
2.680000E+03	6.722963E-14	1.469769E-15
2.720000E+03	7.456650E-14	2.126700E-15
2.760000E+03	7.969768E-14	2.620505E-15
2.800000E+03	8.401918E-14	2.940105E-15
2.840000E+03	8.875119E-14	3.143378E-15
2.880000E+03	9.447163E-14	3.289768E-15
2.920000E+03	1.012854E-13	3.420724E-15
2.960000E+03	1.089761E-13	3.555279E-15
3.000000E+03	1.167770E-13	3.680232E-15
3.010000E+03	1.185847E-13	3.704714E-15
3.020000E+03	1.202740E-13	3.724396E-15
3.030000E+03	1.218117E-13	3.738244E-15
3.040000E+03	1.231704E-13	3.745467E-15
3.050000E+03	1.243155E-13	3.745164E-15
3.060000E+03	1.252181E-13	3.736708E-15
3.070000E+03	1.258575E-13	3.719783E-15
3.080000E+03	1.262143E-13	3.694171E-15
3.090000E+03	1.262806E-13	3.660009E-15
3.100000E+03	1.260640E-13	3.617860E-15
3.110000E+03	1.255725E-13	3.568235E-15
3.120000E+03	1.248328E-13	3.512103E-15
3.130000E+03	1.238768E-13	3.450471E-15
3.140000E+03	1.227549E-13	3.384762E-15
3.150000E+03	1.215090E-13	3.316080E-15
3.160000E+03	1.201943E-13	3.245838E-15
3.170000E+03	1.188670E-13	3.175418E-15
3.180000E+03	1.175793E-13	3.106035E-15
3.190000E+03	1.163759E-13	3.038621E-15
3.200000E+03	1.153075E-13	2.974173E-15
3.210000E+03	1.144085E-13	2.913158E-15
3.220000E+03	1.137139E-13	2.855972E-15
3.230000E+03	1.132487E-13	2.802695E-15
3.240000E+03	1.130366E-13	2.753358E-15
3.250000E+03	1.130945E-13	2.707839E-15
3.260000E+03	1.134350E-13	2.665980E-15
3.270000E+03	1.140653E-13	2.627571E-15
3.280000E+03	1.149930E-13	2.592498E-15
3.290000E+03	1.162208E-13	2.560588E-15
3.300000E+03	1.177470E-13	2.531562E-15
3.310000E+03	1.195711E-13	2.505108E-15
3.320000E+03	1.216869E-13	2.480667E-15
3.330000E+03	1.240906E-13	2.457606E-15
3.340000E+03	1.267740E-13	2.435093E-15
3.350000E+03	1.297304E-13	2.412237E-15
3.360000E+03	1.329530E-13	2.388055E-15
3.370000E+03	1.364344E-13	2.361462E-15
3.380000E+03	1.401651E-13	2.331270E-15
3.390000E+03	1.441308E-13	2.296222E-15
3.400000E+03	1.483161E-13	2.255219E-15
3.410000E+03	1.526937E-13	2.207366E-15
3.420000E+03	1.572390E-13	2.152505E-15
3.430000E+03	1.619138E-13	2.091353E-15
3.440000E+03	1.666815E-13	2.026142E-15
3.450000E+03	1.715037E-13	1.960976E-15
3.460000E+03	1.763392E-13	1.901918E-15
3.470000E+03	1.811461E-13	1.856350E-15
3.480000E+03	1.858558E-13	1.830325E-15
3.490000E+03	1.903475E-13	1.824391E-15
3.500000E+03	1.944714E-13	1.834321E-15
3.510000E+03	1.980662E-13	1.854451E-15
3.520000E+03	2.009719E-13	1.879219E-15
3.530000E+03	2.030158E-13	1.902858E-15
3.540000E+03	2.040506E-13	1.921542E-15
3.550000E+03	2.039499E-13	1.933167E-15
3.560000E+03	2.026201E-13	1.935619E-15
3.570000E+03	2.000125E-13	1.928054E-15
3.580000E+03	1.961495E-13	1.910783E-15
3.590000E+03	1.911310E-13	1.883690E-15
3.600000E+03	1.851133E-13	1.847595E-15
3.610000E+03	1.783219E-13	1.804584E-15
3.620000E+03	1.710300E-13	1.756585E-15
3.630000E+03	1.635271E-13	1.706305E-15
3.640000E+03	1.560978E-13	1.656855E-15
3.650000E+03	1.490095E-13	1.610450E-15
3.660000E+03	1.424893E-13	1.569209E-15
3.670000E+03	1.367125E-13	1.534774E-15
3.680000E+03	1.317849E-13	1.507011E-15
3.690000E+03	1.277738E-13	1.485537E-15
3.700000E+03	1.247063E-13	1.469990E-15
3.710000E+03	1.225650E-13	1.459291E-15
3.720000E+03	1.213097E-13	1.452445E-15
3.730000E+03	1.208953E-13	1.448767E-15
3.740000E+03	1.212631E-13	1.447252E-15
3.750000E+03	1.223535E-13	1.447245E-15
3.760000E+03	1.241107E-13	1.448546E-15
3.770000E+03	1.264860E-13	1.450985E-15
3.780000E+03	1.294351E-13	1.455031E-15
3.790000E+03	1.329212E-13	1.461942E-15
3.800000E+03	1.369175E-13	1.473303E-15
3.810000E+03	1.413951E-13	1.491260E-15
3.820000E+03	1.463228E-13	1.517566E-15
3.830000E+03	1.516481E-13	1.551646E-15
3.840000E+03	1.572969E-13	1.591999E-15
3.850000E+03	1.631810E-13	1.637037E-15
3.860000E+03	1.691884E-13	1.684321E-15
3.870000E+03	1.751872E-13	1.732061E-15
3.880000E+03	1.810347E-13	1.779604E-15
3.890000E+03	1.865807E-13	1.826399E-15
3.900000E+03	1.916801E-13	1.872919E-15
3.910000E+03	1.962053E-13	1.919456E-15
3.920000E+03	2.000668E-13	1.963461E-15
3.930000E+03	2.032112E-13	2.001397E-15
3.940000E+03	2.056243E-13	2.029447E-15
3.950000E+03	2.073401E-13	2.042410E-15
3.960000E+03	2.084278E-13	2.035850E-15
3.970000E+03	2.089773E-13	2.007742E-15
3.980000E+03	2.090986E-13	1.958482E-15
3.990000E+03	2.089029E-13	1.891510E-15
4.000000E+03	2.084946E-13	1.812737E-15
4.010000E+03	2.079473E-13	1.729065E-15
4.020000E+03	2.073078E-13	1.649255E-15
4.030000E+03	2.065832E-13	1.580934E-15
4.040000E+03	2.056995E-13	1.526090E-15
4.050000E+03	2.045493E-13	1.485423E-15
4.060000E+03	2.030252E-13	1.458688E-15
4.070000E+03	2.010374E-13	1.441305E-15
4.080000E+03	1.985177E-13	1.429135E-15
4.090000E+03	1.954321E-13	1.419407E-15
4.100000E+03	1.917881E-13	1.407517E-15
4.110000E+03	1.876260E-13	1.390581E-15
4.120000E+03	1.830083E-13	1.367700E-15
4.130000E+03	1.780063E-13	1.336902E-15
4.140000E+03	1.727061E-13	1.297895E-15
4.150000E+03	1.671980E-13	1.252006E-15
4.160000E+03	1.615752E-13	1.199777E-15
4.170000E+03	1.559328E-13	1.143138E-15
4.180000E+03	1.503687E-13	1.085200E-15
4.190000E+03	1.449843E-13	1.028133E-15
4.200000E+03	1.398804E-13	9.750057E-16
4.210000E+03	1.351538E-13	9.287332E-16
4.220000E+03	1.308966E-13	8.894549E-16
4.230000E+03	1.271926E-13	8.575162E-16
4.240000E+03	1.241064E-13	8.334919E-16
4.250000E+03	1.216699E-13	8.158713E-16
4.260000E+03	1.198985E-13	8.039601E-16
4.270000E+03	1.187852E-13	7.981428E-16
4.280000E+03	1.182878E-13	7.977094E-16
4.290000E+03	1.183438E-13	8.030370E-16
4.300000E+03	1.188692E-13	8.152707E-16
4.310000E+03	1.197360E-13	8.336488E-16
4.320000E+03	1.207961E-13	8.574701E-16
4.330000E+03	1.219102E-13	8.856579E-16
4.340000E+03	1.229499E-13	9.139139E-16
4.350000E+03	1.238143E-13	9.374992E-16
4.360000E+03	1.244373E-13	9.531506E-16
4.370000E+03	1.248060E-13	9.584031E-16
4.380000E+03	1.249606E-13	9.520066E-16
4.390000E+03	1.249803E-13	9.346453E-16
4.400000E+03	1.249704E-13	9.085042E-16
4.410000E+03	1.250530E-13	8.772775E-16
4.420000E+03	1.253297E-13	8.434585E-16
4.430000E+03	1.258510E-13	8.053720E-16
4.440000E+03	1.266407E-13	7.612864E-16
4.450000E+03	1.277027E-13	7.127739E-16
4.460000E+03	1.290135E-13	6.654003E-16
4.470000E+03	1.305265E-13	6.302389E-16
4.480000E+03	1.321734E-13	6.182555E-16
4.490000E+03	1.338411E-13	6.253691E-16
4.500000E+03	1.353877E-13	6.418530E-16
4.510000E+03	1.366869E-13	6.607028E-16
4.520000E+03	1.376661E-13	6.758535E-16
4.530000E+03	1.382957E-13	6.867836E-16
4.540000E+03	1.385594E-13	6.970658E-16
4.550000E+03	1.384353E-13	7.079796E-16
4.560000E+03	1.379103E-13	7.221968E-16
4.570000E+03	1.369823E-13	7.417443E-16
4.580000E+03	1.356500E-13	7.614590E-16
4.590000E+03	1.339235E-13	7.751482E-16
4.600000E+03	1.318464E-13	7.792929E-16
4.610000E+03	1.294982E-13	7.712849E-16
4.620000E+03	1.269837E-13	7.518026E-16
4.630000E+03	1.244198E-13	7.253399E-16
4.640000E+03	1.219362E-13	6.984962E-16
4.650000E+03	1.196516E-13	6.800561E-16
4.660000E+03	1.176567E-13	6.755335E-16
4.670000E+03	1.159720E-13	6.807572E-16
4.680000E+03	1.145861E-13	6.890595E-16
4.690000E+03	1.134762E-13	6.961535E-16
4.700000E+03	1.126003E-13	6.991580E-16
4.710000E+03	1.119123E-13	6.980501E-16
4.720000E+03	1.113586E-13	6.948606E-16
4.730000E+03	1.108728E-13	6.911926E-16
4.740000E+03	1.103868E-13	6.895642E-16
4.750000E+03	1.098266E-13	6.915187E-16
4.760000E+03	1.091131E-13	6.940979E-16
4.770000E+03	1.081664E-13	6.936541E-16
4.780000E+03	1.069337E-13	6.882482E-16
4.790000E+03	1.053896E-13	6.766436E-16
4.800000E+03	1.035356E-13	6.598444E-16
4.810000E+03	1.014086E-13	6.404268E-16
4.820000E+03	9.907979E-14	6.202324E-16
4.830000E+03	9.663799E-14	6.017774E-16
4.840000E+03	9.417786E-14	5.869186E-16
4.850000E+03	9.178355E-14	5.740583E-16
4.860000E+03	8.953031E-14	5.614983E-16
4.870000E+03	8.747829E-14	5.487701E-16
4.880000E+03	8.566090E-14	5.352428E-16
4.890000E+03	8.409583E-14	5.215360E-16
4.900000E+03	8.279400E-14	5.088821E-16
4.910000E+03	8.175079E-14	4.970523E-16
4.920000E+03	8.096043E-14	4.862762E-16
4.930000E+03	8.041820E-14	4.770449E-16
4.940000E+03	8.011934E-14	4.682034E-16
4.950000E+03	8.006384E-14	4.592260E-16
4.960000E+03	8.025065E-14	4.505515E-16
4.970000E+03	8.067557E-14	4.419859E-16
4.980000E+03	8.133204E-14	4.348283E-16
4.990000E+03	8.221081E-14	4.314585E-16
5.000000E+03	8.329031E-14	4.327333E-16
5.010000E+03	8.454608E-14	4.404661E-16
5.020000E+03	8.594395E-14	4.559556E-16
5.030000E+03	8.743724E-14	4.755609E-16
5.040000E+03	8.897399E-14	4.948250E-16
5.050000E+03	9.050204E-14	5.109005E-16
5.060000E+03	9.197315E-14	5.209789E-16
5.070000E+03	9.334414E-14	5.239525E-16
5.080000E+03	9.457954E-14	5.201571E-16
5.090000E+03	9.565223E-14	5.092497E-16
5.100000E+03	9.654424E-14	4.924774E-16
5.110000E+03	9.724413E-14	4.725144E-16
5.120000E+03	9.774053E-14	4.511928E-16
5.130000E+03	9.802619E-14	4.329865E-16
5.140000E+03	9.807555E-14	4.229472E-16
5.150000E+03	9.784136E-14	4.212388E-16
5.160000E+03	9.726408E-14	4.291498E-16
5.170000E+03	9.630140E-14	4.479431E-16
5.180000E+03	9.494261E-14	4.716291E-16
5.190000E+03	9.320316E-14	4.936855E-16
5.200000E+03	9.113365E-14	5.105706E-16
5.210000E+03	8.882928E-14	5.190250E-16
5.220000E+03	8.640930E-14	5.178680E-16
5.230000E+03	8.399096E-14	5.083094E-16
5.240000E+03	8.169268E-14	4.923495E-16
5.250000E+03	7.962075E-14	4.731792E-16
5.260000E+03	7.785674E-14	4.539071E-16
5.270000E+03	7.644681E-14	4.356150E-16
5.280000E+03	7.541647E-14	4.194431E-16
5.290000E+03	7.476335E-14	4.063795E-16
5.300000E+03	7.444702E-14	3.953648E-16
5.310000E+03	7.440489E-14	3.859421E-16
5.320000E+03	7.456728E-14	3.784361E-16
5.330000E+03	7.485372E-14	3.717275E-16
5.340000E+03	7.518195E-14	3.656032E-16
5.350000E+03	7.547638E-14	3.601974E-16
5.360000E+03	7.568011E-14	3.531489E-16
5.370000E+03	7.574788E-14	3.426343E-16
5.380000E+03	7.565491E-14	3.279099E-16
5.390000E+03	7.539933E-14	3.074180E-16
5.400000E+03	7.499505E-14	2.836495E-16
5.410000E+03	7.445101E-14	2.662532E-16
5.420000E+03	7.376515E-14	2.677216E-16
5.430000E+03	7.298298E-14	2.873887E-16
5.440000E+03	7.218615E-14	3.134548E-16
5.450000E+03	7.144525E-14	3.362216E-16
5.460000E+03	7.081110E-14	3.520488E-16
5.470000E+03	7.031230E-14	3.617773E-16
5.480000E+03	6.994507E-14	3.678589E-16
5.490000E+03	6.968236E-14	3.744831E-16
5.500000E+03	6.950052E-14	3.848721E-16
5.510000E+03	6.938652E-14	3.973497E-16
5.520000E+03	6.933633E-14	4.088735E-16
5.530000E+03	6.934558E-14	4.176302E-16
5.540000E+03	6.941661E-14	4.225652E-16
5.550000E+03	6.955207E-14	4.240475E-16
5.560000E+03	6.975302E-14	4.230353E-16
5.570000E+03	7.000991E-14	4.193579E-16
5.580000E+03	7.030902E-14	4.132399E-16
5.590000E+03	7.062982E-14	4.054414E-16
5.600000E+03	7.094395E-14	3.959345E-16
5.610000E+03	7.121614E-14	3.856332E-16
5.620000E+03	7.141463E-14	3.759520E-16
5.630000E+03	7.151421E-14	3.665988E-16
5.640000E+03	7.149438E-14	3.579657E-16
5.650000E+03	7.134242E-14	3.508584E-16
5.660000E+03	7.105483E-14	3.439643E-16
5.670000E+03	7.063736E-14	3.368521E-16
5.680000E+03	7.010286E-14	3.301350E-16
5.690000E+03	6.947228E-14	3.228993E-16
5.700000E+03	6.877217E-14	3.154990E-16
5.710000E+03	6.803275E-14	3.091324E-16
5.720000E+03	6.728908E-14	3.028550E-16
5.730000E+03	6.657435E-14	2.967268E-16
5.740000E+03	6.592021E-14	2.917812E-16
5.750000E+03	6.534770E-14	2.870590E-16
5.760000E+03	6.487196E-14	2.828741E-16
5.770000E+03	6.450422E-14	2.807545E-16
5.780000E+03	6.424629E-14	2.803313E-16
5.790000E+03	6.409349E-14	2.826752E-16
5.800000E+03	6.403579E-14	2.898643E-16
5.810000E+03	6.405360E-14	3.010418E-16
5.820000E+03	6.411982E-14	3.157854E-16
5.830000E+03	6.421173E-14	3.344149E-16
5.840000E+03	6.431093E-14	3.546300E-16
5.850000E+03	6.440257E-14	3.741471E-16
5.860000E+03	6.447513E-14	3.917788E-16
5.870000E+03	6.451848E-14	4.057836E-16
5.880000E+03	6.452743E-14	4.151224E-16
5.890000E+03	6.449638E-14	4.194326E-16
5.900000E+03	6.442302E-14	4.176558E-16
5.910000E+03	6.430613E-14	4.095008E-16
5.920000E+03	6.414425E-14	3.959272E-16
5.930000E+03	6.393599E-14	3.783260E-16
5.940000E+03	6.367620E-14	3.593593E-16
5.950000E+03	6.335560E-14	3.417448E-16
5.960000E+03	6.295639E-14	3.260554E-16
5.970000E+03	6.245599E-14	3.130280E-16
5.980000E+03	6.182936E-14	3.033480E-16
5.990000E+03	6.105290E-14	2.954431E-16
6.000000E+03	6.010235E-14	2.885566E-16
6.010000E+03	5.896158E-14	2.830812E-16
6.020000E+03	5.761294E-14	2.781283E-16
6.030000E+03	5.605124E-14	2.738765E-16
6.040000E+03	5.429328E-14	2.710127E-16
6.050000E+03	5.238113E-14	2.680874E-16
6.060000E+03	5.037503E-14	2.641428E-16
6.070000E+03	4.834709E-14	2.594348E-16
6.080000E+03	4.638425E-14	2.539262E-16
6.090000E+03	4.457035E-14	2.483644E-16
6.100000E+03	4.298060E-14	2.438993E-16
6.110000E+03	4.167350E-14	2.406009E-16
6.120000E+03	4.069528E-14	2.386378E-16
6.130000E+03	4.007383E-14	2.381815E-16
6.140000E+03	3.980998E-14	2.382537E-16
6.150000E+03	3.989025E-14	2.380073E-16
6.160000E+03	4.029459E-14	2.373785E-16
6.170000E+03	4.099204E-14	2.366678E-16
6.180000E+03	4.194147E-14	2.369794E-16
6.190000E+03	4.309742E-14	2.393146E-16
6.200000E+03	4.440675E-14	2.429014E-16
6.210000E+03	4.581008E-14	2.466929E-16
6.220000E+03	4.724466E-14	2.501322E-16
6.230000E+03	4.865039E-14	2.524220E-16
6.240000E+03	4.997059E-14	2.538212E-16
6.250000E+03	5.115290E-14	2.552311E-16
6.260000E+03	5.215702E-14	2.563177E-16
6.270000E+03	5.295221E-14	2.573470E-16
6.280000E+03	5.352099E-14	2.590262E-16
6.290000E+03	5.386227E-14	2.602801E-16
6.300000E+03	5.398667E-14	2.606247E-16
6.310000E+03	5.391239E-14	2.605077E-16
6.320000E+03	5.366357E-14	2.592161E-16
6.330000E+03	5.326584E-14	2.568079E-16
6.340000E+03	5.274792E-14	2.537199E-16
6.350000E+03	5.214039E-14	2.484566E-16
6.360000E+03	5.147290E-14	2.401125E-16
6.370000E+03	5.078109E-14	2.292443E-16
6.380000E+03	5.010639E-14	2.166543E-16
6.390000E+03	4.948834E-14	2.053406E-16
6.400000E+03	4.896123E-14	2.002675E-16
6.410000E+03	4.854370E-14	2.033522E-16
6.420000E+03	4.820771E-14	2.113001E-16
6.430000E+03	4.791753E-14	2.206590E-16
6.440000E+03	4.764698E-14	2.286321E-16
6.450000E+03	4.737712E-14	2.346220E-16
6.460000E+03	4.709549E-14	2.393383E-16
6.470000E+03	4.679918E-14	2.425227E-16
6.480000E+03	4.649163E-14	2.443927E-16
6.490000E+03	4.617529E-14	2.456654E-16
6.500000E+03	4.585574E-14	2.460766E-16
6.510000E+03	4.553690E-14	2.457924E-16
6.520000E+03	4.522044E-14	2.454342E-16
6.530000E+03	4.490663E-14	2.447127E-16
6.540000E+03	4.459360E-14	2.437896E-16
6.550000E+03	4.427943E-14	2.432397E-16
6.560000E+03	4.396260E-14	2.426682E-16
6.570000E+03	4.364273E-14	2.420928E-16
6.580000E+03	4.331882E-14	2.419435E-16
6.590000E+03	4.299189E-14	2.417525E-16
6.600000E+03	4.266431E-14	2.414569E-16
6.610000E+03	4.233775E-14	2.414097E-16
6.620000E+03	4.201279E-14	2.411415E-16
6.630000E+03	4.169117E-14	2.405885E-16
6.640000E+03	4.137260E-14	2.401250E-16
6.650000E+03	4.105770E-14	2.394589E-16
6.660000E+03	4.074384E-14	2.386913E-16
6.670000E+03	4.042978E-14	2.382777E-16
6.680000E+03	4.011498E-14	2.378895E-16
6.690000E+03	3.979851E-14	2.375085E-16
6.700000E+03	3.947939E-14	2.374493E-16
6.710000E+03	3.915812E-14	2.373255E-16
6.720000E+03	3.883653E-14	2.370721E-16
6.730000E+03	3.851520E-14	2.369627E-16
6.740000E+03	3.819561E-14	2.366758E-16
6.750000E+03	3.787727E-14	2.361979E-16
6.760000E+03	3.756236E-14	2.358649E-16
6.770000E+03	3.724964E-14	2.354441E-16
6.780000E+03	3.694067E-14	2.350262E-16
6.790000E+03	3.663477E-14	2.349689E-16
6.800000E+03	3.633320E-14	2.350635E-16
6.810000E+03	3.603710E-14	2.353436E-16
6.820000E+03	3.574737E-14	2.360771E-16
6.830000E+03	3.546605E-14	2.369585E-16
6.840000E+03	3.519419E-14	2.378621E-16
6.850000E+03	3.493410E-14	2.388776E-16
6.860000E+03	3.468507E-14	2.395580E-16
6.870000E+03	3.444881E-14	2.396905E-16
6.880000E+03	3.422476E-14	2.393847E-16
6.890000E+03	3.401151E-14	2.385063E-16
6.900000E+03	3.380683E-14	2.372248E-16
6.910000E+03	3.361071E-14	2.359473E-16
6.920000E+03	3.341972E-14	2.346435E-16
6.930000E+03	3.323479E-14	2.334754E-16
6.940000E+03	3.305430E-14	2.327023E-16
6.950000E+03	3.287815E-14	2.320858E-16
6.960000E+03	3.270745E-14	2.315227E-16
6.970000E+03	3.254251E-14	2.310779E-16
6.980000E+03	3.238395E-14	2.304381E-16
6.990000E+03	3.223269E-14	2.294976E-16
7.000000E+03	3.208973E-14	2.283928E-16
7.010000E+03	3.195529E-14	2.269734E-16
7.020000E+03	3.182898E-14	2.253332E-16
7.030000E+03	3.171226E-14	2.237913E-16
7.040000E+03	3.160246E-14	2.222884E-16
7.050000E+03	3.150064E-14	2.209914E-16
7.060000E+03	3.140399E-14	2.201792E-16
7.070000E+03	3.131165E-14	2.196728E-16
7.080000E+03	3.122083E-14	2.194325E-16
7.090000E+03	3.112951E-14	2.196150E-16
7.100000E+03	3.103555E-14	2.200054E-16
7.110000E+03	3.093519E-14	2.205766E-16
7.120000E+03	3.082678E-14	2.215158E-16
7.130000E+03	3.070675E-14	2.226240E-16
7.140000E+03	3.057318E-14	2.238655E-16
7.150000E+03	3.042441E-14	2.253329E-16
7.160000E+03	3.025859E-14	2.266832E-16
7.170000E+03	3.007606E-14	2.276804E-16
7.180000E+03	2.987664E-14	2.282394E-16
7.190000E+03	2.966379E-14	2.280208E-16
7.200000E+03	2.944018E-14	2.268566E-16
7.210000E+03	2.920907E-14	2.248508E-16
7.220000E+03	2.897499E-14	2.220450E-16
7.230000E+03	2.874198E-14	2.187174E-16
7.240000E+03	2.851299E-14	2.152568E-16
7.250000E+03	2.829007E-14	2.117189E-16
7.260000E+03	2.807462E-14	2.082487E-16
7.270000E+03	2.786723E-14	2.050372E-16
7.280000E+03	2.766664E-14	2.018650E-16
7.290000E+03	2.746998E-14	1.986285E-16
7.300000E+03	2.727713E-14	1.954388E-16
7.310000E+03	2.708664E-14	1.921919E-16
7.320000E+03	2.689770E-14	1.890157E-16
7.330000E+03	2.671079E-14	1.861828E-16
7.340000E+03	2.652409E-14	1.835676E-16
7.350000E+03	2.633690E-14	1.811835E-16
7.360000E+03	2.614787E-14	1.791345E-16
7.370000E+03	2.595289E-14	1.770689E-16
7.380000E+03	2.574856E-14	1.747855E-16
7.390000E+03	2.552989E-14	1.722976E-16
7.400000E+03	2.529475E-14	1.694219E-16
7.410000E+03	2.504009E-14	1.662217E-16
7.420000E+03	2.476667E-14	1.629867E-16
7.430000E+03	2.447656E-14	1.597111E-16
7.440000E+03	2.417456E-14	1.565804E-16
7.450000E+03	2.386767E-14	1.538519E-16
7.460000E+03	2.356276E-14	1.512620E-16
7.470000E+03	2.326968E-14	1.486743E-16
7.480000E+03	2.299540E-14	1.461342E-16
7.490000E+03	2.274698E-14	1.434254E-16
7.500000E+03	2.252917E-14	1.405782E-16
7.510000E+03	2.234694E-14	1.378630E-16
7.520000E+03	2.219955E-14	1.352435E-16
7.530000E+03	2.208524E-14	1.329457E-16
7.540000E+03	2.200202E-14	1.313679E-16
7.550000E+03	2.194536E-14	1.304445E-16
7.560000E+03	2.191142E-14	1.302918E-16
7.570000E+03	2.189491E-14	1.311267E-16
7.580000E+03	2.189188E-14	1.325770E-16
7.590000E+03	2.189908E-14	1.343531E-16
7.600000E+03	2.191324E-14	1.363325E-16
7.610000E+03	2.193266E-14	1.380017E-16
7.620000E+03	2.195554E-14	1.390057E-16
7.630000E+03	2.198228E-14	1.392876E-16
7.640000E+03	2.201152E-14	1.386498E-16
7.650000E+03	2.204455E-14	1.371955E-16
7.660000E+03	2.208126E-14	1.352820E-16
7.670000E+03	2.212353E-14	1.331065E-16
7.680000E+03	2.217167E-14	1.311126E-16
7.690000E+03	2.222708E-14	1.298213E-16
7.700000E+03	2.228650E-14	1.291417E-16
7.710000E+03	2.234619E-14	1.290612E-16
7.720000E+03	2.240178E-14	1.296734E-16
7.730000E+03	2.244671E-14	1.305469E-16
7.740000E+03	2.247440E-14	1.314110E-16
7.750000E+03	2.247880E-14	1.322741E-16
7.760000E+03	2.245592E-14	1.329052E-16
