#wls	flux	fluxerr
1.600000E+03	3.163563E-13	7.670344E-14
1.640000E+03	2.623350E-13	5.752386E-14
1.680000E+03	2.137439E-13	4.197968E-14
1.720000E+03	1.709311E-13	2.972892E-14
1.760000E+03	1.340661E-13	2.037008E-14
1.800000E+03	1.030671E-13	1.345718E-14
1.840000E+03	7.764862E-14	8.536531E-15
1.880000E+03	5.735794E-14	5.174872E-15
1.920000E+03	4.159779E-14	2.980098E-15
1.960000E+03	2.970443E-14	1.620090E-15
2.000000E+03	2.098456E-14	8.294557E-16
2.040000E+03	1.476500E-14	4.110951E-16
2.080000E+03	1.044972E-14	2.267000E-16
2.120000E+03	7.539320E-15	1.611510E-16
2.160000E+03	5.652333E-15	1.264229E-16
2.200000E+03	4.496055E-15	9.866420E-17
2.240000E+03	3.868149E-15	8.203000E-17
2.280000E+03	3.648848E-15	8.512774E-17
2.320000E+03	3.784324E-15	1.076652E-16
2.360000E+03	4.283697E-15	1.453995E-16
2.400000E+03	5.222337E-15	1.979384E-16
2.440000E+03	6.746319E-15	2.653597E-16
2.480000E+03	9.075510E-15	3.433296E-16
2.520000E+03	1.249918E-14	4.189125E-16
2.560000E+03	1.735358E-14	4.751924E-16
2.600000E+03	2.397399E-14	5.401404E-16
2.640000E+03	3.261781E-14	7.991494E-16
2.680000E+03	4.332815E-14	1.444354E-15
2.720000E+03	5.581176E-14	2.492039E-15
2.760000E+03	6.943779E-14	3.894848E-15
2.800000E+03	8.329617E-14	5.555314E-15
2.840000E+03	9.633250E-14	7.322187E-15
2.880000E+03	1.075293E-13	9.011315E-15
2.920000E+03	1.160560E-13	1.043842E-14
2.960000E+03	1.214131E-13	1.145565E-14
3.000000E+03	1.234447E-13	1.197298E-14
3.010000E+03	1.234499E-13	1.202037E-14
3.020000E+03	1.232628E-13	1.203513E-14
3.030000E+03	1.228924E-13	1.201804E-14
3.040000E+03	1.223454E-13	1.196978E-14
3.050000E+03	1.216294E-13	1.189126E-14
3.060000E+03	1.207559E-13	1.178389E-14
3.070000E+03	1.197370E-13	1.164923E-14
3.080000E+03	1.185795E-13	1.148845E-14
3.090000E+03	1.172992E-13	1.130366E-14
3.100000E+03	1.159042E-13	1.109628E-14
3.110000E+03	1.144106E-13	1.086856E-14
3.120000E+03	1.128267E-13	1.062207E-14
3.130000E+03	1.111686E-13	1.035912E-14
3.140000E+03	1.094449E-13	1.008133E-14
3.150000E+03	1.076689E-13	9.790758E-15
3.160000E+03	1.058534E-13	9.489414E-15
3.170000E+03	1.040065E-13	9.178857E-15
3.180000E+03	1.021425E-13	8.861156E-15
3.190000E+03	1.002708E-13	8.537907E-15
3.200000E+03	9.840038E-14	8.210626E-15
3.210000E+03	9.654176E-14	7.880892E-15
3.220000E+03	9.470289E-14	7.550016E-15
3.230000E+03	9.289301E-14	7.219340E-15
3.240000E+03	9.111901E-14	6.889954E-15
3.250000E+03	8.938737E-14	6.562844E-15
3.260000E+03	8.770565E-14	6.239009E-15
3.270000E+03	8.608081E-14	5.919325E-15
3.280000E+03	8.451640E-14	5.604360E-15
3.290000E+03	8.301721E-14	5.294720E-15
3.300000E+03	8.159042E-14	4.991093E-15
3.310000E+03	8.023873E-14	4.693835E-15
3.320000E+03	7.896737E-14	4.403410E-15
3.330000E+03	7.778003E-14	4.120160E-15
3.340000E+03	7.667923E-14	3.844355E-15
3.350000E+03	7.566983E-14	3.576393E-15
3.360000E+03	7.475661E-14	3.316683E-15
3.370000E+03	7.394115E-14	3.065556E-15
3.380000E+03	7.322855E-14	2.823613E-15
3.390000E+03	7.262299E-14	2.591579E-15
3.400000E+03	7.212893E-14	2.370443E-15
3.410000E+03	7.174929E-14	2.161504E-15
3.420000E+03	7.149128E-14	1.966691E-15
3.430000E+03	7.135872E-14	1.788454E-15
3.440000E+03	7.135696E-14	1.630033E-15
3.450000E+03	7.149313E-14	1.495398E-15
3.460000E+03	7.176758E-14	1.388598E-15
3.470000E+03	7.217617E-14	1.312887E-15
3.480000E+03	7.271066E-14	1.269726E-15
3.490000E+03	7.336046E-14	1.257731E-15
3.500000E+03	7.411020E-14	1.272659E-15
3.510000E+03	7.494150E-14	1.308652E-15
3.520000E+03	7.583158E-14	1.359451E-15
3.530000E+03	7.675813E-14	1.419229E-15
3.540000E+03	7.769465E-14	1.483115E-15
3.550000E+03	7.861328E-14	1.547284E-15
3.560000E+03	7.948883E-14	1.608723E-15
3.570000E+03	8.029818E-14	1.665274E-15
3.580000E+03	8.101810E-14	1.715442E-15
3.590000E+03	8.163073E-14	1.758210E-15
3.600000E+03	8.212218E-14	1.793098E-15
3.610000E+03	8.248091E-14	1.820056E-15
3.620000E+03	8.270417E-14	1.839345E-15
3.630000E+03	8.279110E-14	1.851492E-15
3.640000E+03	8.274825E-14	1.857252E-15
3.650000E+03	8.258664E-14	1.857187E-15
3.660000E+03	8.232290E-14	1.851966E-15
3.670000E+03	8.197821E-14	1.842390E-15
3.680000E+03	8.157823E-14	1.829159E-15
3.690000E+03	8.115377E-14	1.813123E-15
3.700000E+03	8.073560E-14	1.795163E-15
3.710000E+03	8.035892E-14	1.776074E-15
3.720000E+03	8.006172E-14	1.756739E-15
3.730000E+03	7.987996E-14	1.737997E-15
3.740000E+03	7.984940E-14	1.720433E-15
3.750000E+03	8.000478E-14	1.704657E-15
3.760000E+03	8.038036E-14	1.691447E-15
3.770000E+03	8.100776E-14	1.681594E-15
3.780000E+03	8.191680E-14	1.676077E-15
3.790000E+03	8.313710E-14	1.676002E-15
3.800000E+03	8.468808E-14	1.682127E-15
3.810000E+03	8.658518E-14	1.695251E-15
3.820000E+03	8.883698E-14	1.716038E-15
3.830000E+03	9.143078E-14	1.744279E-15
3.840000E+03	9.434181E-14	1.779515E-15
3.850000E+03	9.753446E-14	1.821130E-15
3.860000E+03	1.009586E-13	1.867866E-15
3.870000E+03	1.045493E-13	1.918267E-15
3.880000E+03	1.082344E-13	1.970909E-15
3.890000E+03	1.119370E-13	2.024039E-15
3.900000E+03	1.155738E-13	2.075961E-15
3.910000E+03	1.190637E-13	2.125118E-15
3.920000E+03	1.223391E-13	2.169698E-15
3.930000E+03	1.253414E-13	2.208070E-15
3.940000E+03	1.280230E-13	2.238816E-15
3.950000E+03	1.303672E-13	2.260440E-15
3.960000E+03	1.323700E-13	2.271782E-15
3.970000E+03	1.340445E-13	2.272411E-15
3.980000E+03	1.354152E-13	2.262196E-15
3.990000E+03	1.365186E-13	2.241812E-15
4.000000E+03	1.373946E-13	2.212545E-15
4.010000E+03	1.380872E-13	2.175747E-15
4.020000E+03	1.386374E-13	2.133238E-15
4.030000E+03	1.390867E-13	2.087177E-15
4.040000E+03	1.394600E-13	2.039004E-15
4.050000E+03	1.397799E-13	1.990374E-15
4.060000E+03	1.400615E-13	1.942759E-15
4.070000E+03	1.403102E-13	1.896306E-15
4.080000E+03	1.405234E-13	1.851057E-15
4.090000E+03	1.407013E-13	1.807241E-15
4.100000E+03	1.408372E-13	1.764160E-15
4.110000E+03	1.409229E-13	1.721484E-15
4.120000E+03	1.409486E-13	1.679192E-15
4.130000E+03	1.408963E-13	1.636336E-15
4.140000E+03	1.407444E-13	1.592469E-15
4.150000E+03	1.404688E-13	1.547700E-15
4.160000E+03	1.400328E-13	1.501321E-15
4.170000E+03	1.394006E-13	1.453447E-15
4.180000E+03	1.385366E-13	1.405000E-15
4.190000E+03	1.374089E-13	1.356281E-15
4.200000E+03	1.359940E-13	1.308174E-15
4.210000E+03	1.342762E-13	1.261564E-15
4.220000E+03	1.322585E-13	1.215682E-15
4.230000E+03	1.299541E-13	1.169794E-15
4.240000E+03	1.273916E-13	1.123730E-15
4.250000E+03	1.246087E-13	1.076797E-15
4.260000E+03	1.216541E-13	1.029177E-15
4.270000E+03	1.185826E-13	9.816750E-16
4.280000E+03	1.154520E-13	9.343332E-16
4.290000E+03	1.123233E-13	8.879142E-16
4.300000E+03	1.092571E-13	8.437054E-16
4.310000E+03	1.063044E-13	8.020269E-16
4.320000E+03	1.035198E-13	7.639042E-16
4.330000E+03	1.009504E-13	7.306025E-16
4.340000E+03	9.863427E-14	7.018212E-16
4.350000E+03	9.661296E-14	6.775893E-16
4.360000E+03	9.493019E-14	6.582586E-16
4.370000E+03	9.363370E-14	6.427231E-16
4.380000E+03	9.279693E-14	6.298431E-16
4.390000E+03	9.250169E-14	6.192893E-16
4.400000E+03	9.281508E-14	6.107111E-16
4.410000E+03	9.379621E-14	6.048940E-16
4.420000E+03	9.548554E-14	6.023749E-16
4.430000E+03	9.787647E-14	6.006575E-16
4.440000E+03	1.009346E-13	5.974259E-16
4.450000E+03	1.046100E-13	5.927785E-16
4.460000E+03	1.088350E-13	5.891278E-16
4.470000E+03	1.135224E-13	5.932829E-16
4.480000E+03	1.185597E-13	6.140272E-16
4.490000E+03	1.238225E-13	6.511264E-16
4.500000E+03	1.291654E-13	6.997663E-16
4.510000E+03	1.344343E-13	7.554944E-16
4.520000E+03	1.394812E-13	8.123844E-16
4.530000E+03	1.441671E-13	8.667545E-16
4.540000E+03	1.483554E-13	9.171269E-16
4.550000E+03	1.519217E-13	9.601988E-16
4.560000E+03	1.547609E-13	9.937803E-16
4.570000E+03	1.567829E-13	1.017643E-15
4.580000E+03	1.579163E-13	1.031078E-15
4.590000E+03	1.581131E-13	1.035688E-15
4.600000E+03	1.573624E-13	1.035471E-15
4.610000E+03	1.556806E-13	1.033660E-15
4.620000E+03	1.531207E-13	1.034508E-15
4.630000E+03	1.497693E-13	1.040859E-15
4.640000E+03	1.457321E-13	1.049602E-15
4.650000E+03	1.411336E-13	1.056281E-15
4.660000E+03	1.361186E-13	1.057689E-15
4.670000E+03	1.308328E-13	1.050644E-15
4.680000E+03	1.254166E-13	1.033841E-15
4.690000E+03	1.200068E-13	1.008392E-15
4.700000E+03	1.147227E-13	9.765478E-16
4.710000E+03	1.096696E-13	9.417252E-16
4.720000E+03	1.049323E-13	9.073699E-16
4.730000E+03	1.005714E-13	8.754952E-16
4.740000E+03	9.662975E-14	8.474820E-16
4.750000E+03	9.312645E-14	8.235337E-16
4.760000E+03	9.005691E-14	8.016574E-16
4.770000E+03	8.740280E-14	7.796159E-16
4.780000E+03	8.514343E-14	7.561497E-16
4.790000E+03	8.325520E-14	7.307973E-16
4.800000E+03	8.171667E-14	7.043049E-16
4.810000E+03	8.051138E-14	6.783763E-16
4.820000E+03	7.962657E-14	6.550014E-16
4.830000E+03	7.905528E-14	6.367662E-16
4.840000E+03	7.878417E-14	6.257862E-16
4.850000E+03	7.879033E-14	6.221715E-16
4.860000E+03	7.903633E-14	6.251347E-16
4.870000E+03	7.946997E-14	6.332989E-16
4.880000E+03	8.000578E-14	6.437694E-16
4.890000E+03	8.054094E-14	6.535622E-16
4.900000E+03	8.097361E-14	6.605336E-16
4.910000E+03	8.121163E-14	6.631369E-16
4.920000E+03	8.118137E-14	6.608885E-16
4.930000E+03	8.084613E-14	6.538649E-16
4.940000E+03	8.022683E-14	6.417452E-16
4.950000E+03	7.938346E-14	6.247877E-16
4.960000E+03	7.840168E-14	6.042268E-16
4.970000E+03	7.739592E-14	5.817694E-16
4.980000E+03	7.648589E-14	5.598401E-16
4.990000E+03	7.578675E-14	5.407261E-16
5.000000E+03	7.539337E-14	5.251916E-16
5.010000E+03	7.538660E-14	5.138030E-16
5.020000E+03	7.582384E-14	5.069998E-16
5.030000E+03	7.672751E-14	5.039917E-16
5.040000E+03	7.809504E-14	5.043560E-16
5.050000E+03	7.991080E-14	5.082464E-16
5.060000E+03	8.213967E-14	5.150278E-16
5.070000E+03	8.473092E-14	5.247324E-16
5.080000E+03	8.762313E-14	5.378030E-16
5.090000E+03	9.075031E-14	5.531524E-16
5.100000E+03	9.403429E-14	5.699315E-16
5.110000E+03	9.739322E-14	5.877818E-16
5.120000E+03	1.007432E-13	6.049187E-16
5.130000E+03	1.039961E-13	6.202320E-16
5.140000E+03	1.070592E-13	6.337659E-16
5.150000E+03	1.098417E-13	6.449863E-16
5.160000E+03	1.122539E-13	6.549592E-16
5.170000E+03	1.142067E-13	6.660845E-16
5.180000E+03	1.156164E-13	6.792198E-16
5.190000E+03	1.164134E-13	6.958708E-16
5.200000E+03	1.165566E-13	7.169917E-16
5.210000E+03	1.160445E-13	7.391084E-16
5.220000E+03	1.149150E-13	7.581025E-16
5.230000E+03	1.132441E-13	7.713745E-16
5.240000E+03	1.111423E-13	7.765561E-16
5.250000E+03	1.087422E-13	7.730874E-16
5.260000E+03	1.061799E-13	7.623851E-16
5.270000E+03	1.035884E-13	7.463861E-16
5.280000E+03	1.010837E-13	7.276442E-16
5.290000E+03	9.875719E-14	7.078224E-16
5.300000E+03	9.665800E-14	6.856602E-16
5.310000E+03	9.480877E-14	6.592647E-16
5.320000E+03	9.321960E-14	6.275056E-16
5.330000E+03	9.187851E-14	5.896560E-16
5.340000E+03	9.076598E-14	5.465648E-16
5.350000E+03	8.985910E-14	5.008095E-16
5.360000E+03	8.912976E-14	4.560764E-16
5.370000E+03	8.855022E-14	4.176188E-16
5.380000E+03	8.808559E-14	3.878949E-16
5.390000E+03	8.767170E-14	3.620764E-16
5.400000E+03	8.724406E-14	3.371629E-16
5.410000E+03	8.675546E-14	3.196250E-16
5.420000E+03	8.618406E-14	3.230161E-16
5.430000E+03	8.556293E-14	3.522465E-16
5.440000E+03	8.496118E-14	3.986441E-16
5.450000E+03	8.442994E-14	4.488904E-16
5.460000E+03	8.401370E-14	4.928547E-16
5.470000E+03	8.374832E-14	5.254259E-16
5.480000E+03	8.365373E-14	5.445207E-16
5.490000E+03	8.373503E-14	5.504387E-16
5.500000E+03	8.398507E-14	5.453180E-16
5.510000E+03	8.437605E-14	5.323753E-16
5.520000E+03	8.486492E-14	5.161769E-16
5.530000E+03	8.539536E-14	5.007748E-16
5.540000E+03	8.589489E-14	4.871447E-16
5.550000E+03	8.628420E-14	4.757513E-16
5.560000E+03	8.649752E-14	4.672265E-16
5.570000E+03	8.649162E-14	4.606795E-16
5.580000E+03	8.624303E-14	4.563443E-16
5.590000E+03	8.574333E-14	4.549915E-16
5.600000E+03	8.500491E-14	4.548531E-16
5.610000E+03	8.404848E-14	4.547650E-16
5.620000E+03	8.290360E-14	4.547147E-16
5.630000E+03	8.160668E-14	4.533782E-16
5.640000E+03	8.019592E-14	4.504539E-16
5.650000E+03	7.871481E-14	4.467553E-16
5.660000E+03	7.721329E-14	4.420435E-16
5.670000E+03	7.574390E-14	4.368666E-16
5.680000E+03	7.435725E-14	4.323678E-16
5.690000E+03	7.311260E-14	4.284037E-16
5.700000E+03	7.206474E-14	4.253079E-16
5.710000E+03	7.125915E-14	4.239166E-16
5.720000E+03	7.073773E-14	4.239552E-16
5.730000E+03	7.053104E-14	4.256110E-16
5.740000E+03	7.065758E-14	4.295388E-16
5.750000E+03	7.111728E-14	4.352597E-16
5.760000E+03	7.189678E-14	4.427146E-16
5.770000E+03	7.296805E-14	4.523395E-16
5.780000E+03	7.428189E-14	4.635605E-16
5.790000E+03	7.577247E-14	4.764039E-16
5.800000E+03	7.736366E-14	4.917649E-16
5.810000E+03	7.896876E-14	5.099286E-16
5.820000E+03	8.049378E-14	5.318224E-16
5.830000E+03	8.185474E-14	5.585367E-16
5.840000E+03	8.298784E-14	5.890333E-16
5.850000E+03	8.384632E-14	6.214851E-16
5.860000E+03	8.440583E-14	6.535502E-16
5.870000E+03	8.466717E-14	6.810779E-16
5.880000E+03	8.464955E-14	6.999087E-16
5.890000E+03	8.438106E-14	7.072747E-16
5.900000E+03	8.389807E-14	7.018161E-16
5.910000E+03	8.323738E-14	6.839177E-16
5.920000E+03	8.243347E-14	6.557029E-16
5.930000E+03	8.151811E-14	6.206425E-16
5.940000E+03	8.051595E-14	5.834131E-16
5.950000E+03	7.943901E-14	5.483171E-16
5.960000E+03	7.827504E-14	5.174555E-16
5.970000E+03	7.700343E-14	4.923784E-16
5.980000E+03	7.558935E-14	4.738065E-16
5.990000E+03	7.398510E-14	4.601775E-16
6.000000E+03	7.214101E-14	4.503413E-16
6.010000E+03	7.001105E-14	4.442431E-16
6.020000E+03	6.755672E-14	4.413581E-16
6.030000E+03	6.476071E-14	4.417154E-16
6.040000E+03	6.165123E-14	4.449821E-16
6.050000E+03	5.831063E-14	4.486554E-16
6.060000E+03	5.484880E-14	4.501423E-16
6.070000E+03	5.138804E-14	4.479339E-16
6.080000E+03	4.805383E-14	4.411810E-16
6.090000E+03	4.495778E-14	4.299727E-16
6.100000E+03	4.218856E-14	4.152074E-16
6.110000E+03	3.980980E-14	3.980409E-16
6.120000E+03	3.786739E-14	3.797368E-16
6.130000E+03	3.638820E-14	3.613593E-16
6.140000E+03	3.538436E-14	3.435300E-16
6.150000E+03	3.486148E-14	3.266130E-16
6.160000E+03	3.481755E-14	3.106977E-16
6.170000E+03	3.523837E-14	2.955115E-16
6.180000E+03	3.610202E-14	2.808666E-16
6.190000E+03	3.738046E-14	2.669982E-16
6.200000E+03	3.902483E-14	2.547034E-16
6.210000E+03	4.096914E-14	2.458788E-16
6.220000E+03	4.312499E-14	2.424635E-16
6.230000E+03	4.538318E-14	2.445159E-16
6.240000E+03	4.761671E-14	2.515195E-16
6.250000E+03	4.970035E-14	2.627119E-16
6.260000E+03	5.154219E-14	2.756965E-16
6.270000E+03	5.307942E-14	2.884482E-16
6.280000E+03	5.426999E-14	2.999460E-16
6.290000E+03	5.510297E-14	3.087287E-16
6.300000E+03	5.558715E-14	3.141889E-16
6.310000E+03	5.574726E-14	3.166576E-16
6.320000E+03	5.561706E-14	3.158926E-16
6.330000E+03	5.524036E-14	3.121020E-16
6.340000E+03	5.466516E-14	3.055321E-16
6.350000E+03	5.394450E-14	2.950378E-16
6.360000E+03	5.313282E-14	2.799632E-16
6.370000E+03	5.228946E-14	2.612198E-16
6.380000E+03	5.147597E-14	2.411650E-16
6.390000E+03	5.075329E-14	2.253910E-16
6.400000E+03	5.017299E-14	2.221086E-16
6.410000E+03	4.975956E-14	2.347762E-16
6.420000E+03	4.949131E-14	2.574967E-16
6.430000E+03	4.932743E-14	2.836412E-16
6.440000E+03	4.923292E-14	3.087236E-16
6.450000E+03	4.917378E-14	3.307291E-16
6.460000E+03	4.912297E-14	3.492299E-16
6.470000E+03	4.905772E-14	3.640901E-16
6.480000E+03	4.896072E-14	3.756771E-16
6.490000E+03	4.881950E-14	3.846840E-16
6.500000E+03	4.862364E-14	3.914504E-16
6.510000E+03	4.836511E-14	3.964232E-16
6.520000E+03	4.804091E-14	4.001584E-16
6.530000E+03	4.764993E-14	4.027799E-16
6.540000E+03	4.719213E-14	4.044698E-16
6.550000E+03	4.667283E-14	4.055368E-16
6.560000E+03	4.609637E-14	4.059207E-16
6.570000E+03	4.547034E-14	4.056841E-16
6.580000E+03	4.480404E-14	4.050305E-16
6.590000E+03	4.410550E-14	4.038827E-16
6.600000E+03	4.338377E-14	4.022912E-16
6.610000E+03	4.264846E-14	4.004427E-16
6.620000E+03	4.190631E-14	3.982777E-16
6.630000E+03	4.116629E-14	3.958696E-16
6.640000E+03	4.043475E-14	3.933799E-16
6.650000E+03	3.971699E-14	3.907651E-16
6.660000E+03	3.901963E-14	3.880891E-16
6.670000E+03	3.834585E-14	3.854795E-16
6.680000E+03	3.770031E-14	3.829082E-16
6.690000E+03	3.708430E-14	3.803962E-16
6.700000E+03	3.650078E-14	3.780657E-16
6.710000E+03	3.594959E-14	3.758551E-16
6.720000E+03	3.542978E-14	3.737667E-16
6.730000E+03	3.494150E-14	3.718878E-16
6.740000E+03	3.448203E-14	3.701384E-16
6.750000E+03	3.404872E-14	3.685032E-16
6.760000E+03	3.363858E-14	3.670297E-16
6.770000E+03	3.324816E-14	3.656371E-16
6.780000E+03	3.287452E-14	3.643076E-16
6.790000E+03	3.251316E-14	3.630635E-16
6.800000E+03	3.216210E-14	3.618364E-16
6.810000E+03	3.181801E-14	3.605915E-16
6.820000E+03	3.147865E-14	3.593547E-16
6.830000E+03	3.114283E-14	3.580529E-16
6.840000E+03	3.080876E-14	3.566506E-16
6.850000E+03	3.047575E-14	3.551724E-16
6.860000E+03	3.014356E-14	3.535525E-16
6.870000E+03	2.981295E-14	3.517860E-16
6.880000E+03	2.948394E-14	3.499156E-16
6.890000E+03	2.915730E-14	3.479174E-16
6.900000E+03	2.883410E-14	3.458184E-16
6.910000E+03	2.851607E-14	3.436899E-16
6.920000E+03	2.820432E-14	3.415016E-16
6.930000E+03	2.789899E-14	3.392433E-16
6.940000E+03	2.760224E-14	3.369683E-16
6.950000E+03	2.731428E-14	3.346331E-16
6.960000E+03	2.703625E-14	3.322495E-16
6.970000E+03	2.676807E-14	3.298622E-16
6.980000E+03	2.650982E-14	3.274549E-16
6.990000E+03	2.626197E-14	3.250594E-16
7.000000E+03	2.602387E-14	3.227320E-16
7.010000E+03	2.579574E-14	3.204686E-16
7.020000E+03	2.557673E-14	3.182850E-16
7.030000E+03	2.536656E-14	3.162332E-16
7.040000E+03	2.516530E-14	3.142992E-16
7.050000E+03	2.497207E-14	3.124880E-16
7.060000E+03	2.478648E-14	3.108420E-16
7.070000E+03	2.460842E-14	3.093432E-16
7.080000E+03	2.443678E-14	3.079929E-16
7.090000E+03	2.427138E-14	3.068351E-16
7.100000E+03	2.411087E-14	3.058330E-16
7.110000E+03	2.395484E-14	3.049844E-16
7.120000E+03	2.380190E-14	3.042912E-16
7.130000E+03	2.365098E-14	3.036797E-16
7.140000E+03	2.350147E-14	3.030917E-16
7.150000E+03	2.335222E-14	3.024738E-16
7.160000E+03	2.320137E-14	3.016912E-16
7.170000E+03	2.304744E-14	3.006363E-16
7.180000E+03	2.288979E-14	2.992493E-16
7.190000E+03	2.272524E-14	2.974020E-16
7.200000E+03	2.255336E-14	2.950550E-16
7.210000E+03	2.237086E-14	2.921901E-16
7.220000E+03	2.217735E-14	2.888086E-16
7.230000E+03	2.197015E-14	2.849392E-16
7.240000E+03	2.174817E-14	2.806782E-16
7.250000E+03	2.151026E-14	2.760787E-16
7.260000E+03	2.125508E-14	2.712194E-16
7.270000E+03	2.098260E-14	2.662064E-16
7.280000E+03	2.069294E-14	2.610696E-16
7.290000E+03	2.038613E-14	2.558423E-16
7.300000E+03	2.006350E-14	2.505790E-16
7.310000E+03	1.972644E-14	2.452667E-16
7.320000E+03	1.937664E-14	2.399132E-16
7.330000E+03	1.901562E-14	2.345437E-16
7.340000E+03	1.864617E-14	2.291473E-16
7.350000E+03	1.827077E-14	2.237371E-16
7.360000E+03	1.789150E-14	2.183481E-16
7.370000E+03	1.751091E-14	2.129761E-16
7.380000E+03	1.713188E-14	2.076494E-16
7.390000E+03	1.675630E-14	2.024103E-16
7.400000E+03	1.638682E-14	1.972685E-16
7.410000E+03	1.602516E-14	1.922475E-16
7.420000E+03	1.567375E-14	1.873987E-16
7.430000E+03	1.533473E-14	1.827223E-16
7.440000E+03	1.501021E-14	1.782373E-16
7.450000E+03	1.470257E-14	1.739815E-16
7.460000E+03	1.441349E-14	1.699377E-16
7.470000E+03	1.414522E-14	1.661195E-16
7.480000E+03	1.389934E-14	1.625623E-16
7.490000E+03	1.367704E-14	1.592726E-16
7.500000E+03	1.347915E-14	1.562885E-16
7.510000E+03	1.330577E-14	1.536716E-16
7.520000E+03	1.315743E-14	1.514608E-16
7.530000E+03	1.303303E-14	1.496980E-16
7.540000E+03	1.293255E-14	1.484401E-16
7.550000E+03	1.285443E-14	1.476544E-16
7.560000E+03	1.279795E-14	1.473018E-16
7.570000E+03	1.276198E-14	1.473101E-16
7.580000E+03	1.274509E-14	1.475038E-16
7.590000E+03	1.274642E-14	1.477005E-16
7.600000E+03	1.276452E-14	1.477451E-16
7.610000E+03	1.279837E-14	1.475046E-16
7.620000E+03	1.284735E-14	1.469169E-16
7.630000E+03	1.291033E-14	1.459925E-16
7.640000E+03	1.298677E-14	1.447932E-16
7.650000E+03	1.307630E-14	1.434506E-16
7.660000E+03	1.317926E-14	1.421128E-16
7.670000E+03	1.329533E-14	1.408330E-16
7.680000E+03	1.342585E-14	1.396696E-16
7.690000E+03	1.357116E-14	1.386744E-16
7.700000E+03	1.373196E-14	1.378480E-16
7.710000E+03	1.390878E-14	1.372112E-16
7.720000E+03	1.410179E-14	1.368066E-16
7.730000E+03	1.431066E-14	1.366268E-16
7.740000E+03	1.453494E-14	1.366935E-16
7.750000E+03	1.477324E-14	1.370254E-16
7.760000E+03	1.502273E-14	1.375223E-16
