#wls	flux	fluxerr
1.600000E+03	2.197240E-14	6.234436E-15
1.640000E+03	1.745574E-14	4.556612E-15
1.680000E+03	1.375208E-14	3.280942E-15
1.720000E+03	1.075414E-14	2.327728E-15
1.760000E+03	8.362273E-15	1.628631E-15
1.800000E+03	6.476795E-15	1.124602E-15
1.840000E+03	5.006145E-15	7.671166E-16
1.880000E+03	3.873014E-15	5.180402E-16
1.920000E+03	3.007205E-15	3.472040E-16
1.960000E+03	2.351574E-15	2.320575E-16
2.000000E+03	1.859319E-15	1.559792E-16
2.040000E+03	1.492824E-15	1.069930E-16
2.080000E+03	1.223397E-15	7.663629E-17
2.120000E+03	1.029062E-15	5.872282E-17
2.160000E+03	8.935991E-16	4.865516E-17
2.200000E+03	8.057871E-16	4.353962E-17
2.240000E+03	7.582288E-16	4.193605E-17
2.280000E+03	7.468286E-16	4.329455E-17
2.320000E+03	7.697463E-16	4.729865E-17
2.360000E+03	8.273026E-16	5.373103E-17
2.400000E+03	9.220408E-16	6.256978E-17
2.440000E+03	1.058314E-15	7.395287E-17
2.480000E+03	1.241687E-15	8.819735E-17
2.520000E+03	1.476901E-15	1.058836E-16
2.560000E+03	1.766038E-15	1.281533E-16
2.600000E+03	2.106900E-15	1.570466E-16
2.640000E+03	2.489705E-15	1.950938E-16
2.680000E+03	2.901214E-15	2.440148E-16
2.720000E+03	3.325622E-15	3.035032E-16
2.760000E+03	3.745370E-15	3.712924E-16
2.800000E+03	4.141453E-15	4.434641E-16
2.840000E+03	4.496157E-15	5.151451E-16
2.880000E+03	4.795584E-15	5.813143E-16
2.920000E+03	5.030086E-15	6.374059E-16
2.960000E+03	5.195516E-15	6.799381E-16
3.000000E+03	5.294369E-15	7.070215E-16
3.010000E+03	5.309692E-15	7.113378E-16
3.020000E+03	5.321746E-15	7.147088E-16
3.030000E+03	5.329569E-15	7.169969E-16
3.040000E+03	5.335001E-15	7.184439E-16
3.050000E+03	5.337104E-15	7.189214E-16
3.060000E+03	5.336067E-15	7.184555E-16
3.070000E+03	5.332629E-15	7.171491E-16
3.080000E+03	5.326980E-15	7.150335E-16
3.090000E+03	5.319314E-15	7.121426E-16
3.100000E+03	5.309828E-15	7.085126E-16
3.110000E+03	5.298194E-15	7.041117E-16
3.120000E+03	5.285665E-15	6.991196E-16
3.130000E+03	5.271394E-15	6.934387E-16
3.140000E+03	5.256609E-15	6.872467E-16
3.150000E+03	5.240481E-15	6.804513E-16
3.160000E+03	5.224213E-15	6.732266E-16
3.170000E+03	5.207480E-15	6.655480E-16
3.180000E+03	5.190954E-15	6.575191E-16
3.190000E+03	5.174311E-15	6.491165E-16
3.200000E+03	5.157720E-15	6.403807E-16
3.210000E+03	5.142296E-15	6.314676E-16
3.220000E+03	5.127228E-15	6.222942E-16
3.230000E+03	5.113131E-15	6.129536E-16
3.240000E+03	5.100137E-15	6.034783E-16
3.250000E+03	5.088370E-15	5.938996E-16
3.260000E+03	5.078396E-15	5.842994E-16
3.270000E+03	5.069869E-15	5.746523E-16
3.280000E+03	5.062891E-15	5.649862E-16
3.290000E+03	5.058435E-15	5.554243E-16
3.300000E+03	5.056135E-15	5.459381E-16
3.310000E+03	5.055633E-15	5.365036E-16
3.320000E+03	5.057858E-15	5.272342E-16
3.330000E+03	5.062860E-15	5.181466E-16
3.340000E+03	5.070264E-15	5.092154E-16
3.350000E+03	5.080950E-15	5.005423E-16
3.360000E+03	5.094527E-15	4.921006E-16
3.370000E+03	5.111024E-15	4.839067E-16
3.380000E+03	5.130866E-15	4.760151E-16
3.390000E+03	5.154466E-15	4.684766E-16
3.400000E+03	5.181014E-15	4.612310E-16
3.410000E+03	5.211709E-15	4.544005E-16
3.420000E+03	5.245731E-15	4.479268E-16
3.430000E+03	5.283854E-15	4.418916E-16
3.440000E+03	5.326040E-15	4.363050E-16
3.450000E+03	5.371853E-15	4.311459E-16
3.460000E+03	5.422419E-15	4.265189E-16
3.470000E+03	5.476502E-15	4.223389E-16
3.480000E+03	5.535205E-15	4.187037E-16
3.490000E+03	5.598448E-15	4.156158E-16
3.500000E+03	5.665757E-15	4.130474E-16
3.510000E+03	5.737810E-15	4.110542E-16
3.520000E+03	5.814118E-15	4.096039E-16
3.530000E+03	5.894954E-15	4.087177E-16
3.540000E+03	5.980200E-15	4.083865E-16
3.550000E+03	6.069732E-15	4.085993E-16
3.560000E+03	6.163799E-15	4.093683E-16
3.570000E+03	6.261891E-15	4.106529E-16
3.580000E+03	6.364632E-15	4.124859E-16
3.590000E+03	6.471133E-15	4.147995E-16
3.600000E+03	6.581268E-15	4.175754E-16
3.610000E+03	6.695676E-15	4.208425E-16
3.620000E+03	6.813873E-15	4.245568E-16
3.630000E+03	6.935392E-15	4.286760E-16
3.640000E+03	7.060545E-15	4.332055E-16
3.650000E+03	7.189288E-15	4.381282E-16
3.660000E+03	7.321612E-15	4.434285E-16
3.670000E+03	7.457165E-15	4.490702E-16
3.680000E+03	7.596386E-15	4.550645E-16
3.690000E+03	7.739379E-15	4.614020E-16
3.700000E+03	7.885918E-15	4.680533E-16
3.710000E+03	8.036193E-15	4.750141E-16
3.720000E+03	8.190430E-15	4.822817E-16
3.730000E+03	8.348890E-15	4.898555E-16
3.740000E+03	8.512224E-15	4.977576E-16
3.750000E+03	8.679985E-15	5.059458E-16
3.760000E+03	8.852466E-15	5.144217E-16
3.770000E+03	9.030306E-15	5.232072E-16
3.780000E+03	9.213366E-15	5.322797E-16
3.790000E+03	9.401820E-15	5.416354E-16
3.800000E+03	9.595759E-15	5.512667E-16
3.810000E+03	9.794804E-15	5.611399E-16
3.820000E+03	9.998831E-15	5.712373E-16
3.830000E+03	1.020795E-14	5.815554E-16
3.840000E+03	1.042138E-14	5.920416E-16
3.850000E+03	1.063782E-14	6.026146E-16
3.860000E+03	1.085768E-14	6.132908E-16
3.870000E+03	1.107897E-14	6.239529E-16
3.880000E+03	1.130108E-14	6.345608E-16
3.890000E+03	1.152249E-14	6.450264E-16
3.900000E+03	1.174238E-14	6.552983E-16
3.910000E+03	1.195871E-14	6.652597E-16
3.920000E+03	1.217053E-14	6.748543E-16
3.930000E+03	1.237616E-14	6.839852E-16
3.940000E+03	1.257433E-14	6.925785E-16
3.950000E+03	1.276346E-14	7.005448E-16
3.960000E+03	1.294285E-14	7.078418E-16
3.970000E+03	1.311082E-14	7.143750E-16
3.980000E+03	1.326699E-14	7.201202E-16
3.990000E+03	1.341044E-14	7.250241E-16
4.000000E+03	1.354044E-14	7.290455E-16
4.010000E+03	1.365723E-14	7.321934E-16
4.020000E+03	1.376086E-14	7.344685E-16
4.030000E+03	1.385056E-14	7.358261E-16
4.040000E+03	1.392784E-14	7.363431E-16
4.050000E+03	1.399226E-14	7.359935E-16
4.060000E+03	1.404495E-14	7.348311E-16
4.070000E+03	1.408674E-14	7.328956E-16
4.080000E+03	1.411792E-14	7.301948E-16
4.090000E+03	1.414010E-14	7.268064E-16
4.100000E+03	1.415330E-14	7.227225E-16
4.110000E+03	1.415915E-14	7.180163E-16
4.120000E+03	1.415825E-14	7.127073E-16
4.130000E+03	1.415117E-14	7.068111E-16
4.140000E+03	1.413904E-14	7.003691E-16
4.150000E+03	1.412228E-14	6.933857E-16
4.160000E+03	1.410155E-14	6.858747E-16
4.170000E+03	1.407740E-14	6.778441E-16
4.180000E+03	1.405004E-14	6.692831E-16
4.190000E+03	1.402021E-14	6.602038E-16
4.200000E+03	1.398800E-14	6.505879E-16
4.210000E+03	1.395378E-14	6.404285E-16
4.220000E+03	1.391815E-14	6.297295E-16
4.230000E+03	1.388095E-14	6.184581E-16
4.240000E+03	1.384309E-14	6.066312E-16
4.250000E+03	1.380476E-14	5.942323E-16
4.260000E+03	1.376674E-14	5.812707E-16
4.270000E+03	1.372940E-14	5.677383E-16
4.280000E+03	1.369345E-14	5.536429E-16
4.290000E+03	1.366002E-14	5.390078E-16
4.300000E+03	1.363009E-14	5.238511E-16
4.310000E+03	1.360452E-14	5.081881E-16
4.320000E+03	1.358506E-14	4.920672E-16
4.330000E+03	1.357283E-14	4.755163E-16
4.340000E+03	1.356956E-14	4.585869E-16
4.350000E+03	1.357659E-14	4.413233E-16
4.360000E+03	1.359583E-14	4.237953E-16
4.370000E+03	1.362926E-14	4.060843E-16
4.380000E+03	1.367829E-14	3.882718E-16
4.390000E+03	1.374517E-14	3.705027E-16
4.400000E+03	1.383139E-14	3.529628E-16
4.410000E+03	1.393866E-14	3.359409E-16
4.420000E+03	1.406799E-14	3.198429E-16
4.430000E+03	1.422005E-14	3.052461E-16
4.440000E+03	1.439578E-14	2.929465E-16
4.450000E+03	1.459525E-14	2.839356E-16
4.460000E+03	1.481762E-14	2.793302E-16
4.470000E+03	1.506200E-14	2.801956E-16
4.480000E+03	1.532738E-14	2.872256E-16
4.490000E+03	1.561128E-14	3.004468E-16
4.500000E+03	1.591108E-14	3.192893E-16
4.510000E+03	1.622379E-14	3.428507E-16
4.520000E+03	1.654566E-14	3.701273E-16
4.530000E+03	1.687196E-14	4.001457E-16
4.540000E+03	1.719819E-14	4.320447E-16
4.550000E+03	1.751907E-14	4.650576E-16
4.560000E+03	1.782959E-14	4.985243E-16
4.570000E+03	1.812400E-14	5.318450E-16
4.580000E+03	1.839749E-14	5.645088E-16
4.590000E+03	1.864540E-14	5.960614E-16
4.600000E+03	1.886347E-14	6.261022E-16
4.610000E+03	1.904827E-14	6.542928E-16
4.620000E+03	1.919786E-14	6.803794E-16
4.630000E+03	1.931092E-14	7.041621E-16
4.640000E+03	1.938755E-14	7.255226E-16
4.650000E+03	1.942878E-14	7.444070E-16
4.660000E+03	1.943747E-14	7.608605E-16
4.670000E+03	1.941620E-14	7.749453E-16
4.680000E+03	1.936958E-14	7.868290E-16
4.690000E+03	1.930206E-14	7.966964E-16
4.700000E+03	1.921870E-14	8.047771E-16
4.710000E+03	1.912466E-14	8.113231E-16
4.720000E+03	1.902484E-14	8.165869E-16
4.730000E+03	1.892429E-14	8.208406E-16
4.740000E+03	1.882699E-14	8.243155E-16
4.750000E+03	1.873702E-14	8.272542E-16
4.760000E+03	1.865765E-14	8.298645E-16
4.770000E+03	1.859096E-14	8.323037E-16
4.780000E+03	1.853879E-14	8.347166E-16
4.790000E+03	1.850224E-14	8.372136E-16
4.800000E+03	1.848147E-14	8.398597E-16
4.810000E+03	1.847641E-14	8.427058E-16
4.820000E+03	1.848609E-14	8.457594E-16
4.830000E+03	1.850919E-14	8.490071E-16
4.840000E+03	1.854340E-14	8.523872E-16
4.850000E+03	1.858664E-14	8.558426E-16
4.860000E+03	1.863557E-14	8.592555E-16
4.870000E+03	1.868767E-14	8.625409E-16
4.880000E+03	1.873922E-14	8.655526E-16
4.890000E+03	1.878732E-14	8.681789E-16
4.900000E+03	1.882853E-14	8.702788E-16
4.910000E+03	1.885993E-14	8.717289E-16
4.920000E+03	1.887916E-14	8.724301E-16
4.930000E+03	1.888400E-14	8.722841E-16
4.940000E+03	1.887326E-14	8.712385E-16
4.950000E+03	1.884628E-14	8.692618E-16
4.960000E+03	1.880315E-14	8.663558E-16
4.970000E+03	1.874473E-14	8.625563E-16
4.980000E+03	1.867264E-14	8.579327E-16
4.990000E+03	1.858916E-14	8.525846E-16
5.000000E+03	1.849738E-14	8.466471E-16
5.010000E+03	1.840042E-14	8.402564E-16
5.020000E+03	1.830216E-14	8.335816E-16
5.030000E+03	1.820628E-14	8.267798E-16
5.040000E+03	1.811690E-14	8.200265E-16
5.050000E+03	1.803794E-14	8.134819E-16
5.060000E+03	1.797314E-14	8.072940E-16
5.070000E+03	1.792600E-14	8.015940E-16
5.080000E+03	1.789973E-14	7.964920E-16
5.090000E+03	1.789721E-14	7.920744E-16
5.100000E+03	1.792109E-14	7.884088E-16
5.110000E+03	1.797344E-14	7.855260E-16
5.120000E+03	1.805570E-14	7.834186E-16
5.130000E+03	1.816929E-14	7.820646E-16
5.140000E+03	1.831498E-14	7.814022E-16
5.150000E+03	1.849312E-14	7.813372E-16
5.160000E+03	1.870344E-14	7.817346E-16
5.170000E+03	1.894585E-14	7.824522E-16
5.180000E+03	1.921927E-14	7.832913E-16
5.190000E+03	1.952242E-14	7.840313E-16
5.200000E+03	1.985390E-14	7.844313E-16
5.210000E+03	2.021160E-14	7.842085E-16
5.220000E+03	2.059334E-14	7.830660E-16
5.230000E+03	2.099699E-14	7.806973E-16
5.240000E+03	2.141987E-14	7.767671E-16
5.250000E+03	2.185972E-14	7.709497E-16
5.260000E+03	2.231389E-14	7.629034E-16
5.270000E+03	2.278037E-14	7.523094E-16
5.280000E+03	2.325719E-14	7.388560E-16
5.290000E+03	2.374270E-14	7.222547E-16
5.300000E+03	2.423545E-14	7.022434E-16
5.310000E+03	2.473493E-14	6.786207E-16
5.320000E+03	2.524062E-14	6.512341E-16
5.330000E+03	2.575301E-14	6.200340E-16
5.340000E+03	2.627276E-14	5.850936E-16
5.350000E+03	2.680088E-14	5.466831E-16
5.360000E+03	2.733836E-14	5.053800E-16
5.370000E+03	2.788678E-14	4.622792E-16
5.380000E+03	2.844729E-14	4.193011E-16
5.390000E+03	2.902065E-14	3.796846E-16
5.400000E+03	2.960670E-14	3.484976E-16
5.410000E+03	3.020493E-14	3.324444E-16
5.420000E+03	3.081326E-14	3.375309E-16
5.430000E+03	3.142909E-14	3.652806E-16
5.440000E+03	3.204806E-14	4.120253E-16
5.450000E+03	3.266400E-14	4.720546E-16
5.460000E+03	3.326867E-14	5.402824E-16
5.470000E+03	3.385358E-14	6.129648E-16
5.480000E+03	3.440808E-14	6.874231E-16
5.490000E+03	3.492262E-14	7.617288E-16
5.500000E+03	3.538689E-14	8.344006E-16
5.510000E+03	3.579205E-14	9.042853E-16
5.520000E+03	3.613022E-14	9.704541E-16
5.530000E+03	3.639520E-14	1.032169E-15
5.540000E+03	3.658281E-14	1.088866E-15
5.550000E+03	3.669148E-14	1.140157E-15
5.560000E+03	3.672123E-14	1.185796E-15
5.570000E+03	3.667477E-14	1.225704E-15
5.580000E+03	3.655655E-14	1.259938E-15
5.590000E+03	3.637401E-14	1.288728E-15
5.600000E+03	3.613505E-14	1.312383E-15
5.610000E+03	3.584869E-14	1.331309E-15
5.620000E+03	3.552573E-14	1.346022E-15
5.630000E+03	3.517617E-14	1.357050E-15
5.640000E+03	3.481021E-14	1.364953E-15
5.650000E+03	3.443789E-14	1.370306E-15
5.660000E+03	3.406735E-14	1.373623E-15
5.670000E+03	3.370700E-14	1.375434E-15
5.680000E+03	3.336326E-14	1.376188E-15
5.690000E+03	3.304078E-14	1.376257E-15
5.700000E+03	3.274305E-14	1.375958E-15
5.710000E+03	3.247235E-14	1.375545E-15
5.720000E+03	3.222883E-14	1.375170E-15
5.730000E+03	3.201187E-14	1.374940E-15
5.740000E+03	3.181894E-14	1.374865E-15
5.750000E+03	3.164700E-14	1.374918E-15
5.760000E+03	3.149177E-14	1.375007E-15
5.770000E+03	3.134793E-14	1.374976E-15
5.780000E+03	3.121029E-14	1.374664E-15
5.790000E+03	3.107279E-14	1.373860E-15
5.800000E+03	3.093001E-14	1.372367E-15
5.810000E+03	3.077648E-14	1.369972E-15
5.820000E+03	3.060689E-14	1.366464E-15
5.830000E+03	3.041696E-14	1.361662E-15
5.840000E+03	3.020352E-14	1.355432E-15
5.850000E+03	2.996412E-14	1.347664E-15
5.860000E+03	2.969703E-14	1.338276E-15
5.870000E+03	2.940191E-14	1.327246E-15
5.880000E+03	2.907944E-14	1.314602E-15
5.890000E+03	2.873159E-14	1.300427E-15
5.900000E+03	2.836031E-14	1.284812E-15
5.910000E+03	2.796941E-14	1.267933E-15
5.920000E+03	2.756218E-14	1.249948E-15
5.930000E+03	2.714311E-14	1.231075E-15
5.940000E+03	2.671668E-14	1.211534E-15
5.950000E+03	2.628718E-14	1.191537E-15
5.960000E+03	2.585935E-14	1.171318E-15
5.970000E+03	2.543700E-14	1.151066E-15
5.980000E+03	2.502439E-14	1.130989E-15
5.990000E+03	2.462513E-14	1.111260E-15
6.000000E+03	2.424242E-14	1.092025E-15
6.010000E+03	2.387846E-14	1.073384E-15
6.020000E+03	2.353595E-14	1.055445E-15
6.030000E+03	2.321587E-14	1.038239E-15
6.040000E+03	2.291990E-14	1.021814E-15
6.050000E+03	2.264854E-14	1.006164E-15
6.060000E+03	2.240167E-14	9.912427E-16
6.070000E+03	2.217943E-14	9.770136E-16
6.080000E+03	2.198121E-14	9.633973E-16
6.090000E+03	2.180609E-14	9.502966E-16
6.100000E+03	2.165295E-14	9.375989E-16
6.110000E+03	2.152068E-14	9.251883E-16
6.120000E+03	2.140786E-14	9.129300E-16
6.130000E+03	2.131282E-14	9.006740E-16
6.140000E+03	2.123448E-14	8.882935E-16
6.150000E+03	2.117102E-14	8.756256E-16
6.160000E+03	2.112154E-14	8.625444E-16
6.170000E+03	2.108491E-14	8.489105E-16
6.180000E+03	2.106021E-14	8.345901E-16
6.190000E+03	2.104719E-14	8.194729E-16
6.200000E+03	2.104569E-14	8.034463E-16
6.210000E+03	2.105584E-14	7.864037E-16
6.220000E+03	2.107811E-14	7.682427E-16
6.230000E+03	2.111346E-14	7.488705E-16
6.240000E+03	2.116294E-14	7.281855E-16
6.250000E+03	2.122823E-14	7.060965E-16
6.260000E+03	2.131078E-14	6.824907E-16
6.270000E+03	2.141237E-14	6.572536E-16
6.280000E+03	2.153481E-14	6.302621E-16
6.290000E+03	2.167988E-14	6.013876E-16
6.300000E+03	2.184900E-14	5.704982E-16
6.310000E+03	2.204361E-14	5.374872E-16
6.320000E+03	2.226488E-14	5.022951E-16
6.330000E+03	2.251338E-14	4.649531E-16
6.340000E+03	2.278970E-14	4.256836E-16
6.350000E+03	2.309298E-14	3.850204E-16
6.360000E+03	2.342291E-14	3.441127E-16
6.370000E+03	2.377779E-14	3.051407E-16
6.380000E+03	2.415485E-14	2.719914E-16
6.390000E+03	2.455125E-14	2.507105E-16
6.400000E+03	2.496276E-14	2.480601E-16
6.410000E+03	2.538457E-14	2.671206E-16
6.420000E+03	2.581039E-14	3.047807E-16
6.430000E+03	2.623373E-14	3.550575E-16
6.440000E+03	2.664752E-14	4.127191E-16
6.450000E+03	2.704366E-14	4.741343E-16
6.460000E+03	2.741410E-14	5.368936E-16
6.470000E+03	2.775050E-14	5.993294E-16
6.480000E+03	2.804547E-14	6.602300E-16
6.490000E+03	2.829187E-14	7.186539E-16
6.500000E+03	2.848310E-14	7.738381E-16
6.510000E+03	2.861516E-14	8.252049E-16
6.520000E+03	2.868340E-14	8.722492E-16
6.530000E+03	2.868575E-14	9.146138E-16
6.540000E+03	2.862058E-14	9.520207E-16
6.550000E+03	2.848860E-14	9.843275E-16
6.560000E+03	2.829128E-14	1.011473E-15
6.570000E+03	2.803069E-14	1.033469E-15
6.580000E+03	2.771134E-14	1.050459E-15
6.590000E+03	2.733807E-14	1.062647E-15
6.600000E+03	2.691619E-14	1.070291E-15
6.610000E+03	2.645223E-14	1.073730E-15
6.620000E+03	2.595249E-14	1.073321E-15
6.630000E+03	2.542403E-14	1.069476E-15
6.640000E+03	2.487362E-14	1.062611E-15
6.650000E+03	2.430752E-14	1.053136E-15
6.660000E+03	2.373256E-14	1.041490E-15
6.670000E+03	2.315424E-14	1.028060E-15
6.680000E+03	2.257780E-14	1.013224E-15
6.690000E+03	2.200817E-14	9.973421E-16
6.700000E+03	2.144912E-14	9.807182E-16
6.710000E+03	2.090427E-14	9.636456E-16
6.720000E+03	2.037640E-14	9.463696E-16
6.730000E+03	1.986743E-14	9.290891E-16
6.740000E+03	1.937945E-14	9.120027E-16
6.750000E+03	1.891332E-14	8.952429E-16
6.760000E+03	1.846994E-14	8.789353E-16
6.770000E+03	1.804935E-14	8.631572E-16
6.780000E+03	1.765173E-14	8.479839E-16
6.790000E+03	1.727654E-14	8.334498E-16
6.800000E+03	1.692365E-14	8.196029E-16
6.810000E+03	1.659195E-14	8.064363E-16
6.820000E+03	1.628102E-14	7.939717E-16
6.830000E+03	1.598975E-14	7.821923E-16
6.840000E+03	1.571718E-14	7.710841E-16
6.850000E+03	1.546233E-14	7.606285E-16
6.860000E+03	1.522443E-14	7.508128E-16
6.870000E+03	1.500236E-14	7.416041E-16
6.880000E+03	1.479540E-14	7.329871E-16
6.890000E+03	1.460271E-14	7.249380E-16
6.900000E+03	1.442334E-14	7.174250E-16
6.910000E+03	1.425679E-14	7.104364E-16
6.920000E+03	1.410225E-14	7.039450E-16
6.930000E+03	1.395957E-14	6.979527E-16
6.940000E+03	1.382794E-14	6.924291E-16
6.950000E+03	1.370701E-14	6.873642E-16
6.960000E+03	1.359683E-14	6.827687E-16
6.970000E+03	1.349687E-14	6.786205E-16
6.980000E+03	1.340713E-14	6.749265E-16
6.990000E+03	1.332753E-14	6.716866E-16
7.000000E+03	1.325785E-14	6.688937E-16
7.010000E+03	1.319842E-14	6.665676E-16
7.020000E+03	1.314871E-14	6.646853E-16
7.030000E+03	1.310925E-14	6.632752E-16
7.040000E+03	1.307952E-14	6.623134E-16
7.050000E+03	1.306000E-14	6.618260E-16
7.060000E+03	1.305012E-14	6.617856E-16
7.070000E+03	1.305012E-14	6.622051E-16
7.080000E+03	1.305966E-14	6.630688E-16
7.090000E+03	1.307852E-14	6.643660E-16
7.100000E+03	1.310642E-14	6.660826E-16
7.110000E+03	1.314299E-14	6.682007E-16
7.120000E+03	1.318781E-14	6.706987E-16
7.130000E+03	1.324021E-14	6.735424E-16
7.140000E+03	1.329963E-14	6.767031E-16
7.150000E+03	1.336562E-14	6.801578E-16
7.160000E+03	1.343716E-14	6.838543E-16
7.170000E+03	1.351391E-14	6.877741E-16
7.180000E+03	1.359460E-14	6.918520E-16
7.190000E+03	1.367902E-14	6.960766E-16
7.200000E+03	1.376587E-14	7.003816E-16
7.210000E+03	1.385460E-14	7.047378E-16
7.220000E+03	1.394431E-14	7.090988E-16
7.230000E+03	1.403448E-14	7.134384E-16
7.240000E+03	1.412430E-14	7.177141E-16
7.250000E+03	1.421279E-14	7.218763E-16
7.260000E+03	1.429977E-14	7.259163E-16
7.270000E+03	1.438458E-14	7.297998E-16
7.280000E+03	1.446659E-14	7.334959E-16
7.290000E+03	1.454525E-14	7.369766E-16
7.300000E+03	1.462043E-14	7.402367E-16
7.310000E+03	1.469171E-14	7.432546E-16
7.320000E+03	1.475869E-14	7.460121E-16
7.330000E+03	1.482108E-14	7.484938E-16
7.340000E+03	1.487901E-14	7.507076E-16
7.350000E+03	1.493210E-14	7.526350E-16
7.360000E+03	1.498026E-14	7.542709E-16
7.370000E+03	1.502385E-14	7.556342E-16
7.380000E+03	1.506295E-14	7.567276E-16
7.390000E+03	1.509751E-14	7.575482E-16
7.400000E+03	1.512821E-14	7.581279E-16
7.410000E+03	1.515522E-14	7.584728E-16
7.420000E+03	1.517941E-14	7.586240E-16
7.430000E+03	1.520097E-14	7.585864E-16
7.440000E+03	1.522139E-14	7.584297E-16
7.450000E+03	1.524124E-14	7.581760E-16
7.460000E+03	1.526155E-14	7.578701E-16
7.470000E+03	1.528403E-14	7.575885E-16
7.480000E+03	1.530939E-14	7.573566E-16
7.490000E+03	1.533936E-14	7.572488E-16
7.500000E+03	1.537460E-14	7.572849E-16
7.510000E+03	1.541674E-14	7.575309E-16
7.520000E+03	1.546647E-14	7.580045E-16
7.530000E+03	1.552497E-14	7.587456E-16
7.540000E+03	1.559264E-14	7.597528E-16
7.550000E+03	1.567007E-14	7.610337E-16
7.560000E+03	1.575788E-14	7.625938E-16
7.570000E+03	1.585556E-14	7.643826E-16
7.580000E+03	1.596324E-14	7.663775E-16
7.590000E+03	1.608054E-14	7.685310E-16
7.600000E+03	1.620615E-14	7.707489E-16
7.610000E+03	1.633961E-14	7.729765E-16
7.620000E+03	1.647909E-14	7.750920E-16
7.630000E+03	1.662341E-14	7.770046E-16
7.640000E+03	1.677073E-14	7.785911E-16
7.650000E+03	1.691878E-14	7.797080E-16
7.660000E+03	1.706563E-14	7.802269E-16
7.670000E+03	1.720899E-14	7.800035E-16
7.680000E+03	1.734655E-14	7.788914E-16
7.690000E+03	1.747621E-14	7.767559E-16
7.700000E+03	1.759548E-14	7.734436E-16
7.710000E+03	1.770220E-14	7.688183E-16
7.720000E+03	1.779465E-14	7.627639E-16
7.730000E+03	1.787083E-14	7.551537E-16
7.740000E+03	1.792926E-14	7.458859E-16
7.750000E+03	1.796902E-14	7.348846E-16
7.760000E+03	1.798927E-14	7.220794E-16
