#wls	flux	fluxerr
1.600000E+03	4.617776E-15	1.678967E-15
1.640000E+03	3.856017E-15	1.320880E-15
1.680000E+03	3.217063E-15	1.034952E-15
1.720000E+03	2.684694E-15	8.084666E-16
1.760000E+03	2.243423E-15	6.302711E-16
1.800000E+03	1.880159E-15	4.911474E-16
1.840000E+03	1.582986E-15	3.832822E-16
1.880000E+03	1.341051E-15	3.001259E-16
1.920000E+03	1.144812E-15	2.363279E-16
1.960000E+03	9.866647E-16	1.877172E-16
2.000000E+03	8.600027E-16	1.509497E-16
2.040000E+03	7.595358E-16	1.234507E-16
2.080000E+03	6.808112E-16	1.032126E-16
2.120000E+03	6.203366E-16	8.869367E-17
2.160000E+03	5.753779E-16	7.868160E-17
2.200000E+03	5.441863E-16	7.232934E-17
2.240000E+03	5.252792E-16	6.903478E-17
2.280000E+03	5.175027E-16	6.838490E-17
2.320000E+03	5.202737E-16	7.006589E-17
2.360000E+03	5.328479E-16	7.376896E-17
2.400000E+03	5.550623E-16	7.934609E-17
2.440000E+03	5.865752E-16	8.669799E-17
2.480000E+03	6.272471E-16	9.580692E-17
2.520000E+03	6.767296E-16	1.066602E-16
2.560000E+03	7.344481E-16	1.192298E-16
2.600000E+03	7.996454E-16	1.334629E-16
2.640000E+03	8.711320E-16	1.492104E-16
2.680000E+03	9.477068E-16	1.662394E-16
2.720000E+03	1.027793E-15	1.841463E-16
2.760000E+03	1.110368E-15	2.025351E-16
2.800000E+03	1.193765E-15	2.208144E-16
2.840000E+03	1.276931E-15	2.384364E-16
2.880000E+03	1.358851E-15	2.548160E-16
2.920000E+03	1.438586E-15	2.693599E-16
2.960000E+03	1.516359E-15	2.816935E-16
3.000000E+03	1.592173E-15	2.914195E-16
3.010000E+03	1.610905E-15	2.934151E-16
3.020000E+03	1.629513E-15	2.952194E-16
3.030000E+03	1.648224E-15	2.968676E-16
3.040000E+03	1.666610E-15	2.982776E-16
3.050000E+03	1.685336E-15	2.995638E-16
3.060000E+03	1.703756E-15	3.006060E-16
3.070000E+03	1.722322E-15	3.014796E-16
3.080000E+03	1.740826E-15	3.021436E-16
3.090000E+03	1.759503E-15	3.026346E-16
3.100000E+03	1.778371E-15	3.029505E-16
3.110000E+03	1.797223E-15	3.030518E-16
3.120000E+03	1.816300E-15	3.029751E-16
3.130000E+03	1.835619E-15	3.027190E-16
3.140000E+03	1.855202E-15	3.022824E-16
3.150000E+03	1.874842E-15	3.016279E-16
3.160000E+03	1.895011E-15	3.008277E-16
3.170000E+03	1.915279E-15	2.998090E-16
3.180000E+03	1.936121E-15	2.986427E-16
3.190000E+03	1.957334E-15	2.972926E-16
3.200000E+03	1.978942E-15	2.957587E-16
3.210000E+03	2.000968E-15	2.940411E-16
3.220000E+03	2.023439E-15	2.921403E-16
3.230000E+03	2.046605E-15	2.900892E-16
3.240000E+03	2.070495E-15	2.878869E-16
3.250000E+03	2.094908E-15	2.855017E-16
3.260000E+03	2.120099E-15	2.829656E-16
3.270000E+03	2.146096E-15	2.802786E-16
3.280000E+03	2.172699E-15	2.774119E-16
3.290000E+03	2.200396E-15	2.744253E-16
3.300000E+03	2.228758E-15	2.712624E-16
3.310000E+03	2.258275E-15	2.679816E-16
3.320000E+03	2.288748E-15	2.645571E-16
3.330000E+03	2.320209E-15	2.609921E-16
3.340000E+03	2.352920E-15	2.573165E-16
3.350000E+03	2.386686E-15	2.535090E-16
3.360000E+03	2.421770E-15	2.496004E-16
3.370000E+03	2.458208E-15	2.455968E-16
3.380000E+03	2.495803E-15	2.414835E-16
3.390000E+03	2.535056E-15	2.373160E-16
3.400000E+03	2.575539E-15	2.330618E-16
3.410000E+03	2.617756E-15	2.287783E-16
3.420000E+03	2.661513E-15	2.244608E-16
3.430000E+03	2.707086E-15	2.201488E-16
3.440000E+03	2.754280E-15	2.158454E-16
3.450000E+03	2.803374E-15	2.115959E-16
3.460000E+03	2.854412E-15	2.074296E-16
3.470000E+03	2.907439E-15	2.033795E-16
3.480000E+03	2.962492E-15	1.994805E-16
3.490000E+03	3.019833E-15	1.957823E-16
3.500000E+03	3.078977E-15	1.922836E-16
3.510000E+03	3.140615E-15	1.890564E-16
3.520000E+03	3.204211E-15	1.860928E-16
3.530000E+03	3.269924E-15	1.834251E-16
3.540000E+03	3.337402E-15	1.810531E-16
3.550000E+03	3.407009E-15	1.790130E-16
3.560000E+03	3.478602E-15	1.773078E-16
3.570000E+03	3.551772E-15	1.759239E-16
3.580000E+03	3.626346E-15	1.748567E-16
3.590000E+03	3.702643E-15	1.741197E-16
3.600000E+03	3.779974E-15	1.736740E-16
3.610000E+03	3.858389E-15	1.735128E-16
3.620000E+03	3.937930E-15	1.736243E-16
3.630000E+03	4.018119E-15	1.739714E-16
3.640000E+03	4.098974E-15	1.745377E-16
3.650000E+03	4.180245E-15	1.752944E-16
3.660000E+03	4.261674E-15	1.762127E-16
3.670000E+03	4.343012E-15	1.772660E-16
3.680000E+03	4.424027E-15	1.784287E-16
3.690000E+03	4.504779E-15	1.796887E-16
3.700000E+03	4.584883E-15	1.810167E-16
3.710000E+03	4.664562E-15	1.824070E-16
3.720000E+03	4.743885E-15	1.838479E-16
3.730000E+03	4.823296E-15	1.853417E-16
3.740000E+03	4.902883E-15	1.868751E-16
3.750000E+03	4.983111E-15	1.884492E-16
3.760000E+03	5.064803E-15	1.900784E-16
3.770000E+03	5.148618E-15	1.917697E-16
3.780000E+03	5.235270E-15	1.935332E-16
3.790000E+03	5.325708E-15	1.953893E-16
3.800000E+03	5.420076E-15	1.973298E-16
3.810000E+03	5.519646E-15	1.993906E-16
3.820000E+03	5.624271E-15	2.015588E-16
3.830000E+03	5.734026E-15	2.038320E-16
3.840000E+03	5.849205E-15	2.062191E-16
3.850000E+03	5.969068E-15	2.086948E-16
3.860000E+03	6.092780E-15	2.112316E-16
3.870000E+03	6.219459E-15	2.138024E-16
3.880000E+03	6.347504E-15	2.163568E-16
3.890000E+03	6.475619E-15	2.188539E-16
3.900000E+03	6.601881E-15	2.212316E-16
3.910000E+03	6.725047E-15	2.234504E-16
3.920000E+03	6.842906E-15	2.254357E-16
3.930000E+03	6.954034E-15	2.271390E-16
3.940000E+03	7.057114E-15	2.285172E-16
3.950000E+03	7.150284E-15	2.295098E-16
3.960000E+03	7.232853E-15	2.300981E-16
3.970000E+03	7.303660E-15	2.302523E-16
3.980000E+03	7.362332E-15	2.299696E-16
3.990000E+03	7.408114E-15	2.292389E-16
4.000000E+03	7.441516E-15	2.280902E-16
4.010000E+03	7.462720E-15	2.265413E-16
4.020000E+03	7.472455E-15	2.246266E-16
4.030000E+03	7.471926E-15	2.223941E-16
4.040000E+03	7.461922E-15	2.198754E-16
4.050000E+03	7.444038E-15	2.171260E-16
4.060000E+03	7.419930E-15	2.142026E-16
4.070000E+03	7.390475E-15	2.111372E-16
4.080000E+03	7.357534E-15	2.079911E-16
4.090000E+03	7.322489E-15	2.048111E-16
4.100000E+03	7.286244E-15	2.016274E-16
4.110000E+03	7.250135E-15	1.984820E-16
4.120000E+03	7.214974E-15	1.954007E-16
4.130000E+03	7.181556E-15	1.924042E-16
4.140000E+03	7.150478E-15	1.895069E-16
4.150000E+03	7.121967E-15	1.867125E-16
4.160000E+03	7.096177E-15	1.840191E-16
4.170000E+03	7.072905E-15	1.814164E-16
4.180000E+03	7.051942E-15	1.788965E-16
4.190000E+03	7.032618E-15	1.764390E-16
4.200000E+03	7.014597E-15	1.740362E-16
4.210000E+03	6.997168E-15	1.716741E-16
4.220000E+03	6.979572E-15	1.693379E-16
4.230000E+03	6.961039E-15	1.670149E-16
4.240000E+03	6.940819E-15	1.646943E-16
4.250000E+03	6.918216E-15	1.623621E-16
4.260000E+03	6.892734E-15	1.600093E-16
4.270000E+03	6.863854E-15	1.576262E-16
4.280000E+03	6.831083E-15	1.551998E-16
4.290000E+03	6.794258E-15	1.527236E-16
4.300000E+03	6.753510E-15	1.501961E-16
4.310000E+03	6.709357E-15	1.476166E-16
4.320000E+03	6.662807E-15	1.449942E-16
4.330000E+03	6.614846E-15	1.423394E-16
4.340000E+03	6.567630E-15	1.396859E-16
4.350000E+03	6.523071E-15	1.370663E-16
4.360000E+03	6.484004E-15	1.345369E-16
4.370000E+03	6.453337E-15	1.321549E-16
4.380000E+03	6.434366E-15	1.299876E-16
4.390000E+03	6.430524E-15	1.281046E-16
4.400000E+03	6.445319E-15	1.265703E-16
4.410000E+03	6.482341E-15	1.254507E-16
4.420000E+03	6.544871E-15	1.248068E-16
4.430000E+03	6.635843E-15	1.246911E-16
4.440000E+03	6.758115E-15	1.251617E-16
4.450000E+03	6.913948E-15	1.262773E-16
4.460000E+03	7.105258E-15	1.280979E-16
4.470000E+03	7.333648E-15	1.306858E-16
4.480000E+03	7.600147E-15	1.340913E-16
4.490000E+03	7.904533E-15	1.383271E-16
4.500000E+03	8.246090E-15	1.433875E-16
4.510000E+03	8.622401E-15	1.492309E-16
4.520000E+03	9.029526E-15	1.557810E-16
4.530000E+03	9.461640E-15	1.629345E-16
4.540000E+03	9.910978E-15	1.705651E-16
4.550000E+03	1.036786E-14	1.785162E-16
4.560000E+03	1.082046E-14	1.866070E-16
4.570000E+03	1.125589E-14	1.946485E-16
4.580000E+03	1.166062E-14	2.024330E-16
4.590000E+03	1.202102E-14	2.097503E-16
4.600000E+03	1.232463E-14	2.164048E-16
4.610000E+03	1.256108E-14	2.222096E-16
4.620000E+03	1.272318E-14	2.270151E-16
4.630000E+03	1.280702E-14	2.307073E-16
4.640000E+03	1.281318E-14	2.332145E-16
4.650000E+03	1.274612E-14	2.345197E-16
4.660000E+03	1.261365E-14	2.346657E-16
4.670000E+03	1.242650E-14	2.337447E-16
4.680000E+03	1.219718E-14	2.319005E-16
4.690000E+03	1.193906E-14	2.293212E-16
4.700000E+03	1.166515E-14	2.262078E-16
4.710000E+03	1.138786E-14	2.227761E-16
4.720000E+03	1.111844E-14	2.192395E-16
4.730000E+03	1.086586E-14	2.157717E-16
4.740000E+03	1.063745E-14	2.125199E-16
4.750000E+03	1.043877E-14	2.095959E-16
4.760000E+03	1.027290E-14	2.070485E-16
4.770000E+03	1.014156E-14	2.048941E-16
4.780000E+03	1.004494E-14	2.031172E-16
4.790000E+03	9.981993E-15	2.016718E-16
4.800000E+03	9.950775E-15	2.005022E-16
4.810000E+03	9.948972E-15	1.995657E-16
4.820000E+03	9.973776E-15	1.988311E-16
4.830000E+03	1.002231E-14	1.982919E-16
4.840000E+03	1.009103E-14	1.979484E-16
4.850000E+03	1.017651E-14	1.978119E-16
4.860000E+03	1.027429E-14	1.978878E-16
4.870000E+03	1.038004E-14	1.981911E-16
4.880000E+03	1.048810E-14	1.987025E-16
4.890000E+03	1.059241E-14	1.993880E-16
4.900000E+03	1.068646E-14	2.001844E-16
4.910000E+03	1.076303E-14	2.009710E-16
4.920000E+03	1.081546E-14	2.016050E-16
4.930000E+03	1.083786E-14	2.019260E-16
4.940000E+03	1.082577E-14	2.017602E-16
4.950000E+03	1.077713E-14	2.009607E-16
4.960000E+03	1.069177E-14	1.994111E-16
4.970000E+03	1.057212E-14	1.970427E-16
4.980000E+03	1.042272E-14	1.938507E-16
4.990000E+03	1.024926E-14	1.898944E-16
5.000000E+03	1.005853E-14	1.852968E-16
5.010000E+03	9.857808E-15	1.802323E-16
5.020000E+03	9.654487E-15	1.749064E-16
5.030000E+03	9.455470E-15	1.695247E-16
5.040000E+03	9.267228E-15	1.642872E-16
5.050000E+03	9.095471E-15	1.593637E-16
5.060000E+03	8.944715E-15	1.548693E-16
5.070000E+03	8.818761E-15	1.508880E-16
5.080000E+03	8.720853E-15	1.474825E-16
5.090000E+03	8.653475E-15	1.446864E-16
5.100000E+03	8.618919E-15	1.425292E-16
5.110000E+03	8.619099E-15	1.410345E-16
5.120000E+03	8.655479E-15	1.402105E-16
5.130000E+03	8.729820E-15	1.400746E-16
5.140000E+03	8.843226E-15	1.406371E-16
5.150000E+03	8.996685E-15	1.418981E-16
5.160000E+03	9.190972E-15	1.438559E-16
5.170000E+03	9.426297E-15	1.464966E-16
5.180000E+03	9.702036E-15	1.497736E-16
5.190000E+03	1.001703E-14	1.536250E-16
5.200000E+03	1.036914E-14	1.579693E-16
5.210000E+03	1.075552E-14	1.626964E-16
5.220000E+03	1.117218E-14	1.676791E-16
5.230000E+03	1.161444E-14	1.727883E-16
5.240000E+03	1.207672E-14	1.778797E-16
5.250000E+03	1.255255E-14	1.828123E-16
5.260000E+03	1.303506E-14	1.874567E-16
5.270000E+03	1.351742E-14	1.916837E-16
5.280000E+03	1.399274E-14	1.953861E-16
5.290000E+03	1.445450E-14	1.984888E-16
5.300000E+03	1.489740E-14	2.009425E-16
5.310000E+03	1.531758E-14	2.027446E-16
5.320000E+03	1.571253E-14	2.039266E-16
5.330000E+03	1.608209E-14	2.045284E-16
5.340000E+03	1.642846E-14	2.046145E-16
5.350000E+03	1.675563E-14	2.042511E-16
5.360000E+03	1.707082E-14	2.034871E-16
5.370000E+03	1.738257E-14	2.023968E-16
5.380000E+03	1.770115E-14	2.011435E-16
5.390000E+03	1.803757E-14	1.999751E-16
5.400000E+03	1.840192E-14	1.992498E-16
5.410000E+03	1.880290E-14	1.994217E-16
5.420000E+03	1.924606E-14	2.009291E-16
5.430000E+03	1.973195E-14	2.040803E-16
5.440000E+03	2.025500E-14	2.089123E-16
5.450000E+03	2.080374E-14	2.151351E-16
5.460000E+03	2.136085E-14	2.222788E-16
5.470000E+03	2.190529E-14	2.298342E-16
5.480000E+03	2.241274E-14	2.372823E-16
5.490000E+03	2.285796E-14	2.442054E-16
5.500000E+03	2.321606E-14	2.502910E-16
5.510000E+03	2.346601E-14	2.552862E-16
5.520000E+03	2.359065E-14	2.590387E-16
5.530000E+03	2.357840E-14	2.614823E-16
5.540000E+03	2.342512E-14	2.625633E-16
5.550000E+03	2.313389E-14	2.622978E-16
5.560000E+03	2.271370E-14	2.607554E-16
5.570000E+03	2.217986E-14	2.579981E-16
5.580000E+03	2.155193E-14	2.541373E-16
5.590000E+03	2.085315E-14	2.493480E-16
5.600000E+03	2.010803E-14	2.437964E-16
5.610000E+03	1.934158E-14	2.376943E-16
5.620000E+03	1.857760E-14	2.312898E-16
5.630000E+03	1.783857E-14	2.248213E-16
5.640000E+03	1.714443E-14	2.185453E-16
5.650000E+03	1.651148E-14	2.127215E-16
5.660000E+03	1.595340E-14	2.075816E-16
5.670000E+03	1.548067E-14	2.033410E-16
5.680000E+03	1.510051E-14	2.001777E-16
5.690000E+03	1.481686E-14	1.981914E-16
5.700000E+03	1.463110E-14	1.974442E-16
5.710000E+03	1.454203E-14	1.979650E-16
5.720000E+03	1.454526E-14	1.997153E-16
5.730000E+03	1.463444E-14	2.026381E-16
5.740000E+03	1.480048E-14	2.066564E-16
5.750000E+03	1.503204E-14	2.116575E-16
5.760000E+03	1.531523E-14	2.175155E-16
5.770000E+03	1.563412E-14	2.240976E-16
5.780000E+03	1.597132E-14	2.312420E-16
5.790000E+03	1.630787E-14	2.387722E-16
5.800000E+03	1.662478E-14	2.465076E-16
5.810000E+03	1.690433E-14	2.542337E-16
5.820000E+03	1.713023E-14	2.617141E-16
5.830000E+03	1.728932E-14	2.686965E-16
5.840000E+03	1.737271E-14	2.748860E-16
5.850000E+03	1.737556E-14	2.799689E-16
5.860000E+03	1.729749E-14	2.836321E-16
5.870000E+03	1.714209E-14	2.855553E-16
5.880000E+03	1.691583E-14	2.854743E-16
5.890000E+03	1.662777E-14	2.832601E-16
5.900000E+03	1.628772E-14	2.789160E-16
5.910000E+03	1.590606E-14	2.725954E-16
5.920000E+03	1.549362E-14	2.645935E-16
5.930000E+03	1.506082E-14	2.553025E-16
5.940000E+03	1.461735E-14	2.451713E-16
5.950000E+03	1.417277E-14	2.346578E-16
5.960000E+03	1.373586E-14	2.241676E-16
5.970000E+03	1.331431E-14	2.140457E-16
5.980000E+03	1.291536E-14	2.045652E-16
5.990000E+03	1.254481E-14	1.958907E-16
6.000000E+03	1.220738E-14	1.881184E-16
6.010000E+03	1.190658E-14	1.812894E-16
6.020000E+03	1.164453E-14	1.753838E-16
6.030000E+03	1.142226E-14	1.703610E-16
6.040000E+03	1.123974E-14	1.661750E-16
6.050000E+03	1.109610E-14	1.627669E-16
6.060000E+03	1.099010E-14	1.600927E-16
6.070000E+03	1.091948E-14	1.581095E-16
6.080000E+03	1.088154E-14	1.567619E-16
6.090000E+03	1.087303E-14	1.559905E-16
6.100000E+03	1.089023E-14	1.557199E-16
6.110000E+03	1.092883E-14	1.558279E-16
6.120000E+03	1.098402E-14	1.561647E-16
6.130000E+03	1.105035E-14	1.565540E-16
6.140000E+03	1.112201E-14	1.567816E-16
6.150000E+03	1.119254E-14	1.566266E-16
6.160000E+03	1.125533E-14	1.558955E-16
6.170000E+03	1.130372E-14	1.544311E-16
6.180000E+03	1.133128E-14	1.521499E-16
6.190000E+03	1.133215E-14	1.490664E-16
6.200000E+03	1.130205E-14	1.452949E-16
6.210000E+03	1.123815E-14	1.410320E-16
6.220000E+03	1.114054E-14	1.365108E-16
6.230000E+03	1.101309E-14	1.319434E-16
6.240000E+03	1.086232E-14	1.275166E-16
6.250000E+03	1.069734E-14	1.233763E-16
6.260000E+03	1.052954E-14	1.195979E-16
6.270000E+03	1.037101E-14	1.162262E-16
6.280000E+03	1.023317E-14	1.132913E-16
6.290000E+03	1.012599E-14	1.107916E-16
6.300000E+03	1.005802E-14	1.087354E-16
6.310000E+03	1.003573E-14	1.071425E-16
6.320000E+03	1.006350E-14	1.060204E-16
6.330000E+03	1.014386E-14	1.053938E-16
6.340000E+03	1.027776E-14	1.053051E-16
6.350000E+03	1.046447E-14	1.057898E-16
6.360000E+03	1.070178E-14	1.069290E-16
6.370000E+03	1.098621E-14	1.088774E-16
6.380000E+03	1.131300E-14	1.118362E-16
6.390000E+03	1.167621E-14	1.160543E-16
6.400000E+03	1.206840E-14	1.217571E-16
6.410000E+03	1.248084E-14	1.290244E-16
6.420000E+03	1.290324E-14	1.377599E-16
6.430000E+03	1.332440E-14	1.477140E-16
6.440000E+03	1.373232E-14	1.585049E-16
6.450000E+03	1.411494E-14	1.697103E-16
6.460000E+03	1.446044E-14	1.809230E-16
6.470000E+03	1.475770E-14	1.917534E-16
6.480000E+03	1.499746E-14	2.018778E-16
6.490000E+03	1.517133E-14	2.110305E-16
6.500000E+03	1.527333E-14	2.189982E-16
6.510000E+03	1.529985E-14	2.256367E-16
6.520000E+03	1.524952E-14	2.308645E-16
6.530000E+03	1.512291E-14	2.346300E-16
6.540000E+03	1.492321E-14	2.369391E-16
6.550000E+03	1.465522E-14	2.378386E-16
6.560000E+03	1.432560E-14	2.373991E-16
6.570000E+03	1.394214E-14	2.357216E-16
6.580000E+03	1.351382E-14	2.329389E-16
6.590000E+03	1.304973E-14	2.291823E-16
6.600000E+03	1.255950E-14	2.246045E-16
6.610000E+03	1.205241E-14	2.193644E-16
6.620000E+03	1.153703E-14	2.136074E-16
6.630000E+03	1.102169E-14	2.074873E-16
6.640000E+03	1.051334E-14	2.011445E-16
6.650000E+03	1.001825E-14	1.947087E-16
6.660000E+03	9.541539E-15	1.882974E-16
6.670000E+03	9.087230E-15	1.820155E-16
6.680000E+03	8.658311E-15	1.759462E-16
6.690000E+03	8.256754E-15	1.701572E-16
6.700000E+03	7.883972E-15	1.647091E-16
6.710000E+03	7.540337E-15	1.596367E-16
6.720000E+03	7.225656E-15	1.549645E-16
6.730000E+03	6.939504E-15	1.507125E-16
6.740000E+03	6.680800E-15	1.468810E-16
6.750000E+03	6.448357E-15	1.434672E-16
6.760000E+03	6.240593E-15	1.404589E-16
6.770000E+03	6.056145E-15	1.378430E-16
6.780000E+03	5.893247E-15	1.355964E-16
6.790000E+03	5.750285E-15	1.336990E-16
6.800000E+03	5.625734E-15	1.321278E-16
6.810000E+03	5.518056E-15	1.308597E-16
6.820000E+03	5.425799E-15	1.298735E-16
6.830000E+03	5.347588E-15	1.291470E-16
6.840000E+03	5.282138E-15	1.286604E-16
6.850000E+03	5.228189E-15	1.283942E-16
6.860000E+03	5.184752E-15	1.283320E-16
6.870000E+03	5.150736E-15	1.284543E-16
6.880000E+03	5.125199E-15	1.287447E-16
6.890000E+03	5.107285E-15	1.291852E-16
6.900000E+03	5.096285E-15	1.297611E-16
6.910000E+03	5.091402E-15	1.304560E-16
6.920000E+03	5.092184E-15	1.312599E-16
6.930000E+03	5.098092E-15	1.321619E-16
6.940000E+03	5.108747E-15	1.331555E-16
6.950000E+03	5.123942E-15	1.342370E-16
6.960000E+03	5.143441E-15	1.354029E-16
6.970000E+03	5.167159E-15	1.366537E-16
6.980000E+03	5.195092E-15	1.379906E-16
6.990000E+03	5.227372E-15	1.394189E-16
7.000000E+03	5.264050E-15	1.409431E-16
7.010000E+03	5.305278E-15	1.425687E-16
7.020000E+03	5.351294E-15	1.443048E-16
7.030000E+03	5.402207E-15	1.461579E-16
7.040000E+03	5.458172E-15	1.481339E-16
7.050000E+03	5.519320E-15	1.502390E-16
7.060000E+03	5.585740E-15	1.524787E-16
7.070000E+03	5.657530E-15	1.548570E-16
7.080000E+03	5.734595E-15	1.573732E-16
7.090000E+03	5.816832E-15	1.600271E-16
7.100000E+03	5.904060E-15	1.628143E-16
7.110000E+03	5.996012E-15	1.657288E-16
7.120000E+03	6.092348E-15	1.687625E-16
7.130000E+03	6.192641E-15	1.719021E-16
7.140000E+03	6.296467E-15	1.751347E-16
7.150000E+03	6.403096E-15	1.784386E-16
7.160000E+03	6.512045E-15	1.817964E-16
7.170000E+03	6.622457E-15	1.851803E-16
7.180000E+03	6.733762E-15	1.885701E-16
7.190000E+03	6.845040E-15	1.919326E-16
7.200000E+03	6.955704E-15	1.952430E-16
7.210000E+03	7.064839E-15	1.984671E-16
7.220000E+03	7.171921E-15	2.015777E-16
7.230000E+03	7.276123E-15	2.045388E-16
7.240000E+03	7.377060E-15	2.073269E-16
7.250000E+03	7.474079E-15	2.099082E-16
7.260000E+03	7.567003E-15	2.122638E-16
7.270000E+03	7.655364E-15	2.143695E-16
7.280000E+03	7.739175E-15	2.162158E-16
7.290000E+03	7.818130E-15	2.177893E-16
7.300000E+03	7.892367E-15	2.190953E-16
7.310000E+03	7.961648E-15	2.201323E-16
7.320000E+03	8.026151E-15	2.209164E-16
7.330000E+03	8.085628E-15	2.214553E-16
7.340000E+03	8.140199E-15	2.217663E-16
7.350000E+03	8.189640E-15	2.218588E-16
7.360000E+03	8.233684E-15	2.217432E-16
7.370000E+03	8.272346E-15	2.214344E-16
7.380000E+03	8.305315E-15	2.209401E-16
7.390000E+03	8.332306E-15	2.202698E-16
7.400000E+03	8.353315E-15	2.194372E-16
7.410000E+03	8.368321E-15	2.184562E-16
7.420000E+03	8.377347E-15	2.173420E-16
7.430000E+03	8.380829E-15	2.161154E-16
7.440000E+03	8.379183E-15	2.147961E-16
7.450000E+03	8.373263E-15	2.134143E-16
7.460000E+03	8.364059E-15	2.119980E-16
7.470000E+03	8.352547E-15	2.105739E-16
7.480000E+03	8.340422E-15	2.091858E-16
7.490000E+03	8.328992E-15	2.078616E-16
7.500000E+03	8.319871E-15	2.066362E-16
7.510000E+03	8.314900E-15	2.055494E-16
7.520000E+03	8.315316E-15	2.046209E-16
7.530000E+03	8.322908E-15	2.038827E-16
7.540000E+03	8.338711E-15	2.033453E-16
7.550000E+03	8.363796E-15	2.030114E-16
7.560000E+03	8.398704E-15	2.028661E-16
7.570000E+03	8.443806E-15	2.028849E-16
7.580000E+03	8.498771E-15	2.030166E-16
7.590000E+03	8.562962E-15	2.032044E-16
7.600000E+03	8.635505E-15	2.033973E-16
7.610000E+03	8.714937E-15	2.035461E-16
7.620000E+03	8.799603E-15	2.036204E-16
7.630000E+03	8.887695E-15	2.036124E-16
7.640000E+03	8.976795E-15	2.035232E-16
7.650000E+03	9.064750E-15	2.033813E-16
7.660000E+03	9.148917E-15	2.032117E-16
7.670000E+03	9.226695E-15	2.030320E-16
7.680000E+03	9.295498E-15	2.028505E-16
7.690000E+03	9.352886E-15	2.026604E-16
7.700000E+03	9.396822E-15	2.024311E-16
7.710000E+03	9.425201E-15	2.021068E-16
7.720000E+03	9.436658E-15	2.016271E-16
7.730000E+03	9.430263E-15	2.009162E-16
7.740000E+03	9.405137E-15	1.998886E-16
7.750000E+03	9.361354E-15	1.984754E-16
7.760000E+03	9.298949E-15	1.966037E-16
