#wls	flux	fluxerr
1.600000E+03	1.920907E-15	9.781096E-16
1.640000E+03	1.707275E-15	8.421558E-16
1.680000E+03	1.519901E-15	7.260705E-16
1.720000E+03	1.356466E-15	6.274527E-16
1.760000E+03	1.214666E-15	5.440688E-16
1.800000E+03	1.091682E-15	4.736197E-16
1.840000E+03	9.859704E-16	4.145316E-16
1.880000E+03	8.949799E-16	3.649352E-16
1.920000E+03	8.174609E-16	3.236413E-16
1.960000E+03	7.516471E-16	2.893584E-16
2.000000E+03	6.962750E-16	2.610995E-16
2.040000E+03	6.498789E-16	2.378922E-16
2.080000E+03	6.117730E-16	2.191328E-16
2.120000E+03	5.809291E-16	2.041545E-16
2.160000E+03	5.565846E-16	1.924446E-16
2.200000E+03	5.382851E-16	1.836436E-16
2.240000E+03	5.252963E-16	1.773344E-16
2.280000E+03	5.172628E-16	1.732623E-16
2.320000E+03	5.139798E-16	1.712471E-16
2.360000E+03	5.150399E-16	1.710611E-16
2.400000E+03	5.202587E-16	1.725663E-16
2.440000E+03	5.294014E-16	1.756189E-16
2.480000E+03	5.423427E-16	1.801184E-16
2.520000E+03	5.589737E-16	1.859734E-16
2.560000E+03	5.791078E-16	1.930668E-16
2.600000E+03	6.026468E-16	2.013079E-16
2.640000E+03	6.295859E-16	2.106324E-16
2.680000E+03	6.596461E-16	2.208762E-16
2.720000E+03	6.928222E-16	2.319582E-16
2.760000E+03	7.291228E-16	2.437919E-16
2.800000E+03	7.683711E-16	2.562185E-16
2.840000E+03	8.106039E-16	2.691413E-16
2.880000E+03	8.558886E-16	2.824656E-16
2.920000E+03	9.042197E-16	2.960657E-16
2.960000E+03	9.557368E-16	3.098601E-16
3.000000E+03	1.010742E-15	3.238178E-16
3.010000E+03	1.025166E-15	3.273585E-16
3.020000E+03	1.039628E-15	3.308419E-16
3.030000E+03	1.054478E-15	3.343777E-16
3.040000E+03	1.069600E-15	3.379273E-16
3.050000E+03	1.084879E-15	3.414519E-16
3.060000E+03	1.100433E-15	3.449874E-16
3.070000E+03	1.116264E-15	3.485326E-16
3.080000E+03	1.132374E-15	3.520862E-16
3.090000E+03	1.148886E-15	3.556845E-16
3.100000E+03	1.165562E-15	3.592520E-16
3.110000E+03	1.182524E-15	3.628250E-16
3.120000E+03	1.199896E-15	3.664402E-16
3.130000E+03	1.217561E-15	3.700595E-16
3.140000E+03	1.235520E-15	3.736825E-16
3.150000E+03	1.253901E-15	3.773460E-16
3.160000E+03	1.272583E-15	3.810125E-16
3.170000E+03	1.291570E-15	3.846817E-16
3.180000E+03	1.310990E-15	3.883908E-16
3.190000E+03	1.330846E-15	3.921397E-16
3.200000E+03	1.351019E-15	3.958915E-16
3.210000E+03	1.371636E-15	3.996834E-16
3.220000E+03	1.392703E-15	4.035159E-16
3.230000E+03	1.414097E-15	4.073524E-16
3.240000E+03	1.436077E-15	4.112671E-16
3.250000E+03	1.458391E-15	4.151873E-16
3.260000E+03	1.481301E-15	4.191868E-16
3.270000E+03	1.504681E-15	4.232298E-16
3.280000E+03	1.528537E-15	4.273174E-16
3.290000E+03	1.552871E-15	4.314503E-16
3.300000E+03	1.577818E-15	4.356660E-16
3.310000E+03	1.603250E-15	4.399292E-16
3.320000E+03	1.629304E-15	4.442771E-16
3.330000E+03	1.655849E-15	4.486748E-16
3.340000E+03	1.683020E-15	4.531595E-16
3.350000E+03	1.710821E-15	4.577321E-16
3.360000E+03	1.739119E-15	4.623582E-16
3.370000E+03	1.768184E-15	4.671099E-16
3.380000E+03	1.797882E-15	4.719528E-16
3.390000E+03	1.828214E-15	4.768877E-16
3.400000E+03	1.859180E-15	4.819157E-16
3.410000E+03	1.890913E-15	4.870725E-16
3.420000E+03	1.923276E-15	4.923238E-16
3.430000E+03	1.956404E-15	4.977049E-16
3.440000E+03	1.990154E-15	5.031815E-16
3.450000E+03	2.024660E-15	5.087884E-16
3.460000E+03	2.059916E-15	5.145255E-16
3.470000E+03	2.095916E-15	5.203925E-16
3.480000E+03	2.132789E-15	5.264228E-16
3.490000E+03	2.170250E-15	5.325476E-16
3.500000E+03	2.208566E-15	5.388337E-16
3.510000E+03	2.247586E-15	5.452458E-16
3.520000E+03	2.287436E-15	5.518159E-16
3.530000E+03	2.328103E-15	5.585419E-16
3.540000E+03	2.369429E-15	5.653876E-16
3.550000E+03	2.411678E-15	5.724172E-16
3.560000E+03	2.454551E-15	5.795605E-16
3.570000E+03	2.498307E-15	5.868805E-16
3.580000E+03	2.542784E-15	5.943398E-16
3.590000E+03	2.588099E-15	6.019669E-16
3.600000E+03	2.634086E-15	6.097237E-16
3.610000E+03	2.680858E-15	6.176379E-16
3.620000E+03	2.728387E-15	6.257032E-16
3.630000E+03	2.776641E-15	6.339133E-16
3.640000E+03	2.825589E-15	6.422613E-16
3.650000E+03	2.875196E-15	6.507400E-16
3.660000E+03	2.925567E-15	6.593736E-16
3.670000E+03	2.976523E-15	6.681217E-16
3.680000E+03	3.028165E-15	6.770074E-16
3.690000E+03	3.080452E-15	6.860213E-16
3.700000E+03	3.133340E-15	6.951536E-16
3.710000E+03	3.186782E-15	7.043937E-16
3.720000E+03	3.240730E-15	7.137310E-16
3.730000E+03	3.295276E-15	7.231854E-16
3.740000E+03	3.350226E-15	7.327137E-16
3.750000E+03	3.405668E-15	7.423348E-16
3.760000E+03	3.461402E-15	7.520048E-16
3.770000E+03	3.517655E-15	7.617723E-16
3.780000E+03	3.574082E-15	7.715620E-16
3.790000E+03	3.630905E-15	7.814211E-16
3.800000E+03	3.687918E-15	7.913046E-16
3.810000E+03	3.745056E-15	8.011979E-16
3.820000E+03	3.802394E-15	8.111161E-16
3.830000E+03	3.859722E-15	8.210141E-16
3.840000E+03	3.917254E-15	8.309360E-16
3.850000E+03	3.974640E-15	8.408072E-16
3.860000E+03	4.031814E-15	8.506126E-16
3.870000E+03	4.088984E-15	8.603960E-16
3.880000E+03	4.145945E-15	8.701130E-16
3.890000E+03	4.202632E-15	8.797491E-16
3.900000E+03	4.259117E-15	8.893190E-16
3.910000E+03	4.315068E-15	8.987523E-16
3.920000E+03	4.370698E-15	9.080932E-16
3.930000E+03	4.425819E-15	9.173017E-16
3.940000E+03	4.480516E-15	9.263949E-16
3.950000E+03	4.534610E-15	9.353352E-16
3.960000E+03	4.588063E-15	9.441145E-16
3.970000E+03	4.640976E-15	9.527528E-16
3.980000E+03	4.693190E-15	9.612172E-16
3.990000E+03	4.744816E-15	9.695302E-16
4.000000E+03	4.795714E-15	9.776626E-16
4.010000E+03	4.845880E-15	9.856136E-16
4.020000E+03	4.895319E-15	9.933841E-16
4.030000E+03	4.944046E-15	1.000977E-15
4.040000E+03	4.992205E-15	1.008421E-15
4.050000E+03	5.039577E-15	1.015672E-15
4.060000E+03	5.086325E-15	1.022763E-15
4.070000E+03	5.132374E-15	1.029680E-15
4.080000E+03	5.177902E-15	1.036457E-15
4.090000E+03	5.222851E-15	1.043085E-15
4.100000E+03	5.267293E-15	1.049577E-15
4.110000E+03	5.311309E-15	1.055950E-15
4.120000E+03	5.354984E-15	1.062222E-15
4.130000E+03	5.398183E-15	1.068366E-15
4.140000E+03	5.441237E-15	1.074450E-15
4.150000E+03	5.484026E-15	1.080449E-15
4.160000E+03	5.526665E-15	1.086389E-15
4.170000E+03	5.569275E-15	1.092293E-15
4.180000E+03	5.611980E-15	1.098188E-15
4.190000E+03	5.654799E-15	1.104079E-15
4.200000E+03	5.697867E-15	1.109994E-15
4.210000E+03	5.741212E-15	1.115939E-15
4.220000E+03	5.784975E-15	1.121946E-15
4.230000E+03	5.829191E-15	1.128022E-15
4.240000E+03	5.873900E-15	1.134178E-15
4.250000E+03	5.919353E-15	1.140465E-15
4.260000E+03	5.965486E-15	1.146874E-15
4.270000E+03	6.012443E-15	1.153435E-15
4.280000E+03	6.060366E-15	1.160180E-15
4.290000E+03	6.109190E-15	1.167100E-15
4.300000E+03	6.159050E-15	1.174224E-15
4.310000E+03	6.209977E-15	1.181562E-15
4.320000E+03	6.261992E-15	1.189125E-15
4.330000E+03	6.315214E-15	1.196937E-15
4.340000E+03	6.369549E-15	1.204987E-15
4.350000E+03	6.425094E-15	1.213299E-15
4.360000E+03	6.481837E-15	1.221875E-15
4.370000E+03	6.539750E-15	1.230716E-15
4.380000E+03	6.598792E-15	1.239820E-15
4.390000E+03	6.658908E-15	1.249181E-15
4.400000E+03	6.720122E-15	1.258810E-15
4.410000E+03	6.782150E-15	1.268660E-15
4.420000E+03	6.845078E-15	1.278752E-15
4.430000E+03	6.908776E-15	1.289066E-15
4.440000E+03	6.973098E-15	1.299580E-15
4.450000E+03	7.037876E-15	1.310268E-15
4.460000E+03	7.103021E-15	1.321115E-15
4.470000E+03	7.168422E-15	1.332104E-15
4.480000E+03	7.233857E-15	1.343197E-15
4.490000E+03	7.299084E-15	1.354350E-15
4.500000E+03	7.363945E-15	1.365533E-15
4.510000E+03	7.428360E-15	1.376732E-15
4.520000E+03	7.492051E-15	1.387894E-15
4.530000E+03	7.554822E-15	1.398981E-15
4.540000E+03	7.616376E-15	1.409933E-15
4.550000E+03	7.676703E-15	1.420746E-15
4.560000E+03	7.735404E-15	1.431339E-15
4.570000E+03	7.792371E-15	1.441689E-15
4.580000E+03	7.847407E-15	1.451751E-15
4.590000E+03	7.900321E-15	1.461483E-15
4.600000E+03	7.950836E-15	1.470826E-15
4.610000E+03	7.998881E-15	1.479759E-15
4.620000E+03	8.044303E-15	1.488245E-15
4.630000E+03	8.086870E-15	1.496231E-15
4.640000E+03	8.126561E-15	1.503705E-15
4.650000E+03	8.163374E-15	1.510656E-15
4.660000E+03	8.197040E-15	1.517025E-15
4.670000E+03	8.227694E-15	1.522828E-15
4.680000E+03	8.255204E-15	1.528030E-15
4.690000E+03	8.279744E-15	1.532655E-15
4.700000E+03	8.301411E-15	1.536711E-15
4.710000E+03	8.320130E-15	1.540175E-15
4.720000E+03	8.336222E-15	1.543099E-15
4.730000E+03	8.349831E-15	1.545501E-15
4.740000E+03	8.361303E-15	1.547437E-15
4.750000E+03	8.370803E-15	1.548930E-15
4.760000E+03	8.378974E-15	1.550092E-15
4.770000E+03	8.385992E-15	1.550949E-15
4.780000E+03	8.392411E-15	1.551597E-15
4.790000E+03	8.398043E-15	1.551996E-15
4.800000E+03	8.402798E-15	1.552122E-15
4.810000E+03	8.406499E-15	1.551939E-15
4.820000E+03	8.408793E-15	1.551375E-15
4.830000E+03	8.409883E-15	1.550464E-15
4.840000E+03	8.409516E-15	1.549155E-15
4.850000E+03	8.407718E-15	1.547450E-15
4.860000E+03	8.404609E-15	1.545368E-15
4.870000E+03	8.400308E-15	1.542927E-15
4.880000E+03	8.394758E-15	1.540114E-15
4.890000E+03	8.388261E-15	1.536983E-15
4.900000E+03	8.380763E-15	1.533522E-15
4.910000E+03	8.372480E-15	1.529769E-15
4.920000E+03	8.363539E-15	1.525746E-15
4.930000E+03	8.354156E-15	1.521491E-15
4.940000E+03	8.344374E-15	1.517011E-15
4.950000E+03	8.334498E-15	1.512360E-15
4.960000E+03	8.324571E-15	1.507546E-15
4.970000E+03	8.314899E-15	1.502624E-15
4.980000E+03	8.305439E-15	1.497586E-15
4.990000E+03	8.296579E-15	1.492501E-15
5.000000E+03	8.288272E-15	1.487361E-15
5.010000E+03	8.280816E-15	1.482220E-15
5.020000E+03	8.274329E-15	1.477098E-15
5.030000E+03	8.268924E-15	1.472018E-15
5.040000E+03	8.264796E-15	1.467013E-15
5.050000E+03	8.261958E-15	1.462087E-15
5.060000E+03	8.260671E-15	1.457288E-15
5.070000E+03	8.260930E-15	1.452617E-15
5.080000E+03	8.262806E-15	1.448086E-15
5.090000E+03	8.266524E-15	1.443739E-15
5.100000E+03	8.271960E-15	1.439557E-15
5.110000E+03	8.279312E-15	1.435577E-15
5.120000E+03	8.288596E-15	1.431806E-15
5.130000E+03	8.299727E-15	1.428236E-15
5.140000E+03	8.312774E-15	1.424883E-15
5.150000E+03	8.327706E-15	1.421751E-15
5.160000E+03	8.344477E-15	1.418839E-15
5.170000E+03	8.363023E-15	1.416146E-15
5.180000E+03	8.383353E-15	1.413684E-15
5.190000E+03	8.405288E-15	1.411437E-15
5.200000E+03	8.428723E-15	1.409400E-15
5.210000E+03	8.453623E-15	1.407585E-15
5.220000E+03	8.479855E-15	1.405985E-15
5.230000E+03	8.507191E-15	1.404584E-15
5.240000E+03	8.535562E-15	1.403391E-15
5.250000E+03	8.564719E-15	1.402388E-15
5.260000E+03	8.594577E-15	1.401586E-15
5.270000E+03	8.624959E-15	1.400983E-15
5.280000E+03	8.655680E-15	1.400577E-15
5.290000E+03	8.686555E-15	1.400366E-15
5.300000E+03	8.717304E-15	1.400335E-15
5.310000E+03	8.747911E-15	1.400512E-15
5.320000E+03	8.778007E-15	1.400869E-15
5.330000E+03	8.807576E-15	1.401434E-15
5.340000E+03	8.836339E-15	1.402192E-15
5.350000E+03	8.864108E-15	1.403143E-15
5.360000E+03	8.890789E-15	1.404298E-15
5.370000E+03	8.916204E-15	1.405654E-15
5.380000E+03	8.940180E-15	1.407205E-15
5.390000E+03	8.962552E-15	1.408946E-15
5.400000E+03	8.983255E-15	1.410880E-15
5.410000E+03	9.002232E-15	1.413010E-15
5.420000E+03	9.019258E-15	1.415307E-15
5.430000E+03	9.034392E-15	1.417782E-15
5.440000E+03	9.047524E-15	1.420415E-15
5.450000E+03	9.058650E-15	1.423199E-15
5.460000E+03	9.067599E-15	1.426094E-15
5.470000E+03	9.074581E-15	1.429117E-15
5.480000E+03	9.079367E-15	1.432213E-15
5.490000E+03	9.082111E-15	1.435383E-15
5.500000E+03	9.082800E-15	1.438599E-15
5.510000E+03	9.081260E-15	1.441805E-15
5.520000E+03	9.077698E-15	1.445002E-15
5.530000E+03	9.072066E-15	1.448151E-15
5.540000E+03	9.064422E-15	1.451228E-15
5.550000E+03	9.054753E-15	1.454197E-15
5.560000E+03	9.043059E-15	1.457024E-15
5.570000E+03	9.029533E-15	1.459706E-15
5.580000E+03	9.014111E-15	1.462200E-15
5.590000E+03	8.997008E-15	1.464508E-15
5.600000E+03	8.978266E-15	1.466604E-15
5.610000E+03	8.957930E-15	1.468467E-15
5.620000E+03	8.936229E-15	1.470105E-15
5.630000E+03	8.913210E-15	1.471500E-15
5.640000E+03	8.889007E-15	1.472647E-15
5.650000E+03	8.863661E-15	1.473530E-15
5.660000E+03	8.837380E-15	1.474162E-15
5.670000E+03	8.810188E-15	1.474527E-15
5.680000E+03	8.782271E-15	1.474638E-15
5.690000E+03	8.753629E-15	1.474479E-15
5.700000E+03	8.724335E-15	1.474047E-15
5.710000E+03	8.694451E-15	1.473339E-15
5.720000E+03	8.664106E-15	1.472365E-15
5.730000E+03	8.633247E-15	1.471105E-15
5.740000E+03	8.601892E-15	1.469554E-15
5.750000E+03	8.570050E-15	1.467705E-15
5.760000E+03	8.537716E-15	1.465549E-15
5.770000E+03	8.504879E-15	1.463079E-15
5.780000E+03	8.471519E-15	1.460286E-15
5.790000E+03	8.437610E-15	1.457162E-15
5.800000E+03	8.403210E-15	1.453713E-15
5.810000E+03	8.368121E-15	1.449902E-15
5.820000E+03	8.332401E-15	1.445737E-15
5.830000E+03	8.296106E-15	1.441227E-15
5.840000E+03	8.259052E-15	1.436339E-15
5.850000E+03	8.221387E-15	1.431098E-15
5.860000E+03	8.182944E-15	1.425476E-15
5.870000E+03	8.143805E-15	1.419488E-15
5.880000E+03	8.103982E-15	1.413138E-15
5.890000E+03	8.063495E-15	1.406432E-15
5.900000E+03	8.022375E-15	1.399377E-15
5.910000E+03	7.980663E-15	1.391983E-15
5.920000E+03	7.938328E-15	1.384250E-15
5.930000E+03	7.895507E-15	1.376204E-15
5.940000E+03	7.852188E-15	1.367848E-15
5.950000E+03	7.808520E-15	1.359212E-15
5.960000E+03	7.764501E-15	1.350302E-15
5.970000E+03	7.720289E-15	1.341150E-15
5.980000E+03	7.675888E-15	1.331763E-15
5.990000E+03	7.631383E-15	1.322161E-15
6.000000E+03	7.586856E-15	1.312366E-15
6.010000E+03	7.542386E-15	1.302398E-15
6.020000E+03	7.498052E-15	1.292279E-15
6.030000E+03	7.453852E-15	1.282014E-15
6.040000E+03	7.409929E-15	1.271637E-15
6.050000E+03	7.366271E-15	1.261154E-15
6.060000E+03	7.323005E-15	1.250596E-15
6.070000E+03	7.280037E-15	1.239955E-15
6.080000E+03	7.237408E-15	1.229249E-15
6.090000E+03	7.195224E-15	1.218506E-15
6.100000E+03	7.153440E-15	1.207728E-15
6.110000E+03	7.112076E-15	1.196932E-15
6.120000E+03	7.071144E-15	1.186131E-15
6.130000E+03	7.030578E-15	1.175326E-15
6.140000E+03	6.990447E-15	1.164544E-15
6.150000E+03	6.950741E-15	1.153796E-15
6.160000E+03	6.911377E-15	1.143083E-15
6.170000E+03	6.872333E-15	1.132420E-15
6.180000E+03	6.833446E-15	1.121794E-15
6.190000E+03	6.794754E-15	1.111231E-15
6.200000E+03	6.756285E-15	1.100753E-15
6.210000E+03	6.718063E-15	1.090383E-15
6.220000E+03	6.679970E-15	1.080123E-15
6.230000E+03	6.642016E-15	1.069993E-15
6.240000E+03	6.604138E-15	1.060004E-15
6.250000E+03	6.566334E-15	1.050178E-15
6.260000E+03	6.528396E-15	1.040503E-15
6.270000E+03	6.490311E-15	1.030997E-15
6.280000E+03	6.452057E-15	1.021680E-15
6.290000E+03	6.413476E-15	1.012545E-15
6.300000E+03	6.374599E-15	1.003619E-15
6.310000E+03	6.335193E-15	9.948830E-16
6.320000E+03	6.295215E-15	9.863493E-16
6.330000E+03	6.254553E-15	9.780159E-16
6.340000E+03	6.213093E-15	9.698794E-16
6.350000E+03	6.170718E-15	9.619334E-16
6.360000E+03	6.127375E-15	9.541792E-16
6.370000E+03	6.082824E-15	9.465856E-16
6.380000E+03	6.037077E-15	9.391581E-16
6.390000E+03	5.989965E-15	9.318704E-16
6.400000E+03	5.941449E-15	9.247129E-16
6.410000E+03	5.891315E-15	9.176453E-16
6.420000E+03	5.839544E-15	9.106539E-16
6.430000E+03	5.786128E-15	9.037235E-16
6.440000E+03	5.730834E-15	8.968003E-16
6.450000E+03	5.673802E-15	8.898866E-16
6.460000E+03	5.614893E-15	8.829379E-16
6.470000E+03	5.554106E-15	8.759294E-16
6.480000E+03	5.491458E-15	8.688375E-16
6.490000E+03	5.426987E-15	8.616406E-16
6.500000E+03	5.360750E-15	8.543194E-16
6.510000E+03	5.292823E-15	8.468577E-16
6.520000E+03	5.223249E-15	8.392332E-16
6.530000E+03	5.152252E-15	8.314540E-16
6.540000E+03	5.079964E-15	8.235140E-16
6.550000E+03	5.006476E-15	8.154018E-16
6.560000E+03	4.932109E-15	8.071450E-16
6.570000E+03	4.856928E-15	7.987310E-16
6.580000E+03	4.781216E-15	7.901854E-16
6.590000E+03	4.705161E-15	7.815197E-16
6.600000E+03	4.628953E-15	7.727484E-16
6.610000E+03	4.552836E-15	7.638970E-16
6.620000E+03	4.476955E-15	7.549768E-16
6.630000E+03	4.401647E-15	7.460339E-16
6.640000E+03	4.326956E-15	7.370662E-16
6.650000E+03	4.253205E-15	7.281223E-16
6.660000E+03	4.180523E-15	7.192185E-16
6.670000E+03	4.109120E-15	7.103875E-16
6.680000E+03	4.039105E-15	7.016464E-16
6.690000E+03	3.970714E-15	6.930351E-16
6.700000E+03	3.903990E-15	6.845618E-16
6.710000E+03	3.839183E-15	6.762725E-16
6.720000E+03	3.776272E-15	6.681659E-16
6.730000E+03	3.715480E-15	6.602851E-16
6.740000E+03	3.656846E-15	6.526414E-16
6.750000E+03	3.600398E-15	6.452448E-16
6.760000E+03	3.546317E-15	6.381331E-16
6.770000E+03	3.494528E-15	6.312985E-16
6.780000E+03	3.445186E-15	6.247750E-16
6.790000E+03	3.398236E-15	6.185590E-16
6.800000E+03	3.353732E-15	6.126667E-16
6.810000E+03	3.311681E-15	6.071057E-16
6.820000E+03	3.272119E-15	6.018890E-16
6.830000E+03	3.234959E-15	5.970071E-16
6.840000E+03	3.200264E-15	5.924774E-16
6.850000E+03	3.168008E-15	5.883016E-16
6.860000E+03	3.138129E-15	5.844737E-16
6.870000E+03	3.110594E-15	5.809934E-16
6.880000E+03	3.085441E-15	5.778732E-16
6.890000E+03	3.062556E-15	5.750971E-16
6.900000E+03	3.041899E-15	5.726621E-16
6.910000E+03	3.023495E-15	5.705780E-16
6.920000E+03	3.007262E-15	5.688335E-16
6.930000E+03	2.993115E-15	5.674167E-16
6.940000E+03	2.981075E-15	5.663355E-16
6.950000E+03	2.971018E-15	5.655700E-16
6.960000E+03	2.962928E-15	5.651204E-16
6.970000E+03	2.956787E-15	5.649863E-16
6.980000E+03	2.952469E-15	5.651464E-16
6.990000E+03	2.949990E-15	5.656066E-16
7.000000E+03	2.949223E-15	5.663446E-16
7.010000E+03	2.950148E-15	5.673588E-16
7.020000E+03	2.952745E-15	5.686471E-16
7.030000E+03	2.956885E-15	5.701862E-16
7.040000E+03	2.962545E-15	5.719735E-16
7.050000E+03	2.969669E-15	5.739989E-16
7.060000E+03	2.978161E-15	5.762451E-16
7.070000E+03	2.987999E-15	5.787087E-16
7.080000E+03	2.999124E-15	5.813787E-16
7.090000E+03	3.011476E-15	5.842441E-16
7.100000E+03	3.024957E-15	5.872863E-16
7.110000E+03	3.039545E-15	5.905007E-16
7.120000E+03	3.055100E-15	5.938608E-16
7.130000E+03	3.071678E-15	5.973767E-16
7.140000E+03	3.089099E-15	6.010134E-16
7.150000E+03	3.107339E-15	6.047660E-16
7.160000E+03	3.126376E-15	6.086292E-16
7.170000E+03	3.146068E-15	6.125750E-16
7.180000E+03	3.166390E-15	6.165978E-16
7.190000E+03	3.187280E-15	6.206847E-16
7.200000E+03	3.208635E-15	6.248147E-16
7.210000E+03	3.230392E-15	6.289745E-16
7.220000E+03	3.252530E-15	6.331589E-16
7.230000E+03	3.274945E-15	6.373470E-16
7.240000E+03	3.297579E-15	6.415256E-16
7.250000E+03	3.320371E-15	6.456821E-16
7.260000E+03	3.343262E-15	6.498038E-16
7.270000E+03	3.366195E-15	6.538783E-16
7.280000E+03	3.389072E-15	6.578852E-16
7.290000E+03	3.411882E-15	6.618211E-16
7.300000E+03	3.434572E-15	6.656744E-16
7.310000E+03	3.457003E-15	6.694170E-16
7.320000E+03	3.479260E-15	6.730639E-16
7.330000E+03	3.501161E-15	6.765788E-16
7.340000E+03	3.522797E-15	6.799779E-16
7.350000E+03	3.544035E-15	6.832343E-16
7.360000E+03	3.564832E-15	6.863387E-16
7.370000E+03	3.585243E-15	6.893004E-16
7.380000E+03	3.605138E-15	6.920932E-16
7.390000E+03	3.624527E-15	6.947181E-16
7.400000E+03	3.643472E-15	6.971858E-16
7.410000E+03	3.661797E-15	6.994620E-16
7.420000E+03	3.679615E-15	7.015669E-16
7.430000E+03	3.696848E-15	7.034849E-16
7.440000E+03	3.713416E-15	7.052002E-16
7.450000E+03	3.729338E-15	7.067158E-16
7.460000E+03	3.744485E-15	7.080068E-16
7.470000E+03	3.758827E-15	7.090670E-16
7.480000E+03	3.772330E-15	7.098901E-16
7.490000E+03	3.784912E-15	7.104606E-16
7.500000E+03	3.796538E-15	7.107723E-16
7.510000E+03	3.807172E-15	7.108190E-16
7.520000E+03	3.816776E-15	7.105946E-16
7.530000E+03	3.825261E-15	7.100836E-16
7.540000E+03	3.832638E-15	7.092894E-16
7.550000E+03	3.838865E-15	7.082058E-16
7.560000E+03	3.843848E-15	7.068178E-16
7.570000E+03	3.847593E-15	7.051289E-16
7.580000E+03	3.850004E-15	7.031246E-16
7.590000E+03	3.851085E-15	7.008089E-16
7.600000E+03	3.850789E-15	6.981771E-16
7.610000E+03	3.849070E-15	6.952252E-16
7.620000E+03	3.845828E-15	6.919402E-16
7.630000E+03	3.841121E-15	6.883377E-16
7.640000E+03	3.834799E-15	6.843973E-16
7.650000E+03	3.826923E-15	6.801363E-16
7.660000E+03	3.817400E-15	6.755454E-16
7.670000E+03	3.806191E-15	6.706257E-16
7.680000E+03	3.793311E-15	6.653888E-16
7.690000E+03	3.778680E-15	6.598293E-16
7.700000E+03	3.762319E-15	6.539613E-16
7.710000E+03	3.744158E-15	6.477829E-16
7.720000E+03	3.724231E-15	6.413110E-16
7.730000E+03	3.702526E-15	6.345555E-16
7.740000E+03	3.678990E-15	6.275195E-16
7.750000E+03	3.653676E-15	6.202247E-16
7.760000E+03	3.626593E-15	6.126858E-16
