#wls	flux	fluxerr
1.600000E+03	1.507406E-15	8.531317E-16
1.640000E+03	1.362442E-15	7.519272E-16
1.680000E+03	1.233665E-15	6.639489E-16
1.720000E+03	1.119883E-15	5.878299E-16
1.760000E+03	1.019880E-15	5.222679E-16
1.800000E+03	9.321250E-16	4.658800E-16
1.840000E+03	8.554008E-16	4.175311E-16
1.880000E+03	7.888701E-16	3.763435E-16
1.920000E+03	7.311888E-16	3.412616E-16
1.960000E+03	6.816859E-16	3.116152E-16
2.000000E+03	6.393843E-16	2.866451E-16
2.040000E+03	6.036495E-16	2.657998E-16
2.080000E+03	5.737156E-16	2.485127E-16
2.120000E+03	5.492064E-16	2.344264E-16
2.160000E+03	5.296076E-16	2.231540E-16
2.200000E+03	5.143935E-16	2.143339E-16
2.240000E+03	5.033652E-16	2.077650E-16
2.280000E+03	4.961150E-16	2.031786E-16
2.320000E+03	4.925308E-16	2.004439E-16
2.360000E+03	4.922950E-16	1.993584E-16
2.400000E+03	4.952836E-16	1.998086E-16
2.440000E+03	5.013969E-16	2.016979E-16
2.480000E+03	5.104783E-16	2.049114E-16
2.520000E+03	5.223868E-16	2.093433E-16
2.560000E+03	5.372276E-16	2.149874E-16
2.600000E+03	5.548036E-16	2.217154E-16
2.640000E+03	5.750802E-16	2.294619E-16
2.680000E+03	5.980295E-16	2.381607E-16
2.720000E+03	6.236305E-16	2.477443E-16
2.760000E+03	6.519550E-16	2.581771E-16
2.800000E+03	6.830031E-16	2.693902E-16
2.840000E+03	7.166964E-16	2.812795E-16
2.880000E+03	7.533259E-16	2.938817E-16
2.920000E+03	7.927553E-16	3.070630E-16
2.960000E+03	8.353236E-16	3.208725E-16
3.000000E+03	8.810236E-16	3.352245E-16
3.010000E+03	8.929777E-16	3.389029E-16
3.020000E+03	9.051831E-16	3.426300E-16
3.030000E+03	9.176408E-16	3.464048E-16
3.040000E+03	9.302535E-16	3.501893E-16
3.050000E+03	9.432186E-16	3.540567E-16
3.060000E+03	9.563398E-16	3.579319E-16
3.070000E+03	9.697168E-16	3.618513E-16
3.080000E+03	9.832504E-16	3.657767E-16
3.090000E+03	9.971419E-16	3.697819E-16
3.100000E+03	1.011293E-15	3.738291E-16
3.110000E+03	1.025704E-15	3.779175E-16
3.120000E+03	1.040377E-15	3.820467E-16
3.130000E+03	1.055312E-15	3.862160E-16
3.140000E+03	1.070512E-15	3.904251E-16
3.150000E+03	1.086080E-15	3.947108E-16
3.160000E+03	1.101915E-15	3.990355E-16
3.170000E+03	1.118019E-15	4.033987E-16
3.180000E+03	1.134497E-15	4.078378E-16
3.190000E+03	1.151247E-15	4.123148E-16
3.200000E+03	1.168374E-15	4.168673E-16
3.210000E+03	1.185775E-15	4.214573E-16
3.220000E+03	1.203557E-15	4.261225E-16
3.230000E+03	1.221722E-15	4.308626E-16
3.240000E+03	1.240166E-15	4.356400E-16
3.250000E+03	1.258994E-15	4.404923E-16
3.260000E+03	1.278318E-15	4.454569E-16
3.270000E+03	1.297923E-15	4.504587E-16
3.280000E+03	1.317918E-15	4.555353E-16
3.290000E+03	1.338303E-15	4.606866E-16
3.300000E+03	1.359080E-15	4.659126E-16
3.310000E+03	1.380358E-15	4.712507E-16
3.320000E+03	1.402028E-15	4.766634E-16
3.330000E+03	1.424091E-15	4.821505E-16
3.340000E+03	1.446657E-15	4.877494E-16
3.350000E+03	1.469614E-15	4.934225E-16
3.360000E+03	1.493074E-15	4.992069E-16
3.370000E+03	1.517034E-15	5.051022E-16
3.380000E+03	1.541383E-15	5.110709E-16
3.390000E+03	1.566231E-15	5.171497E-16
3.400000E+03	1.591574E-15	5.233380E-16
3.410000E+03	1.617524E-15	5.296722E-16
3.420000E+03	1.643852E-15	5.360775E-16
3.430000E+03	1.670781E-15	5.426269E-16
3.440000E+03	1.698078E-15	5.492455E-16
3.450000E+03	1.726082E-15	5.560428E-16
3.460000E+03	1.754559E-15	5.629437E-16
3.470000E+03	1.783503E-15	5.699467E-16
3.480000E+03	1.813022E-15	5.770868E-16
3.490000E+03	1.843109E-15	5.843621E-16
3.500000E+03	1.873756E-15	5.917705E-16
3.510000E+03	1.904839E-15	5.992731E-16
3.520000E+03	1.936580E-15	6.069403E-16
3.530000E+03	1.968852E-15	6.147329E-16
3.540000E+03	2.001762E-15	6.226842E-16
3.550000E+03	2.035181E-15	6.307544E-16
3.560000E+03	2.069096E-15	6.389402E-16
3.570000E+03	2.103610E-15	6.472739E-16
3.580000E+03	2.138709E-15	6.557513E-16
3.590000E+03	2.174377E-15	6.643679E-16
3.600000E+03	2.210598E-15	6.731191E-16
3.610000E+03	2.247237E-15	6.819641E-16
3.620000E+03	2.284629E-15	6.910050E-16
3.630000E+03	2.322401E-15	7.001289E-16
3.640000E+03	2.360769E-15	7.094013E-16
3.650000E+03	2.399711E-15	7.188159E-16
3.660000E+03	2.439087E-15	7.283308E-16
3.670000E+03	2.478992E-15	7.379745E-16
3.680000E+03	2.519402E-15	7.477400E-16
3.690000E+03	2.560410E-15	7.576550E-16
3.700000E+03	2.601753E-15	7.676414E-16
3.710000E+03	2.643642E-15	7.777616E-16
3.720000E+03	2.685929E-15	7.879723E-16
3.730000E+03	2.728823E-15	7.983343E-16
3.740000E+03	2.771940E-15	8.087352E-16
3.750000E+03	2.815603E-15	8.192695E-16
3.760000E+03	2.859665E-15	8.298936E-16
3.770000E+03	2.904093E-15	8.405980E-16
3.780000E+03	2.948855E-15	8.513734E-16
3.790000E+03	2.993920E-15	8.622103E-16
3.800000E+03	3.039372E-15	8.731328E-16
3.810000E+03	3.085178E-15	8.841309E-16
3.820000E+03	3.131187E-15	8.951614E-16
3.830000E+03	3.177484E-15	9.062479E-16
3.840000E+03	3.224153E-15	9.174138E-16
3.850000E+03	3.270928E-15	9.285832E-16
3.860000E+03	3.317893E-15	9.397798E-16
3.870000E+03	3.365133E-15	9.510272E-16
3.880000E+03	3.412617E-15	9.623158E-16
3.890000E+03	3.460085E-15	9.735722E-16
3.900000E+03	3.507853E-15	9.848850E-16
3.910000E+03	3.555665E-15	9.961817E-16
3.920000E+03	3.603610E-15	1.007487E-15
3.930000E+03	3.651551E-15	1.018762E-15
3.940000E+03	3.699692E-15	1.030063E-15
3.950000E+03	3.747900E-15	1.041353E-15
3.960000E+03	3.796158E-15	1.052628E-15
3.970000E+03	3.844340E-15	1.063850E-15
3.980000E+03	3.892657E-15	1.075079E-15
3.990000E+03	3.941097E-15	1.086312E-15
4.000000E+03	3.989435E-15	1.097485E-15
4.010000E+03	4.037885E-15	1.108658E-15
4.020000E+03	4.086340E-15	1.119800E-15
4.030000E+03	4.134801E-15	1.130913E-15
4.040000E+03	4.183275E-15	1.141997E-15
4.050000E+03	4.231773E-15	1.153057E-15
4.060000E+03	4.280414E-15	1.164123E-15
4.070000E+03	4.329002E-15	1.175144E-15
4.080000E+03	4.377769E-15	1.186183E-15
4.090000E+03	4.426528E-15	1.197188E-15
4.100000E+03	4.475412E-15	1.208195E-15
4.110000E+03	4.524449E-15	1.219215E-15
4.120000E+03	4.573572E-15	1.230227E-15
4.130000E+03	4.622817E-15	1.241243E-15
4.140000E+03	4.672325E-15	1.252302E-15
4.150000E+03	4.721938E-15	1.263361E-15
4.160000E+03	4.771701E-15	1.274433E-15
4.170000E+03	4.821763E-15	1.285560E-15
4.180000E+03	4.872074E-15	1.296728E-15
4.190000E+03	4.922588E-15	1.307928E-15
4.200000E+03	4.973459E-15	1.319200E-15
4.210000E+03	5.024545E-15	1.330510E-15
4.220000E+03	5.076003E-15	1.341899E-15
4.230000E+03	5.127792E-15	1.353359E-15
4.240000E+03	5.179781E-15	1.364857E-15
4.250000E+03	5.232219E-15	1.376461E-15
4.260000E+03	5.284879E-15	1.388113E-15
4.270000E+03	5.337915E-15	1.399856E-15
4.280000E+03	5.391290E-15	1.411682E-15
4.290000E+03	5.444965E-15	1.423583E-15
4.300000E+03	5.498901E-15	1.435553E-15
4.310000E+03	5.553058E-15	1.447582E-15
4.320000E+03	5.607393E-15	1.459663E-15
4.330000E+03	5.661951E-15	1.471811E-15
4.340000E+03	5.716683E-15	1.484014E-15
4.350000E+03	5.771445E-15	1.496240E-15
4.360000E+03	5.826179E-15	1.508476E-15
4.370000E+03	5.880916E-15	1.520733E-15
4.380000E+03	5.935497E-15	1.532973E-15
4.390000E+03	5.989853E-15	1.545181E-15
4.400000E+03	6.043905E-15	1.557339E-15
4.410000E+03	6.097572E-15	1.569430E-15
4.420000E+03	6.150854E-15	1.581455E-15
4.430000E+03	6.203479E-15	1.593348E-15
4.440000E+03	6.255522E-15	1.605130E-15
4.450000E+03	6.306879E-15	1.616775E-15
4.460000E+03	6.357347E-15	1.628234E-15
4.470000E+03	6.407074E-15	1.639546E-15
4.480000E+03	6.455847E-15	1.650657E-15
4.490000E+03	6.503626E-15	1.661558E-15
4.500000E+03	6.550452E-15	1.672258E-15
4.510000E+03	6.596102E-15	1.682702E-15
4.520000E+03	6.640695E-15	1.692917E-15
4.530000E+03	6.684177E-15	1.702890E-15
4.540000E+03	6.726400E-15	1.712581E-15
4.550000E+03	6.767480E-15	1.722018E-15
4.560000E+03	6.807181E-15	1.731138E-15
4.570000E+03	6.845616E-15	1.739968E-15
4.580000E+03	6.882638E-15	1.748466E-15
4.590000E+03	6.918275E-15	1.756637E-15
4.600000E+03	6.952557E-15	1.764485E-15
4.610000E+03	6.985258E-15	1.771948E-15
4.620000E+03	7.016584E-15	1.779074E-15
4.630000E+03	7.046318E-15	1.785804E-15
4.640000E+03	7.074503E-15	1.792145E-15
4.650000E+03	7.101102E-15	1.798082E-15
4.660000E+03	7.126083E-15	1.803602E-15
4.670000E+03	7.149420E-15	1.808695E-15
4.680000E+03	7.171091E-15	1.813349E-15
4.690000E+03	7.190999E-15	1.817535E-15
4.700000E+03	7.209302E-15	1.821288E-15
4.710000E+03	7.225830E-15	1.824561E-15
4.720000E+03	7.240586E-15	1.827350E-15
4.730000E+03	7.253581E-15	1.829652E-15
4.740000E+03	7.264830E-15	1.831468E-15
4.750000E+03	7.274354E-15	1.832798E-15
4.760000E+03	7.282179E-15	1.833644E-15
4.770000E+03	7.288336E-15	1.834011E-15
4.780000E+03	7.292860E-15	1.833905E-15
4.790000E+03	7.295793E-15	1.833331E-15
4.800000E+03	7.297179E-15	1.832298E-15
4.810000E+03	7.297227E-15	1.830856E-15
4.820000E+03	7.295907E-15	1.828994E-15
4.830000E+03	7.293352E-15	1.826744E-15
4.840000E+03	7.289617E-15	1.824116E-15
4.850000E+03	7.284921E-15	1.821165E-15
4.860000E+03	7.279321E-15	1.817902E-15
4.870000E+03	7.272876E-15	1.814341E-15
4.880000E+03	7.265724E-15	1.810516E-15
4.890000E+03	7.258007E-15	1.806460E-15
4.900000E+03	7.249783E-15	1.802188E-15
4.910000E+03	7.241271E-15	1.797753E-15
4.920000E+03	7.232371E-15	1.793131E-15
4.930000E+03	7.223300E-15	1.788376E-15
4.940000E+03	7.214195E-15	1.783521E-15
4.950000E+03	7.205032E-15	1.778561E-15
4.960000E+03	7.195946E-15	1.773530E-15
4.970000E+03	7.186989E-15	1.768443E-15
4.980000E+03	7.178291E-15	1.763332E-15
4.990000E+03	7.169900E-15	1.758211E-15
5.000000E+03	7.161785E-15	1.753074E-15
5.010000E+03	7.154146E-15	1.747972E-15
5.020000E+03	7.147023E-15	1.742916E-15
5.030000E+03	7.140376E-15	1.737901E-15
5.040000E+03	7.134316E-15	1.732955E-15
5.050000E+03	7.128874E-15	1.728090E-15
5.060000E+03	7.124153E-15	1.723334E-15
5.070000E+03	7.120098E-15	1.718678E-15
5.080000E+03	7.116728E-15	1.714130E-15
5.090000E+03	7.114207E-15	1.709735E-15
5.100000E+03	7.112392E-15	1.705463E-15
5.110000E+03	7.111365E-15	1.701340E-15
5.120000E+03	7.111123E-15	1.697371E-15
5.130000E+03	7.111735E-15	1.693578E-15
5.140000E+03	7.113042E-15	1.689931E-15
5.150000E+03	7.115177E-15	1.686468E-15
5.160000E+03	7.118120E-15	1.683192E-15
5.170000E+03	7.121769E-15	1.680087E-15
5.180000E+03	7.126096E-15	1.677156E-15
5.190000E+03	7.131141E-15	1.674416E-15
5.200000E+03	7.136863E-15	1.671869E-15
5.210000E+03	7.143146E-15	1.669495E-15
5.220000E+03	7.150017E-15	1.667313E-15
5.230000E+03	7.157425E-15	1.665321E-15
5.240000E+03	7.165241E-15	1.663500E-15
5.250000E+03	7.173409E-15	1.661848E-15
5.260000E+03	7.181942E-15	1.660380E-15
5.270000E+03	7.190779E-15	1.659093E-15
5.280000E+03	7.199706E-15	1.657950E-15
5.290000E+03	7.208807E-15	1.656981E-15
5.300000E+03	7.217939E-15	1.656166E-15
5.310000E+03	7.227036E-15	1.655499E-15
5.320000E+03	7.236028E-15	1.654976E-15
5.330000E+03	7.244774E-15	1.654576E-15
5.340000E+03	7.253206E-15	1.654291E-15
5.350000E+03	7.261257E-15	1.654117E-15
5.360000E+03	7.268862E-15	1.654046E-15
5.370000E+03	7.275883E-15	1.654056E-15
5.380000E+03	7.282258E-15	1.654137E-15
5.390000E+03	7.287856E-15	1.654265E-15
5.400000E+03	7.292619E-15	1.654431E-15
5.410000E+03	7.296348E-15	1.654593E-15
5.420000E+03	7.299067E-15	1.654757E-15
5.430000E+03	7.300586E-15	1.654880E-15
5.440000E+03	7.300863E-15	1.654950E-15
5.450000E+03	7.299716E-15	1.654923E-15
5.460000E+03	7.297041E-15	1.654771E-15
5.470000E+03	7.292741E-15	1.654464E-15
5.480000E+03	7.286795E-15	1.653990E-15
5.490000E+03	7.279190E-15	1.653338E-15
5.500000E+03	7.269844E-15	1.652479E-15
5.510000E+03	7.258828E-15	1.651418E-15
5.520000E+03	7.246291E-15	1.650176E-15
5.530000E+03	7.232166E-15	1.648724E-15
5.540000E+03	7.216682E-15	1.647103E-15
5.550000E+03	7.199927E-15	1.645317E-15
5.560000E+03	7.181919E-15	1.643357E-15
5.570000E+03	7.162896E-15	1.641262E-15
5.580000E+03	7.142737E-15	1.638989E-15
5.590000E+03	7.121755E-15	1.636597E-15
5.600000E+03	7.099834E-15	1.634043E-15
5.610000E+03	7.077144E-15	1.631353E-15
5.620000E+03	7.053717E-15	1.628518E-15
5.630000E+03	7.029651E-15	1.625550E-15
5.640000E+03	7.004976E-15	1.622441E-15
5.650000E+03	6.979722E-15	1.619185E-15
5.660000E+03	6.953916E-15	1.615776E-15
5.670000E+03	6.927728E-15	1.612242E-15
5.680000E+03	6.901043E-15	1.608546E-15
5.690000E+03	6.873955E-15	1.604698E-15
5.700000E+03	6.846560E-15	1.600710E-15
5.710000E+03	6.818807E-15	1.596563E-15
5.720000E+03	6.790787E-15	1.592268E-15
5.730000E+03	6.762449E-15	1.587805E-15
5.740000E+03	6.733879E-15	1.583188E-15
5.750000E+03	6.705091E-15	1.578413E-15
5.760000E+03	6.676099E-15	1.573477E-15
5.770000E+03	6.646916E-15	1.568378E-15
5.780000E+03	6.617484E-15	1.563098E-15
5.790000E+03	6.587949E-15	1.557666E-15
5.800000E+03	6.558254E-15	1.552066E-15
5.810000E+03	6.528339E-15	1.546280E-15
5.820000E+03	6.498347E-15	1.540340E-15
5.830000E+03	6.468155E-15	1.534214E-15
5.840000E+03	6.437837E-15	1.527918E-15
5.850000E+03	6.407403E-15	1.521454E-15
5.860000E+03	6.376862E-15	1.514823E-15
5.870000E+03	6.346225E-15	1.508028E-15
5.880000E+03	6.315436E-15	1.501056E-15
5.890000E+03	6.284510E-15	1.493911E-15
5.900000E+03	6.253523E-15	1.486612E-15
5.910000E+03	6.222425E-15	1.479150E-15
5.920000E+03	6.191231E-15	1.471530E-15
5.930000E+03	6.159893E-15	1.463743E-15
5.940000E+03	6.128555E-15	1.455825E-15
5.950000E+03	6.097106E-15	1.447755E-15
5.960000E+03	6.065564E-15	1.439540E-15
5.970000E+03	6.033949E-15	1.431188E-15
5.980000E+03	6.002215E-15	1.422693E-15
5.990000E+03	5.970445E-15	1.414079E-15
6.000000E+03	5.938654E-15	1.405355E-15
6.010000E+03	5.906678E-15	1.396488E-15
6.020000E+03	5.874716E-15	1.387530E-15
6.030000E+03	5.842604E-15	1.378448E-15
6.040000E+03	5.810417E-15	1.369267E-15
6.050000E+03	5.778170E-15	1.359997E-15
6.060000E+03	5.745757E-15	1.350621E-15
6.070000E+03	5.713250E-15	1.341161E-15
6.080000E+03	5.680541E-15	1.331602E-15
6.090000E+03	5.647700E-15	1.321967E-15
6.100000E+03	5.614673E-15	1.312252E-15
6.110000E+03	5.581468E-15	1.302467E-15
6.120000E+03	5.547973E-15	1.292595E-15
6.130000E+03	5.514306E-15	1.282673E-15
6.140000E+03	5.480351E-15	1.272684E-15
6.150000E+03	5.446163E-15	1.262649E-15
6.160000E+03	5.411627E-15	1.252551E-15
6.170000E+03	5.376792E-15	1.242413E-15
6.180000E+03	5.341707E-15	1.232254E-15
6.190000E+03	5.306250E-15	1.222057E-15
6.200000E+03	5.270465E-15	1.211841E-15
6.210000E+03	5.234338E-15	1.201614E-15
6.220000E+03	5.197855E-15	1.191382E-15
6.230000E+03	5.160943E-15	1.181137E-15
6.240000E+03	5.123748E-15	1.170922E-15
6.250000E+03	5.086088E-15	1.160705E-15
6.260000E+03	5.048103E-15	1.150526E-15
6.270000E+03	5.009718E-15	1.140376E-15
6.280000E+03	4.970909E-15	1.130258E-15
6.290000E+03	4.931708E-15	1.120184E-15
6.300000E+03	4.892091E-15	1.110156E-15
6.310000E+03	4.852035E-15	1.100175E-15
6.320000E+03	4.811518E-15	1.090241E-15
6.330000E+03	4.770520E-15	1.080351E-15
6.340000E+03	4.729122E-15	1.070529E-15
6.350000E+03	4.687155E-15	1.060737E-15
6.360000E+03	4.644752E-15	1.051008E-15
6.370000E+03	4.601850E-15	1.041326E-15
6.380000E+03	4.558389E-15	1.031677E-15
6.390000E+03	4.514410E-15	1.022069E-15
6.400000E+03	4.469910E-15	1.012497E-15
6.410000E+03	4.424888E-15	1.002958E-15
6.420000E+03	4.379300E-15	9.934355E-16
6.430000E+03	4.333202E-15	9.839369E-16
6.440000E+03	4.286607E-15	9.744578E-16
6.450000E+03	4.239486E-15	9.649838E-16
6.460000E+03	4.191861E-15	9.555115E-16
6.470000E+03	4.143806E-15	9.460485E-16
6.480000E+03	4.095306E-15	9.365820E-16
6.490000E+03	4.046443E-15	9.271207E-16
6.500000E+03	3.997213E-15	9.176532E-16
6.510000E+03	3.947704E-15	9.081898E-16
6.520000E+03	3.897921E-15	8.987209E-16
6.530000E+03	3.848004E-15	8.892681E-16
6.540000E+03	3.797962E-15	8.798238E-16
6.550000E+03	3.747897E-15	8.704011E-16
6.560000E+03	3.697867E-15	8.610039E-16
6.570000E+03	3.647975E-15	8.516468E-16
6.580000E+03	3.598241E-15	8.423256E-16
6.590000E+03	3.548809E-15	8.330659E-16
6.600000E+03	3.499742E-15	8.238744E-16
6.610000E+03	3.451102E-15	8.147584E-16
6.620000E+03	3.402988E-15	8.057352E-16
6.630000E+03	3.355462E-15	7.968129E-16
6.640000E+03	3.308619E-15	7.880094E-16
6.650000E+03	3.262477E-15	7.793240E-16
6.660000E+03	3.217167E-15	7.707838E-16
6.670000E+03	3.172702E-15	7.623886E-16
6.680000E+03	3.129167E-15	7.541562E-16
6.690000E+03	3.086643E-15	7.461040E-16
6.700000E+03	3.045137E-15	7.382315E-16
6.710000E+03	3.004722E-15	7.305557E-16
6.720000E+03	2.965434E-15	7.230841E-16
6.730000E+03	2.927338E-15	7.158329E-16
6.740000E+03	2.890427E-15	7.088002E-16
6.750000E+03	2.854760E-15	7.020010E-16
6.760000E+03	2.820357E-15	6.954411E-16
6.770000E+03	2.787236E-15	6.891258E-16
6.780000E+03	2.755410E-15	6.830599E-16
6.790000E+03	2.724923E-15	6.772558E-16
6.800000E+03	2.695781E-15	6.717170E-16
6.810000E+03	2.667990E-15	6.664465E-16
6.820000E+03	2.641517E-15	6.614383E-16
6.830000E+03	2.616427E-15	6.567107E-16
6.840000E+03	2.592683E-15	6.522566E-16
6.850000E+03	2.570278E-15	6.480768E-16
6.860000E+03	2.549204E-15	6.441713E-16
6.870000E+03	2.529483E-15	6.405479E-16
6.880000E+03	2.511101E-15	6.372055E-16
6.890000E+03	2.493983E-15	6.341269E-16
6.900000E+03	2.478206E-15	6.313341E-16
6.910000E+03	2.463690E-15	6.288090E-16
6.920000E+03	2.450448E-15	6.265569E-16
6.930000E+03	2.438461E-15	6.245747E-16
6.940000E+03	2.427676E-15	6.228510E-16
6.950000E+03	2.418134E-15	6.213979E-16
6.960000E+03	2.409750E-15	6.201955E-16
6.970000E+03	2.402501E-15	6.192394E-16
6.980000E+03	2.396424E-15	6.185405E-16
6.990000E+03	2.391433E-15	6.180782E-16
7.000000E+03	2.387533E-15	6.178550E-16
7.010000E+03	2.384667E-15	6.178574E-16
7.020000E+03	2.382871E-15	6.180954E-16
7.030000E+03	2.382055E-15	6.185473E-16
7.040000E+03	2.382192E-15	6.192065E-16
7.050000E+03	2.383285E-15	6.200747E-16
7.060000E+03	2.385306E-15	6.211450E-16
7.070000E+03	2.388164E-15	6.223945E-16
7.080000E+03	2.391922E-15	6.238401E-16
7.090000E+03	2.396459E-15	6.254504E-16
7.100000E+03	2.401807E-15	6.272339E-16
7.110000E+03	2.407873E-15	6.291666E-16
7.120000E+03	2.414689E-15	6.312571E-16
7.130000E+03	2.422162E-15	6.334807E-16
7.140000E+03	2.430292E-15	6.358376E-16
7.150000E+03	2.439016E-15	6.383110E-16
7.160000E+03	2.448334E-15	6.409006E-16
7.170000E+03	2.458183E-15	6.435896E-16
7.180000E+03	2.468530E-15	6.463690E-16
7.190000E+03	2.479343E-15	6.492300E-16
7.200000E+03	2.490557E-15	6.521550E-16
7.210000E+03	2.502172E-15	6.551434E-16
7.220000E+03	2.514121E-15	6.581775E-16
7.230000E+03	2.526373E-15	6.612479E-16
7.240000E+03	2.538859E-15	6.643367E-16
7.250000E+03	2.551582E-15	6.674431E-16
7.260000E+03	2.564472E-15	6.705490E-16
7.270000E+03	2.577464E-15	6.736361E-16
7.280000E+03	2.590557E-15	6.767038E-16
7.290000E+03	2.603684E-15	6.797338E-16
7.300000E+03	2.616778E-15	6.827077E-16
7.310000E+03	2.629768E-15	6.856071E-16
7.320000E+03	2.642692E-15	6.884406E-16
7.330000E+03	2.655410E-15	6.911719E-16
7.340000E+03	2.667925E-15	6.938007E-16
7.350000E+03	2.680168E-15	6.963089E-16
7.360000E+03	2.692069E-15	6.986782E-16
7.370000E+03	2.703596E-15	7.008999E-16
7.380000E+03	2.714715E-15	7.029651E-16
7.390000E+03	2.725322E-15	7.048468E-16
7.400000E+03	2.735420E-15	7.065460E-16
7.410000E+03	2.744903E-15	7.080359E-16
7.420000E+03	2.753813E-15	7.093273E-16
7.430000E+03	2.762045E-15	7.103938E-16
7.440000E+03	2.769567E-15	7.112282E-16
7.450000E+03	2.776385E-15	7.118329E-16
7.460000E+03	2.782471E-15	7.122012E-16
7.470000E+03	2.787793E-15	7.123268E-16
7.480000E+03	2.792324E-15	7.122039E-16
7.490000E+03	2.796110E-15	7.118457E-16
7.500000E+03	2.799086E-15	7.112377E-16
7.510000E+03	2.801227E-15	7.103751E-16
7.520000E+03	2.802582E-15	7.092724E-16
7.530000E+03	2.803126E-15	7.079257E-16
7.540000E+03	2.802835E-15	7.063315E-16
7.550000E+03	2.801724E-15	7.044962E-16
7.560000E+03	2.799734E-15	7.024076E-16
7.570000E+03	2.796918E-15	7.000824E-16
7.580000E+03	2.793220E-15	6.975096E-16
7.590000E+03	2.788694E-15	6.947066E-16
7.600000E+03	2.783250E-15	6.916541E-16
7.610000E+03	2.776945E-15	6.883707E-16
7.620000E+03	2.769764E-15	6.848568E-16
7.630000E+03	2.761693E-15	6.811133E-16
7.640000E+03	2.752722E-15	6.771419E-16
7.650000E+03	2.742840E-15	6.729448E-16
7.660000E+03	2.732038E-15	6.685251E-16
7.670000E+03	2.720384E-15	6.639042E-16
7.680000E+03	2.707763E-15	6.590596E-16
7.690000E+03	2.694284E-15	6.540228E-16
7.700000E+03	2.679909E-15	6.487906E-16
7.710000E+03	2.664605E-15	6.433605E-16
7.720000E+03	2.648414E-15	6.377481E-16
7.730000E+03	2.631379E-15	6.319698E-16
7.740000E+03	2.613439E-15	6.260166E-16
7.750000E+03	2.594679E-15	6.199145E-16
7.760000E+03	2.575043E-15	6.136559E-16
