#wls	flux	fluxerr
1.600000E+03	7.165648E-17	7.916271E-17
1.640000E+03	7.093121E-17	7.809240E-17
1.680000E+03	7.024583E-17	7.707232E-17
1.720000E+03	6.962646E-17	7.613055E-17
1.760000E+03	6.906168E-17	7.525389E-17
1.800000E+03	6.855253E-17	7.444277E-17
1.840000E+03	6.811187E-17	7.371043E-17
1.880000E+03	6.772845E-17	7.304389E-17
1.920000E+03	6.740307E-17	7.244328E-17
1.960000E+03	6.714820E-17	7.192120E-17
2.000000E+03	6.695269E-17	7.146485E-17
2.040000E+03	6.681722E-17	7.107416E-17
2.080000E+03	6.675397E-17	7.076125E-17
2.120000E+03	6.675191E-17	7.051348E-17
2.160000E+03	6.682314E-17	7.034278E-17
2.200000E+03	6.695664E-17	7.023658E-17
2.240000E+03	6.715294E-17	7.019456E-17
2.280000E+03	6.742411E-17	7.022839E-17
2.320000E+03	6.775910E-17	7.032554E-17
2.360000E+03	6.816999E-17	7.049759E-17
2.400000E+03	6.864567E-17	7.073197E-17
2.440000E+03	6.919829E-17	7.104019E-17
2.480000E+03	6.981658E-17	7.140959E-17
2.520000E+03	7.050085E-17	7.183948E-17
2.560000E+03	7.126338E-17	7.234126E-17
2.600000E+03	7.210466E-17	7.291425E-17
2.640000E+03	7.300064E-17	7.353302E-17
2.680000E+03	7.398811E-17	7.423352E-17
2.720000E+03	7.503024E-17	7.497757E-17
2.760000E+03	7.616437E-17	7.580138E-17
2.800000E+03	7.735259E-17	7.666597E-17
2.840000E+03	7.861990E-17	7.759504E-17
2.880000E+03	7.996607E-17	7.858712E-17
2.920000E+03	8.137738E-17	7.962754E-17
2.960000E+03	8.285267E-17	8.071409E-17
3.000000E+03	8.440425E-17	8.185769E-17
3.010000E+03	8.481215E-17	8.216020E-17
3.020000E+03	8.521005E-17	8.245188E-17
3.030000E+03	8.561169E-17	8.274603E-17
3.040000E+03	8.603102E-17	8.305611E-17
3.050000E+03	8.644009E-17	8.335511E-17
3.060000E+03	8.686688E-17	8.367002E-17
3.070000E+03	8.728324E-17	8.397368E-17
3.080000E+03	8.770315E-17	8.427957E-17
3.090000E+03	8.814084E-17	8.460133E-17
3.100000E+03	8.858212E-17	8.492529E-17
3.110000E+03	8.901257E-17	8.523764E-17
3.120000E+03	8.946084E-17	8.556582E-17
3.130000E+03	8.989806E-17	8.588219E-17
3.140000E+03	9.035313E-17	8.621435E-17
3.150000E+03	9.081156E-17	8.654844E-17
3.160000E+03	9.125862E-17	8.687042E-17
3.170000E+03	9.172354E-17	8.720814E-17
3.180000E+03	9.219166E-17	8.754760E-17
3.190000E+03	9.264806E-17	8.787466E-17
3.200000E+03	9.312234E-17	8.821737E-17
3.210000E+03	9.359963E-17	8.856164E-17
3.220000E+03	9.407988E-17	8.890739E-17
3.230000E+03	9.456302E-17	8.925455E-17
3.240000E+03	9.503381E-17	8.958875E-17
3.250000E+03	9.552246E-17	8.993849E-17
3.260000E+03	9.601379E-17	9.028943E-17
3.270000E+03	9.650772E-17	9.064149E-17
3.280000E+03	9.700419E-17	9.099461E-17
3.290000E+03	9.750311E-17	9.134870E-17
3.300000E+03	9.800441E-17	9.170369E-17
3.310000E+03	9.850799E-17	9.205950E-17
3.320000E+03	9.901378E-17	9.241605E-17
3.330000E+03	9.952168E-17	9.277326E-17
3.340000E+03	1.000316E-16	9.313104E-17
3.350000E+03	1.005435E-16	9.348931E-17
3.360000E+03	1.010731E-16	9.386279E-17
3.370000E+03	1.015886E-16	9.422183E-17
3.380000E+03	1.021058E-16	9.458109E-17
3.390000E+03	1.026245E-16	9.494049E-17
3.400000E+03	1.031446E-16	9.529995E-17
3.410000E+03	1.036661E-16	9.565936E-17
3.420000E+03	1.042051E-16	9.603370E-17
3.430000E+03	1.047289E-16	9.639278E-17
3.440000E+03	1.052537E-16	9.675154E-17
3.450000E+03	1.057794E-16	9.710988E-17
3.460000E+03	1.063225E-16	9.748292E-17
3.470000E+03	1.068497E-16	9.784016E-17
3.480000E+03	1.073773E-16	9.819667E-17
3.490000E+03	1.079221E-16	9.856771E-17
3.500000E+03	1.084504E-16	9.892250E-17
3.510000E+03	1.089958E-16	9.929170E-17
3.520000E+03	1.095243E-16	9.964437E-17
3.530000E+03	1.100525E-16	9.999579E-17
3.540000E+03	1.105977E-16	1.003614E-16
3.550000E+03	1.111252E-16	1.007101E-16
3.560000E+03	1.116695E-16	1.010728E-16
3.570000E+03	1.121957E-16	1.014182E-16
3.580000E+03	1.127385E-16	1.017776E-16
3.590000E+03	1.132628E-16	1.021193E-16
3.600000E+03	1.138035E-16	1.024749E-16
3.610000E+03	1.143252E-16	1.028125E-16
3.620000E+03	1.148631E-16	1.031638E-16
3.630000E+03	1.153817E-16	1.034968E-16
3.640000E+03	1.159161E-16	1.038433E-16
3.650000E+03	1.164308E-16	1.041713E-16
3.660000E+03	1.169611E-16	1.045126E-16
3.670000E+03	1.174712E-16	1.048351E-16
3.680000E+03	1.179966E-16	1.051707E-16
3.690000E+03	1.185014E-16	1.054872E-16
3.700000E+03	1.190213E-16	1.058166E-16
3.710000E+03	1.195381E-16	1.061427E-16
3.720000E+03	1.200335E-16	1.064492E-16
3.730000E+03	1.205436E-16	1.067684E-16
3.740000E+03	1.210501E-16	1.070840E-16
3.750000E+03	1.215344E-16	1.073795E-16
3.760000E+03	1.220330E-16	1.076875E-16
3.770000E+03	1.225089E-16	1.079750E-16
3.780000E+03	1.229988E-16	1.082747E-16
3.790000E+03	1.234840E-16	1.085702E-16
3.800000E+03	1.239457E-16	1.088449E-16
3.810000E+03	1.244211E-16	1.091314E-16
3.820000E+03	1.248911E-16	1.094133E-16
3.830000E+03	1.253368E-16	1.096740E-16
3.840000E+03	1.257957E-16	1.099462E-16
3.850000E+03	1.262486E-16	1.102134E-16
3.860000E+03	1.266764E-16	1.104590E-16
3.870000E+03	1.271168E-16	1.107158E-16
3.880000E+03	1.275506E-16	1.109672E-16
3.890000E+03	1.279585E-16	1.111965E-16
3.900000E+03	1.283785E-16	1.114368E-16
3.910000E+03	1.287721E-16	1.116546E-16
3.920000E+03	1.291774E-16	1.118833E-16
3.930000E+03	1.295751E-16	1.121060E-16
3.940000E+03	1.299455E-16	1.123058E-16
3.950000E+03	1.303272E-16	1.125161E-16
3.960000E+03	1.307005E-16	1.127201E-16
3.970000E+03	1.310458E-16	1.129008E-16
3.980000E+03	1.314018E-16	1.130918E-16
3.990000E+03	1.317488E-16	1.132761E-16
4.000000E+03	1.320671E-16	1.134368E-16
4.010000E+03	1.323956E-16	1.136073E-16
4.020000E+03	1.326948E-16	1.137541E-16
4.030000E+03	1.330038E-16	1.139105E-16
4.040000E+03	1.332831E-16	1.140430E-16
4.050000E+03	1.335718E-16	1.141849E-16
4.060000E+03	1.338501E-16	1.143195E-16
4.070000E+03	1.340981E-16	1.144297E-16
4.080000E+03	1.343550E-16	1.145491E-16
4.090000E+03	1.345811E-16	1.146440E-16
4.100000E+03	1.348158E-16	1.147480E-16
4.110000E+03	1.350193E-16	1.148273E-16
4.120000E+03	1.352311E-16	1.149155E-16
4.130000E+03	1.354113E-16	1.149789E-16
4.140000E+03	1.355995E-16	1.150510E-16
4.150000E+03	1.357559E-16	1.150982E-16
4.160000E+03	1.359198E-16	1.151539E-16
4.170000E+03	1.360517E-16	1.151845E-16
4.180000E+03	1.361710E-16	1.152069E-16
4.190000E+03	1.362976E-16	1.152376E-16
4.200000E+03	1.363917E-16	1.152431E-16
4.210000E+03	1.364927E-16	1.152568E-16
4.220000E+03	1.365609E-16	1.152453E-16
4.230000E+03	1.366161E-16	1.152253E-16
4.240000E+03	1.366780E-16	1.152133E-16
4.250000E+03	1.367069E-16	1.151760E-16
4.260000E+03	1.367224E-16	1.151301E-16
4.270000E+03	1.367246E-16	1.150755E-16
4.280000E+03	1.367332E-16	1.150288E-16
4.290000E+03	1.367085E-16	1.149568E-16
4.300000E+03	1.366703E-16	1.148761E-16
4.310000E+03	1.366187E-16	1.147868E-16
4.320000E+03	1.365534E-16	1.146887E-16
4.330000E+03	1.364943E-16	1.145984E-16
4.340000E+03	1.364019E-16	1.144830E-16
4.350000E+03	1.362960E-16	1.143589E-16
4.360000E+03	1.361766E-16	1.142262E-16
4.370000E+03	1.360437E-16	1.140850E-16
4.380000E+03	1.358974E-16	1.139351E-16
4.390000E+03	1.357376E-16	1.137768E-16
4.400000E+03	1.355646E-16	1.136099E-16
4.410000E+03	1.353782E-16	1.134347E-16
4.420000E+03	1.351787E-16	1.132510E-16
4.430000E+03	1.349661E-16	1.130591E-16
4.440000E+03	1.347213E-16	1.128428E-16
4.450000E+03	1.344828E-16	1.126344E-16
4.460000E+03	1.342315E-16	1.124180E-16
4.470000E+03	1.339676E-16	1.121934E-16
4.480000E+03	1.336911E-16	1.119609E-16
4.490000E+03	1.333833E-16	1.117047E-16
4.500000E+03	1.330823E-16	1.114566E-16
4.510000E+03	1.327691E-16	1.112008E-16
4.520000E+03	1.324253E-16	1.109216E-16
4.530000E+03	1.320885E-16	1.106507E-16
4.540000E+03	1.317401E-16	1.103723E-16
4.550000E+03	1.313618E-16	1.100711E-16
4.560000E+03	1.309908E-16	1.097783E-16
4.570000E+03	1.305904E-16	1.094629E-16
4.580000E+03	1.301976E-16	1.091560E-16
4.590000E+03	1.297759E-16	1.088270E-16
4.600000E+03	1.293439E-16	1.084912E-16
4.610000E+03	1.289199E-16	1.081641E-16
4.620000E+03	1.284678E-16	1.078154E-16
4.630000E+03	1.280062E-16	1.074603E-16
4.640000E+03	1.275529E-16	1.071141E-16
4.650000E+03	1.270724E-16	1.067468E-16
4.660000E+03	1.265830E-16	1.063735E-16
4.670000E+03	1.260848E-16	1.059945E-16
4.680000E+03	1.255781E-16	1.056098E-16
4.690000E+03	1.250631E-16	1.052195E-16
4.700000E+03	1.245574E-16	1.048385E-16
4.710000E+03	1.240263E-16	1.044375E-16
4.720000E+03	1.234877E-16	1.040313E-16
4.730000E+03	1.229246E-16	1.036058E-16
4.740000E+03	1.223716E-16	1.031898E-16
4.750000E+03	1.218116E-16	1.027691E-16
4.760000E+03	1.212450E-16	1.023438E-16
4.770000E+03	1.206719E-16	1.019140E-16
4.780000E+03	1.200926E-16	1.014798E-16
4.790000E+03	1.194908E-16	1.010275E-16
4.800000E+03	1.188999E-16	1.005851E-16
4.810000E+03	1.183034E-16	1.001387E-16
4.820000E+03	1.176854E-16	9.967479E-17
4.830000E+03	1.170787E-16	9.922102E-17
4.840000E+03	1.164511E-16	9.875004E-17
4.850000E+03	1.158350E-16	9.828935E-17
4.860000E+03	1.151986E-16	9.781185E-17
4.870000E+03	1.145740E-16	9.734475E-17
4.880000E+03	1.139298E-16	9.686126E-17
4.890000E+03	1.132975E-16	9.638826E-17
4.900000E+03	1.126463E-16	9.589926E-17
4.910000E+03	1.119918E-16	9.540774E-17
4.920000E+03	1.113344E-16	9.491382E-17
4.930000E+03	1.106895E-16	9.443060E-17
4.940000E+03	1.100267E-16	9.393216E-17
4.950000E+03	1.093616E-16	9.343169E-17
4.960000E+03	1.086943E-16	9.292930E-17
4.970000E+03	1.080250E-16	9.242510E-17
4.980000E+03	1.073540E-16	9.191921E-17
4.990000E+03	1.066813E-16	9.141175E-17
5.000000E+03	1.060072E-16	9.090283E-17
5.010000E+03	1.053318E-16	9.039255E-17
5.020000E+03	1.046411E-16	8.986875E-17
5.030000E+03	1.039639E-16	8.935617E-17
5.040000E+03	1.032859E-16	8.884257E-17
5.050000E+03	1.026073E-16	8.832804E-17
5.060000E+03	1.019144E-16	8.780071E-17
5.070000E+03	1.012353E-16	8.728472E-17
5.080000E+03	1.005423E-16	8.675629E-17
5.090000E+03	9.986309E-17	8.623924E-17
5.100000E+03	9.918410E-17	8.572176E-17
5.110000E+03	9.849201E-17	8.519236E-17
5.120000E+03	9.780057E-17	8.466288E-17
5.130000E+03	9.712312E-17	8.414484E-17
5.140000E+03	9.643327E-17	8.361539E-17
5.150000E+03	9.574446E-17	8.308612E-17
5.160000E+03	9.506972E-17	8.256833E-17
5.170000E+03	9.438325E-17	8.203961E-17
5.180000E+03	9.369818E-17	8.151133E-17
5.190000E+03	9.301461E-17	8.098358E-17
5.200000E+03	9.233267E-17	8.045641E-17
5.210000E+03	9.165245E-17	7.992993E-17
5.220000E+03	9.097406E-17	7.940420E-17
5.230000E+03	9.029760E-17	7.887929E-17
5.240000E+03	8.962316E-17	7.835528E-17
5.250000E+03	8.895085E-17	7.783224E-17
5.260000E+03	8.828074E-17	7.731023E-17
5.270000E+03	8.761293E-17	7.678934E-17
5.280000E+03	8.693576E-17	7.625930E-17
5.290000E+03	8.627289E-17	7.574088E-17
5.300000E+03	8.561257E-17	7.522376E-17
5.310000E+03	8.494340E-17	7.469791E-17
5.320000E+03	8.428848E-17	7.418363E-17
5.330000E+03	8.363633E-17	7.367082E-17
5.340000E+03	8.297581E-17	7.314968E-17
5.350000E+03	8.232948E-17	7.264006E-17
5.360000E+03	8.167509E-17	7.212236E-17
5.370000E+03	8.102391E-17	7.160649E-17
5.380000E+03	8.038681E-17	7.110207E-17
5.390000E+03	7.974210E-17	7.058994E-17
5.400000E+03	7.910076E-17	7.007978E-17
5.410000E+03	7.847339E-17	6.958100E-17
5.420000E+03	7.783883E-17	6.907485E-17
5.430000E+03	7.720777E-17	6.857080E-17
5.440000E+03	7.658026E-17	6.806889E-17
5.450000E+03	7.595633E-17	6.756917E-17
5.460000E+03	7.533603E-17	6.707167E-17
5.470000E+03	7.471939E-17	6.657642E-17
5.480000E+03	7.410644E-17	6.608346E-17
5.490000E+03	7.349722E-17	6.559283E-17
5.500000E+03	7.289175E-17	6.510455E-17
5.510000E+03	7.229007E-17	6.461867E-17
5.520000E+03	7.169220E-17	6.413519E-17
5.530000E+03	7.108864E-17	6.364563E-17
5.540000E+03	7.049855E-17	6.316714E-17
5.550000E+03	6.991233E-17	6.269115E-17
5.560000E+03	6.932073E-17	6.220934E-17
5.570000E+03	6.874241E-17	6.173849E-17
5.580000E+03	6.816803E-17	6.127020E-17
5.590000E+03	6.758854E-17	6.079636E-17
5.600000E+03	6.702214E-17	6.033334E-17
5.610000E+03	6.645082E-17	5.986493E-17
5.620000E+03	6.589246E-17	5.940725E-17
5.630000E+03	6.532935E-17	5.894435E-17
5.640000E+03	6.477038E-17	5.848425E-17
5.650000E+03	6.422417E-17	5.803474E-17
5.660000E+03	6.367345E-17	5.758024E-17
5.670000E+03	6.312690E-17	5.712859E-17
5.680000E+03	6.258450E-17	5.667980E-17
5.690000E+03	6.205457E-17	5.624139E-17
5.700000E+03	6.152044E-17	5.579829E-17
5.710000E+03	6.099047E-17	5.535807E-17
5.720000E+03	6.046465E-17	5.492075E-17
5.730000E+03	5.994300E-17	5.448634E-17
5.740000E+03	5.942549E-17	5.405483E-17
5.750000E+03	5.891213E-17	5.362624E-17
5.760000E+03	5.840291E-17	5.320058E-17
5.770000E+03	5.789781E-17	5.277783E-17
5.780000E+03	5.739684E-17	5.235802E-17
5.790000E+03	5.689999E-17	5.194114E-17
5.800000E+03	5.639970E-17	5.152031E-17
5.810000E+03	5.591110E-17	5.110936E-17
5.820000E+03	5.542659E-17	5.070134E-17
5.830000E+03	5.494614E-17	5.029625E-17
5.840000E+03	5.446248E-17	4.988745E-17
5.850000E+03	5.399019E-17	4.948829E-17
5.860000E+03	5.352193E-17	4.909206E-17
5.870000E+03	5.305060E-17	4.869227E-17
5.880000E+03	5.259041E-17	4.830195E-17
5.890000E+03	5.212724E-17	4.790817E-17
5.900000E+03	5.167506E-17	4.752375E-17
5.910000E+03	5.121999E-17	4.713595E-17
5.920000E+03	5.077574E-17	4.675741E-17
5.930000E+03	5.032869E-17	4.637559E-17
5.940000E+03	4.988566E-17	4.599677E-17
5.950000E+03	4.945320E-17	4.562702E-17
5.960000E+03	4.901807E-17	4.525413E-17
5.970000E+03	4.858689E-17	4.488422E-17
5.980000E+03	4.816606E-17	4.452321E-17
5.990000E+03	4.774265E-17	4.415917E-17
6.000000E+03	4.732314E-17	4.379809E-17
6.010000E+03	4.690748E-17	4.343995E-17
6.020000E+03	4.649567E-17	4.308474E-17
6.030000E+03	4.608768E-17	4.273246E-17
6.040000E+03	4.568957E-17	4.238873E-17
6.050000E+03	4.528909E-17	4.204220E-17
6.060000E+03	4.489236E-17	4.169857E-17
6.070000E+03	4.449935E-17	4.135781E-17
6.080000E+03	4.411005E-17	4.101991E-17
6.090000E+03	4.372442E-17	4.068487E-17
6.100000E+03	4.333667E-17	4.034729E-17
6.110000E+03	4.295838E-17	4.001796E-17
6.120000E+03	4.258369E-17	3.969144E-17
6.130000E+03	4.221257E-17	3.936772E-17
6.140000E+03	4.184502E-17	3.904679E-17
6.150000E+03	4.148099E-17	3.872864E-17
6.160000E+03	4.111498E-17	3.840812E-17
6.170000E+03	4.075798E-17	3.809551E-17
6.180000E+03	4.040444E-17	3.778563E-17
6.190000E+03	4.005432E-17	3.747846E-17
6.200000E+03	3.970231E-17	3.716904E-17
6.210000E+03	3.935902E-17	3.686730E-17
6.220000E+03	3.901908E-17	3.656823E-17
6.230000E+03	3.867730E-17	3.626698E-17
6.240000E+03	3.834403E-17	3.597325E-17
6.250000E+03	3.800897E-17	3.567738E-17
6.260000E+03	3.768226E-17	3.538892E-17
6.270000E+03	3.735379E-17	3.509837E-17
6.280000E+03	3.703355E-17	3.481511E-17
6.290000E+03	3.671158E-17	3.452981E-17
6.300000E+03	3.639769E-17	3.425169E-17
6.310000E+03	3.608211E-17	3.397157E-17
6.320000E+03	3.576970E-17	3.369403E-17
6.330000E+03	3.546517E-17	3.342351E-17
6.340000E+03	3.515899E-17	3.315105E-17
6.350000E+03	3.486056E-17	3.288551E-17
6.360000E+03	3.456050E-17	3.261805E-17
6.370000E+03	3.426349E-17	3.235309E-17
6.380000E+03	3.396949E-17	3.209061E-17
6.390000E+03	3.368298E-17	3.183484E-17
6.400000E+03	3.339489E-17	3.157722E-17
6.410000E+03	3.310974E-17	3.132203E-17
6.420000E+03	3.282750E-17	3.106924E-17
6.430000E+03	3.254815E-17	3.081883E-17
6.440000E+03	3.227165E-17	3.057080E-17
6.450000E+03	3.200225E-17	3.032917E-17
6.460000E+03	3.173136E-17	3.008579E-17
6.470000E+03	3.146324E-17	2.984472E-17
6.480000E+03	3.119787E-17	2.960594E-17
6.490000E+03	3.093523E-17	2.936945E-17
6.500000E+03	3.067529E-17	2.913521E-17
6.510000E+03	3.041803E-17	2.890321E-17
6.520000E+03	3.016342E-17	2.867343E-17
6.530000E+03	2.991144E-17	2.844586E-17
6.540000E+03	2.966205E-17	2.822047E-17
6.550000E+03	2.941525E-17	2.799725E-17
6.560000E+03	2.917099E-17	2.777618E-17
6.570000E+03	2.892538E-17	2.755354E-17
6.580000E+03	2.868617E-17	2.733674E-17
6.590000E+03	2.844945E-17	2.712203E-17
6.600000E+03	2.821517E-17	2.690939E-17
6.610000E+03	2.798331E-17	2.669880E-17
6.620000E+03	2.775386E-17	2.649026E-17
6.630000E+03	2.752310E-17	2.628021E-17
6.640000E+03	2.729840E-17	2.607571E-17
6.650000E+03	2.707604E-17	2.587319E-17
6.660000E+03	2.685598E-17	2.567264E-17
6.670000E+03	2.663462E-17	2.547061E-17
6.680000E+03	2.641913E-17	2.527396E-17
6.690000E+03	2.620586E-17	2.507921E-17
6.700000E+03	2.599132E-17	2.488302E-17
6.710000E+03	2.578248E-17	2.469206E-17
6.720000E+03	2.557237E-17	2.449968E-17
6.730000E+03	2.536786E-17	2.431244E-17
6.740000E+03	2.516547E-17	2.412702E-17
6.750000E+03	2.496181E-17	2.394019E-17
6.760000E+03	2.476361E-17	2.375838E-17
6.770000E+03	2.456416E-17	2.357516E-17
6.780000E+03	2.437005E-17	2.339689E-17
6.790000E+03	2.417470E-17	2.321723E-17
6.800000E+03	2.398461E-17	2.304243E-17
6.810000E+03	2.379328E-17	2.286625E-17
6.820000E+03	2.360711E-17	2.269484E-17
6.830000E+03	2.341971E-17	2.252206E-17
6.840000E+03	2.323425E-17	2.235098E-17
6.850000E+03	2.305381E-17	2.218455E-17
6.860000E+03	2.287215E-17	2.201677E-17
6.870000E+03	2.269542E-17	2.185357E-17
6.880000E+03	2.251746E-17	2.168902E-17
6.890000E+03	2.234135E-17	2.152608E-17
6.900000E+03	2.217003E-17	2.136761E-17
6.910000E+03	2.199750E-17	2.120780E-17
6.920000E+03	2.182675E-17	2.104954E-17
6.930000E+03	2.165774E-17	2.089283E-17
6.940000E+03	2.149337E-17	2.074042E-17
6.950000E+03	2.132779E-17	2.058671E-17
6.960000E+03	2.116390E-17	2.043448E-17
6.970000E+03	2.100169E-17	2.028372E-17
6.980000E+03	2.084112E-17	2.013442E-17
6.990000E+03	2.068220E-17	1.998656E-17
7.000000E+03	2.052766E-17	1.984280E-17
7.010000E+03	2.037192E-17	1.969776E-17
7.020000E+03	2.021776E-17	1.955410E-17
7.030000E+03	2.006516E-17	1.941182E-17
7.040000E+03	1.991409E-17	1.927091E-17
7.050000E+03	1.976455E-17	1.913134E-17
7.060000E+03	1.961652E-17	1.899311E-17
7.070000E+03	1.946997E-17	1.885620E-17
7.080000E+03	1.932489E-17	1.872059E-17
7.090000E+03	1.918126E-17	1.858627E-17
7.100000E+03	1.903906E-17	1.845323E-17
7.110000E+03	1.889828E-17	1.832144E-17
7.120000E+03	1.875890E-17	1.819091E-17
7.130000E+03	1.862091E-17	1.806161E-17
7.140000E+03	1.848428E-17	1.793353E-17
7.150000E+03	1.834900E-17	1.780666E-17
7.160000E+03	1.821506E-17	1.768098E-17
7.170000E+03	1.807999E-17	1.755410E-17
7.180000E+03	1.794869E-17	1.743079E-17
7.190000E+03	1.781867E-17	1.730864E-17
7.200000E+03	1.768993E-17	1.718763E-17
7.210000E+03	1.756245E-17	1.706775E-17
7.220000E+03	1.743385E-17	1.694668E-17
7.230000E+03	1.730886E-17	1.682904E-17
7.240000E+03	1.718508E-17	1.671250E-17
7.250000E+03	1.706251E-17	1.659704E-17
7.260000E+03	1.693882E-17	1.648040E-17
7.270000E+03	1.681862E-17	1.636709E-17
7.280000E+03	1.669958E-17	1.625483E-17
7.290000E+03	1.657944E-17	1.614140E-17
7.300000E+03	1.646269E-17	1.603122E-17
7.310000E+03	1.634707E-17	1.592205E-17
7.320000E+03	1.623035E-17	1.581174E-17
7.330000E+03	1.611695E-17	1.570459E-17
7.340000E+03	1.600245E-17	1.559630E-17
7.350000E+03	1.589122E-17	1.549113E-17
7.360000E+03	1.577890E-17	1.538483E-17
7.370000E+03	1.566980E-17	1.528160E-17
7.380000E+03	1.555960E-17	1.517724E-17
7.390000E+03	1.545258E-17	1.507590E-17
7.400000E+03	1.534447E-17	1.497346E-17
7.410000E+03	1.523947E-17	1.487399E-17
7.420000E+03	1.513340E-17	1.477341E-17
7.430000E+03	1.502835E-17	1.467376E-17
7.440000E+03	1.492633E-17	1.457703E-17
7.450000E+03	1.482325E-17	1.447920E-17
7.460000E+03	1.472317E-17	1.438425E-17
7.470000E+03	1.462203E-17	1.428821E-17
7.480000E+03	1.452185E-17	1.419306E-17
7.490000E+03	1.442262E-17	1.409879E-17
7.500000E+03	1.432630E-17	1.400731E-17
7.510000E+03	1.422893E-17	1.391477E-17
7.520000E+03	1.413249E-17	1.382308E-17
7.530000E+03	1.403697E-17	1.373225E-17
7.540000E+03	1.394427E-17	1.364413E-17
7.550000E+03	1.385054E-17	1.355497E-17
7.560000E+03	1.375771E-17	1.346663E-17
7.570000E+03	1.366575E-17	1.337912E-17
7.580000E+03	1.357468E-17	1.329243E-17
7.590000E+03	1.348447E-17	1.320655E-17
7.600000E+03	1.339512E-17	1.312148E-17
7.610000E+03	1.330663E-17	1.303720E-17
7.620000E+03	1.321898E-17	1.295372E-17
7.630000E+03	1.313217E-17	1.287103E-17
7.640000E+03	1.304620E-17	1.278912E-17
7.650000E+03	1.296105E-17	1.270798E-17
7.660000E+03	1.287673E-17	1.262762E-17
7.670000E+03	1.279321E-17	1.254803E-17
7.680000E+03	1.271051E-17	1.246920E-17
7.690000E+03	1.262861E-17	1.239113E-17
7.700000E+03	1.254750E-17	1.231380E-17
7.710000E+03	1.246719E-17	1.223723E-17
7.720000E+03	1.238766E-17	1.216140E-17
7.730000E+03	1.230891E-17	1.208631E-17
7.740000E+03	1.222924E-17	1.201029E-17
7.750000E+03	1.215204E-17	1.193668E-17
7.760000E+03	1.207561E-17	1.186379E-17
