#wls	flux	fluxerr
1.600000E+03	3.903423E-17	4.518617E-17
1.640000E+03	3.888086E-17	4.488353E-17
1.680000E+03	3.874954E-17	4.460683E-17
1.720000E+03	3.864791E-17	4.436459E-17
1.760000E+03	3.856979E-17	4.414942E-17
1.800000E+03	3.850908E-17	4.395408E-17
1.840000E+03	3.848017E-17	4.379473E-17
1.880000E+03	3.848371E-17	4.367175E-17
1.920000E+03	3.850673E-17	4.357009E-17
1.960000E+03	3.856355E-17	4.350563E-17
2.000000E+03	3.864117E-17	4.346335E-17
2.040000E+03	3.875389E-17	4.345899E-17
2.080000E+03	3.889553E-17	4.348518E-17
2.120000E+03	3.907359E-17	4.354990E-17
2.160000E+03	3.927496E-17	4.363811E-17
2.200000E+03	3.951404E-17	4.376539E-17
2.240000E+03	3.978457E-17	4.392432E-17
2.280000E+03	4.008715E-17	4.411508E-17
2.320000E+03	4.042237E-17	4.433785E-17
2.360000E+03	4.079080E-17	4.459274E-17
2.400000E+03	4.120019E-17	4.488769E-17
2.440000E+03	4.164401E-17	4.521499E-17
2.480000E+03	4.212281E-17	4.557466E-17
2.520000E+03	4.263707E-17	4.596665E-17
2.560000E+03	4.319478E-17	4.639893E-17
2.600000E+03	4.378903E-17	4.686342E-17
2.640000E+03	4.441254E-17	4.735172E-17
2.680000E+03	4.508873E-17	4.788813E-17
2.720000E+03	4.579480E-17	4.844769E-17
2.760000E+03	4.653867E-17	4.903816E-17
2.800000E+03	4.732858E-17	4.966750E-17
2.840000E+03	4.815670E-17	5.032671E-17
2.880000E+03	4.902296E-17	5.101503E-17
2.920000E+03	4.992717E-17	5.173155E-17
2.960000E+03	5.087771E-17	5.248421E-17
3.000000E+03	5.185686E-17	5.325402E-17
3.010000E+03	5.211183E-17	5.345494E-17
3.020000E+03	5.236910E-17	5.365740E-17
3.030000E+03	5.261971E-17	5.385222E-17
3.040000E+03	5.288152E-17	5.405769E-17
3.050000E+03	5.314560E-17	5.426463E-17
3.060000E+03	5.340286E-17	5.446376E-17
3.070000E+03	5.367140E-17	5.467355E-17
3.080000E+03	5.394216E-17	5.488474E-17
3.090000E+03	5.421513E-17	5.509731E-17
3.100000E+03	5.448104E-17	5.530184E-17
3.110000E+03	5.475831E-17	5.551703E-17
3.120000E+03	5.503774E-17	5.573352E-17
3.130000E+03	5.531929E-17	5.595126E-17
3.140000E+03	5.560295E-17	5.617023E-17
3.150000E+03	5.587923E-17	5.638085E-17
3.160000E+03	5.616697E-17	5.660214E-17
3.170000E+03	5.645675E-17	5.682456E-17
3.180000E+03	5.674854E-17	5.704808E-17
3.190000E+03	5.704229E-17	5.727265E-17
3.200000E+03	5.733800E-17	5.749825E-17
3.210000E+03	5.762590E-17	5.771509E-17
3.220000E+03	5.792536E-17	5.794259E-17
3.230000E+03	5.822668E-17	5.817100E-17
3.240000E+03	5.852982E-17	5.840028E-17
3.250000E+03	5.883474E-17	5.863039E-17
3.260000E+03	5.914141E-17	5.886129E-17
3.270000E+03	5.944979E-17	5.909294E-17
3.280000E+03	5.975984E-17	5.932529E-17
3.290000E+03	6.007152E-17	5.955831E-17
3.300000E+03	6.038479E-17	5.979194E-17
3.310000E+03	6.069961E-17	6.002614E-17
3.320000E+03	6.101593E-17	6.026086E-17
3.330000E+03	6.133370E-17	6.049606E-17
3.340000E+03	6.164254E-17	6.072151E-17
3.350000E+03	6.196303E-17	6.095748E-17
3.360000E+03	6.228483E-17	6.119378E-17
3.370000E+03	6.260788E-17	6.143036E-17
3.380000E+03	6.293213E-17	6.166716E-17
3.390000E+03	6.325753E-17	6.190414E-17
3.400000E+03	6.358402E-17	6.214123E-17
3.410000E+03	6.391153E-17	6.237838E-17
3.420000E+03	6.425074E-17	6.262600E-17
3.430000E+03	6.458017E-17	6.286315E-17
3.440000E+03	6.491045E-17	6.310019E-17
3.450000E+03	6.524150E-17	6.333706E-17
3.460000E+03	6.557326E-17	6.357370E-17
3.470000E+03	6.590566E-17	6.381005E-17
3.480000E+03	6.623862E-17	6.404606E-17
3.490000E+03	6.657207E-17	6.428165E-17
3.500000E+03	6.690594E-17	6.451677E-17
3.510000E+03	6.724016E-17	6.475135E-17
3.520000E+03	6.757463E-17	6.498532E-17
3.530000E+03	6.790928E-17	6.521862E-17
3.540000E+03	6.824403E-17	6.545118E-17
3.550000E+03	6.857879E-17	6.568294E-17
3.560000E+03	6.891347E-17	6.591381E-17
3.570000E+03	6.925947E-17	6.615471E-17
3.580000E+03	6.959379E-17	6.638365E-17
3.590000E+03	6.992775E-17	6.661151E-17
3.600000E+03	7.026127E-17	6.683820E-17
3.610000E+03	7.059425E-17	6.706366E-17
3.620000E+03	7.092658E-17	6.728781E-17
3.630000E+03	7.125817E-17	6.751057E-17
3.640000E+03	7.158892E-17	6.773188E-17
3.650000E+03	7.191871E-17	6.795164E-17
3.660000E+03	7.225936E-17	6.818104E-17
3.670000E+03	7.258697E-17	6.839752E-17
3.680000E+03	7.291330E-17	6.861223E-17
3.690000E+03	7.323823E-17	6.882509E-17
3.700000E+03	7.356164E-17	6.903601E-17
3.710000E+03	7.388342E-17	6.924492E-17
3.720000E+03	7.420344E-17	6.945173E-17
3.730000E+03	7.452159E-17	6.965636E-17
3.740000E+03	7.485004E-17	6.987020E-17
3.750000E+03	7.516410E-17	7.007025E-17
3.760000E+03	7.547590E-17	7.026786E-17
3.770000E+03	7.578532E-17	7.046295E-17
3.780000E+03	7.609221E-17	7.065544E-17
3.790000E+03	7.639644E-17	7.084524E-17
3.800000E+03	7.669787E-17	7.103226E-17
3.810000E+03	7.699637E-17	7.121641E-17
3.820000E+03	7.730443E-17	7.140930E-17
3.830000E+03	7.759667E-17	7.158748E-17
3.840000E+03	7.788554E-17	7.176253E-17
3.850000E+03	7.817090E-17	7.193436E-17
3.860000E+03	7.845259E-17	7.210289E-17
3.870000E+03	7.873047E-17	7.226801E-17
3.880000E+03	7.900438E-17	7.242964E-17
3.890000E+03	7.927417E-17	7.258769E-17
3.900000E+03	7.955265E-17	7.275393E-17
3.910000E+03	7.981376E-17	7.290456E-17
3.920000E+03	8.007028E-17	7.305134E-17
3.930000E+03	8.032204E-17	7.319418E-17
3.940000E+03	8.056889E-17	7.333298E-17
3.950000E+03	8.081065E-17	7.346765E-17
3.960000E+03	8.104717E-17	7.359810E-17
3.970000E+03	8.127828E-17	7.372424E-17
3.980000E+03	8.150382E-17	7.384597E-17
3.990000E+03	8.173686E-17	7.397521E-17
4.000000E+03	8.195077E-17	7.408788E-17
4.010000E+03	8.215859E-17	7.419587E-17
4.020000E+03	8.236017E-17	7.429909E-17
4.030000E+03	8.255532E-17	7.439745E-17
4.040000E+03	8.274388E-17	7.449086E-17
4.050000E+03	8.292568E-17	7.457923E-17
4.060000E+03	8.310055E-17	7.466248E-17
4.070000E+03	8.326831E-17	7.474051E-17
4.080000E+03	8.342881E-17	7.481324E-17
4.090000E+03	8.358187E-17	7.488057E-17
4.100000E+03	8.372732E-17	7.494243E-17
4.110000E+03	8.386500E-17	7.499873E-17
4.120000E+03	8.399473E-17	7.504937E-17
4.130000E+03	8.411637E-17	7.509429E-17
4.140000E+03	8.422974E-17	7.513340E-17
4.150000E+03	8.433470E-17	7.516662E-17
4.160000E+03	8.443107E-17	7.519386E-17
4.170000E+03	8.451870E-17	7.521507E-17
4.180000E+03	8.459746E-17	7.523014E-17
4.190000E+03	8.466719E-17	7.523903E-17
4.200000E+03	8.472774E-17	7.524166E-17
4.210000E+03	8.477899E-17	7.523795E-17
4.220000E+03	8.482080E-17	7.522785E-17
4.230000E+03	8.485304E-17	7.521130E-17
4.240000E+03	8.487561E-17	7.518823E-17
4.250000E+03	8.488838E-17	7.515860E-17
4.260000E+03	8.489125E-17	7.512236E-17
4.270000E+03	8.488413E-17	7.507947E-17
4.280000E+03	8.486694E-17	7.502988E-17
4.290000E+03	8.482603E-17	7.496157E-17
4.300000E+03	8.478848E-17	7.489852E-17
4.310000E+03	8.474066E-17	7.482869E-17
4.320000E+03	8.468253E-17	7.475207E-17
4.330000E+03	8.461408E-17	7.466866E-17
4.340000E+03	8.453527E-17	7.457845E-17
4.350000E+03	8.444611E-17	7.448146E-17
4.360000E+03	8.433317E-17	7.436584E-17
4.370000E+03	8.422340E-17	7.425535E-17
4.380000E+03	8.410336E-17	7.413816E-17
4.390000E+03	8.397311E-17	7.401428E-17
4.400000E+03	8.381940E-17	7.387203E-17
4.410000E+03	8.366900E-17	7.373499E-17
4.420000E+03	8.350865E-17	7.359145E-17
4.430000E+03	8.333845E-17	7.344146E-17
4.440000E+03	8.314533E-17	7.327347E-17
4.450000E+03	8.295585E-17	7.311086E-17
4.460000E+03	8.275692E-17	7.294205E-17
4.470000E+03	8.254869E-17	7.276713E-17
4.480000E+03	8.231826E-17	7.257469E-17
4.490000E+03	8.209194E-17	7.238786E-17
4.500000E+03	8.184384E-17	7.218378E-17
4.510000E+03	8.160012E-17	7.198546E-17
4.520000E+03	8.134794E-17	7.178152E-17
4.530000E+03	8.107466E-17	7.156076E-17
4.540000E+03	8.080617E-17	7.134597E-17
4.550000E+03	8.052979E-17	7.112589E-17
4.560000E+03	8.023304E-17	7.088944E-17
4.570000E+03	7.994152E-17	7.065919E-17
4.580000E+03	7.963012E-17	7.041287E-17
4.590000E+03	7.932425E-17	7.017288E-17
4.600000E+03	7.899902E-17	6.991715E-17
4.610000E+03	7.867960E-17	6.966791E-17
4.620000E+03	7.834133E-17	6.940324E-17
4.630000E+03	7.800916E-17	6.914519E-17
4.640000E+03	7.765867E-17	6.887204E-17
4.650000E+03	7.731456E-17	6.860566E-17
4.660000E+03	7.695265E-17	6.832450E-17
4.670000E+03	7.658535E-17	6.803953E-17
4.680000E+03	7.622485E-17	6.776152E-17
4.690000E+03	7.584732E-17	6.746922E-17
4.700000E+03	7.547685E-17	6.718401E-17
4.710000E+03	7.508986E-17	6.688484E-17
4.720000E+03	7.469846E-17	6.658243E-17
4.730000E+03	7.431451E-17	6.628729E-17
4.740000E+03	7.391479E-17	6.597866E-17
4.750000E+03	7.351122E-17	6.566712E-17
4.760000E+03	7.310398E-17	6.535277E-17
4.770000E+03	7.270466E-17	6.504592E-17
4.780000E+03	7.229055E-17	6.472622E-17
4.790000E+03	7.187331E-17	6.440404E-17
4.800000E+03	7.145310E-17	6.407946E-17
4.810000E+03	7.104122E-17	6.376258E-17
4.820000E+03	7.061552E-17	6.343348E-17
4.830000E+03	7.018734E-17	6.310229E-17
4.840000E+03	6.975687E-17	6.276912E-17
4.850000E+03	6.932424E-17	6.243406E-17
4.860000E+03	6.888962E-17	6.209721E-17
4.870000E+03	6.845316E-17	6.175865E-17
4.880000E+03	6.801501E-17	6.141849E-17
4.890000E+03	6.757531E-17	6.107682E-17
4.900000E+03	6.713420E-17	6.073373E-17
4.910000E+03	6.670224E-17	6.039873E-17
4.920000E+03	6.625868E-17	6.005300E-17
4.930000E+03	6.580386E-17	5.969681E-17
4.940000E+03	6.535851E-17	5.934891E-17
4.950000E+03	6.491243E-17	5.900002E-17
4.960000E+03	6.446574E-17	5.865023E-17
4.970000E+03	6.401857E-17	5.829961E-17
4.980000E+03	6.357103E-17	5.794825E-17
4.990000E+03	6.312324E-17	5.759623E-17
5.000000E+03	6.267531E-17	5.724362E-17
5.010000E+03	6.222737E-17	5.689049E-17
5.020000E+03	6.177950E-17	5.653694E-17
5.030000E+03	6.132229E-17	5.617428E-17
5.040000E+03	6.087497E-17	5.582012E-17
5.050000E+03	6.042804E-17	5.546575E-17
5.060000E+03	5.998161E-17	5.511122E-17
5.070000E+03	5.953575E-17	5.475661E-17
5.080000E+03	5.908139E-17	5.439353E-17
5.090000E+03	5.863703E-17	5.403901E-17
5.100000E+03	5.819353E-17	5.368459E-17
5.110000E+03	5.774199E-17	5.332208E-17
5.120000E+03	5.730050E-17	5.296813E-17
5.130000E+03	5.686009E-17	5.261448E-17
5.140000E+03	5.641211E-17	5.225308E-17
5.150000E+03	5.597418E-17	5.190025E-17
5.160000E+03	5.552895E-17	5.153990E-17
5.170000E+03	5.509378E-17	5.118811E-17
5.180000E+03	5.466005E-17	5.083690E-17
5.190000E+03	5.421944E-17	5.047850E-17
5.200000E+03	5.378886E-17	5.012864E-17
5.210000E+03	5.335165E-17	4.977181E-17
5.220000E+03	5.292446E-17	4.942351E-17
5.230000E+03	5.249089E-17	4.906844E-17
5.240000E+03	5.205925E-17	4.871435E-17
5.250000E+03	5.163758E-17	4.836877E-17
5.260000E+03	5.120988E-17	4.801671E-17
5.270000E+03	5.079212E-17	4.767313E-17
5.280000E+03	5.036855E-17	4.732327E-17
5.290000E+03	4.994715E-17	4.697460E-17
5.300000E+03	4.953560E-17	4.663435E-17
5.310000E+03	4.911858E-17	4.628811E-17
5.320000E+03	4.870384E-17	4.594317E-17
5.330000E+03	4.829886E-17	4.560660E-17
5.340000E+03	4.788872E-17	4.526430E-17
5.350000E+03	4.748095E-17	4.492340E-17
5.360000E+03	4.707559E-17	4.458393E-17
5.370000E+03	4.667987E-17	4.425274E-17
5.380000E+03	4.627935E-17	4.391616E-17
5.390000E+03	4.588132E-17	4.358110E-17
5.400000E+03	4.548581E-17	4.324759E-17
5.410000E+03	4.509283E-17	4.291564E-17
5.420000E+03	4.470240E-17	4.258529E-17
5.430000E+03	4.431455E-17	4.225656E-17
5.440000E+03	4.393607E-17	4.193594E-17
5.450000E+03	4.355336E-17	4.161046E-17
5.460000E+03	4.317329E-17	4.128668E-17
5.470000E+03	4.279585E-17	4.096460E-17
5.480000E+03	4.242107E-17	4.064424E-17
5.490000E+03	4.204895E-17	4.032563E-17
5.500000E+03	4.167951E-17	4.000879E-17
5.510000E+03	4.131276E-17	3.969372E-17
5.520000E+03	4.094870E-17	3.938045E-17
5.530000E+03	4.058734E-17	3.906899E-17
5.540000E+03	4.022250E-17	3.875339E-17
5.550000E+03	3.986663E-17	3.844564E-17
5.560000E+03	3.951347E-17	3.813975E-17
5.570000E+03	3.916303E-17	3.783571E-17
5.580000E+03	3.881531E-17	3.753355E-17
5.590000E+03	3.847033E-17	3.723328E-17
5.600000E+03	3.812807E-17	3.693490E-17
5.610000E+03	3.778272E-17	3.663280E-17
5.620000E+03	3.744597E-17	3.633829E-17
5.630000E+03	3.711194E-17	3.604569E-17
5.640000E+03	3.678064E-17	3.575503E-17
5.650000E+03	3.644645E-17	3.546085E-17
5.660000E+03	3.612063E-17	3.517411E-17
5.670000E+03	3.579753E-17	3.488931E-17
5.680000E+03	3.547713E-17	3.460646E-17
5.690000E+03	3.515403E-17	3.432030E-17
5.700000E+03	3.483908E-17	3.404141E-17
5.710000E+03	3.452151E-17	3.375929E-17
5.720000E+03	3.421198E-17	3.348437E-17
5.730000E+03	3.390511E-17	3.321141E-17
5.740000E+03	3.359576E-17	3.293537E-17
5.750000E+03	3.329426E-17	3.266639E-17
5.760000E+03	3.299035E-17	3.239441E-17
5.770000E+03	3.269419E-17	3.212940E-17
5.780000E+03	3.239567E-17	3.186148E-17
5.790000E+03	3.210479E-17	3.160046E-17
5.800000E+03	3.181164E-17	3.133659E-17
5.810000E+03	3.152600E-17	3.107953E-17
5.820000E+03	3.123815E-17	3.081971E-17
5.830000E+03	3.095771E-17	3.056662E-17
5.840000E+03	3.067511E-17	3.031083E-17
5.850000E+03	3.039981E-17	3.006168E-17
5.860000E+03	3.012242E-17	2.980991E-17
5.870000E+03	2.985220E-17	2.956469E-17
5.880000E+03	2.957995E-17	2.931692E-17
5.890000E+03	2.931028E-17	2.907116E-17
5.900000E+03	2.904761E-17	2.883183E-17
5.910000E+03	2.878299E-17	2.859004E-17
5.920000E+03	2.852089E-17	2.835024E-17
5.930000E+03	2.826564E-17	2.811673E-17
5.940000E+03	2.800851E-17	2.788087E-17
5.950000E+03	2.775386E-17	2.764697E-17
5.960000E+03	2.750166E-17	2.741504E-17
5.970000E+03	2.725609E-17	2.718923E-17
5.980000E+03	2.700873E-17	2.696117E-17
5.990000E+03	2.676379E-17	2.673505E-17
6.000000E+03	2.652123E-17	2.651087E-17
6.010000E+03	2.628106E-17	2.628860E-17
6.020000E+03	2.604723E-17	2.607225E-17
6.030000E+03	2.581172E-17	2.585378E-17
6.040000E+03	2.557854E-17	2.563720E-17
6.050000E+03	2.534766E-17	2.542251E-17
6.060000E+03	2.511908E-17	2.520970E-17
6.070000E+03	2.489277E-17	2.499876E-17
6.080000E+03	2.466871E-17	2.478968E-17
6.090000E+03	2.444689E-17	2.458245E-17
6.100000E+03	2.422729E-17	2.437705E-17
6.110000E+03	2.400990E-17	2.417348E-17
6.120000E+03	2.379468E-17	2.397173E-17
6.130000E+03	2.358525E-17	2.377543E-17
6.140000E+03	2.337432E-17	2.357726E-17
6.150000E+03	2.316552E-17	2.338087E-17
6.160000E+03	2.295532E-17	2.318270E-17
6.170000E+03	2.275076E-17	2.298988E-17
6.180000E+03	2.254828E-17	2.279881E-17
6.190000E+03	2.234786E-17	2.260948E-17
6.200000E+03	2.214948E-17	2.242188E-17
6.210000E+03	2.195313E-17	2.223600E-17
6.220000E+03	2.175878E-17	2.205182E-17
6.230000E+03	2.156642E-17	2.186935E-17
6.240000E+03	2.137603E-17	2.168855E-17
6.250000E+03	2.118759E-17	2.150943E-17
6.260000E+03	2.100109E-17	2.133197E-17
6.270000E+03	2.081332E-17	2.115292E-17
6.280000E+03	2.063066E-17	2.097877E-17
6.290000E+03	2.044989E-17	2.080625E-17
6.300000E+03	2.027099E-17	2.063534E-17
6.310000E+03	2.009393E-17	2.046603E-17
6.320000E+03	1.991870E-17	2.029831E-17
6.330000E+03	1.974227E-17	2.012909E-17
6.340000E+03	1.957068E-17	1.996454E-17
6.350000E+03	1.940087E-17	1.980155E-17
6.360000E+03	1.923282E-17	1.964009E-17
6.370000E+03	1.906359E-17	1.947718E-17
6.380000E+03	1.889905E-17	1.931880E-17
6.390000E+03	1.873621E-17	1.916192E-17
6.400000E+03	1.857222E-17	1.900363E-17
6.410000E+03	1.841279E-17	1.884975E-17
6.420000E+03	1.825501E-17	1.869734E-17
6.430000E+03	1.809611E-17	1.854354E-17
6.440000E+03	1.794163E-17	1.839406E-17
6.450000E+03	1.778877E-17	1.824601E-17
6.460000E+03	1.763480E-17	1.809660E-17
6.470000E+03	1.748514E-17	1.795141E-17
6.480000E+03	1.733705E-17	1.780761E-17
6.490000E+03	1.718786E-17	1.766248E-17
6.500000E+03	1.704287E-17	1.752146E-17
6.510000E+03	1.689681E-17	1.737914E-17
6.520000E+03	1.675486E-17	1.724085E-17
6.530000E+03	1.661185E-17	1.710128E-17
6.540000E+03	1.647288E-17	1.696567E-17
6.550000E+03	1.633287E-17	1.682880E-17
6.560000E+03	1.619682E-17	1.669584E-17
6.570000E+03	1.605973E-17	1.656162E-17
6.580000E+03	1.592654E-17	1.643125E-17
6.590000E+03	1.579232E-17	1.629964E-17
6.600000E+03	1.566193E-17	1.617181E-17
6.610000E+03	1.553052E-17	1.604276E-17
6.620000E+03	1.540287E-17	1.591742E-17
6.630000E+03	1.527422E-17	1.579089E-17
6.640000E+03	1.514925E-17	1.566801E-17
6.650000E+03	1.502328E-17	1.554394E-17
6.660000E+03	1.490094E-17	1.542346E-17
6.670000E+03	1.477761E-17	1.530181E-17
6.680000E+03	1.465558E-17	1.518136E-17
6.690000E+03	1.453708E-17	1.506442E-17
6.700000E+03	1.441761E-17	1.494633E-17
6.710000E+03	1.430160E-17	1.483168E-17
6.720000E+03	1.418462E-17	1.471589E-17
6.730000E+03	1.406888E-17	1.460125E-17
6.740000E+03	1.395651E-17	1.448997E-17
6.750000E+03	1.384319E-17	1.437757E-17
6.760000E+03	1.373106E-17	1.426628E-17
6.770000E+03	1.362221E-17	1.415827E-17
6.780000E+03	1.351242E-17	1.404916E-17
6.790000E+03	1.340378E-17	1.394113E-17
6.800000E+03	1.329630E-17	1.383418E-17
6.810000E+03	1.319197E-17	1.373039E-17
6.820000E+03	1.308672E-17	1.362552E-17
6.830000E+03	1.298258E-17	1.352169E-17
6.840000E+03	1.287953E-17	1.341889E-17
6.850000E+03	1.277953E-17	1.331916E-17
6.860000E+03	1.267862E-17	1.321837E-17
6.870000E+03	1.257877E-17	1.311857E-17
6.880000E+03	1.247997E-17	1.301977E-17
6.890000E+03	1.238220E-17	1.292194E-17
6.900000E+03	1.228735E-17	1.282706E-17
6.910000E+03	1.219160E-17	1.273114E-17
6.920000E+03	1.209686E-17	1.263618E-17
6.930000E+03	1.200311E-17	1.254215E-17
6.940000E+03	1.191034E-17	1.244905E-17
6.950000E+03	1.181853E-17	1.235687E-17
6.960000E+03	1.172949E-17	1.226750E-17
6.970000E+03	1.163958E-17	1.217712E-17
6.980000E+03	1.155060E-17	1.208763E-17
6.990000E+03	1.146255E-17	1.199903E-17
7.000000E+03	1.137542E-17	1.191130E-17
7.010000E+03	1.128919E-17	1.182443E-17
7.020000E+03	1.120385E-17	1.173842E-17
7.030000E+03	1.111940E-17	1.165326E-17
7.040000E+03	1.103583E-17	1.156894E-17
7.050000E+03	1.095312E-17	1.148545E-17
7.060000E+03	1.087126E-17	1.140279E-17
7.070000E+03	1.079026E-17	1.132093E-17
7.080000E+03	1.071009E-17	1.123989E-17
7.090000E+03	1.063074E-17	1.115963E-17
7.100000E+03	1.055222E-17	1.108017E-17
7.110000E+03	1.047450E-17	1.100149E-17
7.120000E+03	1.039759E-17	1.092359E-17
7.130000E+03	1.032147E-17	1.084645E-17
7.140000E+03	1.024613E-17	1.077006E-17
7.150000E+03	1.017156E-17	1.069443E-17
7.160000E+03	1.009776E-17	1.061954E-17
7.170000E+03	1.002471E-17	1.054539E-17
7.180000E+03	9.952417E-18	1.047196E-17
7.190000E+03	9.880862E-18	1.039925E-17
7.200000E+03	9.810039E-18	1.032726E-17
7.210000E+03	9.739941E-18	1.025597E-17
7.220000E+03	9.670559E-18	1.018539E-17
7.230000E+03	9.600400E-18	1.011393E-17
7.240000E+03	9.532439E-18	1.004473E-17
7.250000E+03	9.465171E-18	9.976205E-18
7.260000E+03	9.398589E-18	9.908357E-18
7.270000E+03	9.332686E-18	9.841173E-18
7.280000E+03	9.267454E-18	9.774649E-18
7.290000E+03	9.202887E-18	9.708777E-18
7.300000E+03	9.137560E-18	9.642057E-18
7.310000E+03	9.074310E-18	9.577481E-18
7.320000E+03	9.011703E-18	9.513539E-18
7.330000E+03	8.949732E-18	9.450224E-18
7.340000E+03	8.888392E-18	9.387531E-18
7.350000E+03	8.826306E-18	9.324008E-18
7.360000E+03	8.766215E-18	9.262550E-18
7.370000E+03	8.706735E-18	9.201696E-18
7.380000E+03	8.647859E-18	9.141441E-18
7.390000E+03	8.588247E-18	9.080369E-18
7.400000E+03	8.530570E-18	9.021303E-18
7.410000E+03	8.473479E-18	8.962819E-18
7.420000E+03	8.415661E-18	8.903530E-18
7.430000E+03	8.359733E-18	8.846203E-18
7.440000E+03	8.304374E-18	8.789442E-18
7.450000E+03	8.248295E-18	8.731886E-18
7.460000E+03	8.194065E-18	8.676251E-18
7.470000E+03	8.140386E-18	8.621167E-18
7.480000E+03	8.085996E-18	8.565298E-18
7.490000E+03	8.033413E-18	8.511310E-18
7.500000E+03	7.981367E-18	8.457860E-18
7.510000E+03	7.928617E-18	8.403634E-18
7.520000E+03	7.877636E-18	8.351251E-18
7.530000E+03	7.827175E-18	8.299391E-18
7.540000E+03	7.776020E-18	8.246766E-18
7.550000E+03	7.726594E-18	8.195947E-18
7.560000E+03	7.676479E-18	8.144369E-18
7.570000E+03	7.628070E-18	8.094574E-18
7.580000E+03	7.578977E-18	8.044027E-18
7.590000E+03	7.531566E-18	7.995238E-18
7.600000E+03	7.483476E-18	7.945704E-18
7.610000E+03	7.437045E-18	7.897906E-18
7.620000E+03	7.389941E-18	7.849370E-18
7.630000E+03	7.344473E-18	7.802547E-18
7.640000E+03	7.298337E-18	7.754991E-18
7.650000E+03	7.253816E-18	7.709128E-18
7.660000E+03	7.208632E-18	7.662540E-18
7.670000E+03	7.165041E-18	7.617622E-18
7.680000E+03	7.120794E-18	7.571985E-18
7.690000E+03	7.078118E-18	7.527998E-18
7.700000E+03	7.034791E-18	7.483299E-18
7.710000E+03	6.993016E-18	7.440229E-18
7.720000E+03	6.950595E-18	7.396454E-18
7.730000E+03	6.909705E-18	7.354289E-18
7.740000E+03	6.868176E-18	7.311425E-18
7.750000E+03	6.827090E-18	7.269014E-18
7.760000E+03	6.787507E-18	7.228185E-18
