#wls	flux	fluxerr
1.600000E+03	1.912679E-17	2.303892E-17
1.640000E+03	1.915426E-17	2.302009E-17
1.680000E+03	1.919085E-17	2.301151E-17
1.720000E+03	1.924038E-17	2.301765E-17
1.760000E+03	1.929635E-17	2.303058E-17
1.800000E+03	1.936601E-17	2.305890E-17
1.840000E+03	1.944282E-17	2.309466E-17
1.880000E+03	1.953410E-17	2.314643E-17
1.920000E+03	1.963675E-17	2.321039E-17
1.960000E+03	1.974761E-17	2.328266E-17
2.000000E+03	1.987409E-17	2.337185E-17
2.040000E+03	2.001306E-17	2.347407E-17
2.080000E+03	2.016488E-17	2.358958E-17
2.120000E+03	2.033355E-17	2.372287E-17
2.160000E+03	2.051221E-17	2.386575E-17
2.200000E+03	2.070484E-17	2.402264E-17
2.240000E+03	2.091179E-17	2.419375E-17
2.280000E+03	2.113719E-17	2.438364E-17
2.320000E+03	2.137391E-17	2.458382E-17
2.360000E+03	2.162987E-17	2.480318E-17
2.400000E+03	2.190166E-17	2.503753E-17
2.440000E+03	2.218962E-17	2.528701E-17
2.480000E+03	2.249009E-17	2.554716E-17
2.520000E+03	2.281131E-17	2.582710E-17
2.560000E+03	2.314964E-17	2.612237E-17
2.600000E+03	2.350952E-17	2.643767E-17
2.640000E+03	2.388294E-17	2.676365E-17
2.680000E+03	2.427424E-17	2.710489E-17
2.720000E+03	2.468360E-17	2.746127E-17
2.760000E+03	2.511562E-17	2.783753E-17
2.800000E+03	2.556161E-17	2.822370E-17
2.840000E+03	2.603058E-17	2.862939E-17
2.880000E+03	2.651346E-17	2.904425E-17
2.920000E+03	2.701942E-17	2.947802E-17
2.960000E+03	2.754378E-17	2.992518E-17
3.000000E+03	2.808632E-17	3.038517E-17
3.010000E+03	2.822353E-17	3.050076E-17
3.020000E+03	2.836184E-17	3.061710E-17
3.030000E+03	2.850124E-17	3.073416E-17
3.040000E+03	2.864675E-17	3.085735E-17
3.050000E+03	2.878835E-17	3.097585E-17
3.060000E+03	2.893102E-17	3.109505E-17
3.070000E+03	2.907476E-17	3.121492E-17
3.080000E+03	2.922468E-17	3.134096E-17
3.090000E+03	2.937055E-17	3.146217E-17
3.100000E+03	2.951747E-17	3.158403E-17
3.110000E+03	2.966541E-17	3.170651E-17
3.120000E+03	2.981959E-17	3.183517E-17
3.130000E+03	2.996960E-17	3.195887E-17
3.140000E+03	3.012059E-17	3.208315E-17
3.150000E+03	3.027258E-17	3.220799E-17
3.160000E+03	3.043087E-17	3.233903E-17
3.170000E+03	3.058482E-17	3.246497E-17
3.180000E+03	3.073972E-17	3.259141E-17
3.190000E+03	3.090095E-17	3.272406E-17
3.200000E+03	3.105773E-17	3.285149E-17
3.210000E+03	3.121542E-17	3.297937E-17
3.220000E+03	3.137399E-17	3.310769E-17
3.230000E+03	3.153894E-17	3.324223E-17
3.240000E+03	3.169927E-17	3.337137E-17
3.250000E+03	3.186044E-17	3.350089E-17
3.260000E+03	3.202802E-17	3.363664E-17
3.270000E+03	3.219083E-17	3.376686E-17
3.280000E+03	3.235442E-17	3.389739E-17
3.290000E+03	3.252445E-17	3.403414E-17
3.300000E+03	3.268957E-17	3.416523E-17
3.310000E+03	3.285540E-17	3.429657E-17
3.320000E+03	3.302193E-17	3.442811E-17
3.330000E+03	3.319491E-17	3.456587E-17
3.340000E+03	3.336278E-17	3.469779E-17
3.350000E+03	3.353127E-17	3.482984E-17
3.360000E+03	3.370623E-17	3.496809E-17
3.370000E+03	3.387591E-17	3.510035E-17
3.380000E+03	3.404613E-17	3.523267E-17
3.390000E+03	3.422282E-17	3.537117E-17
3.400000E+03	3.439406E-17	3.550354E-17
3.410000E+03	3.456575E-17	3.563587E-17
3.420000E+03	3.474390E-17	3.577437E-17
3.430000E+03	3.491643E-17	3.590657E-17
3.440000E+03	3.508932E-17	3.603865E-17
3.450000E+03	3.526865E-17	3.617686E-17
3.460000E+03	3.544217E-17	3.630862E-17
3.470000E+03	3.561594E-17	3.644017E-17
3.480000E+03	3.579614E-17	3.657781E-17
3.490000E+03	3.597033E-17	3.670884E-17
3.500000E+03	3.615093E-17	3.684594E-17
3.510000E+03	3.632538E-17	3.697632E-17
3.520000E+03	3.649989E-17	3.710631E-17
3.530000E+03	3.668077E-17	3.724233E-17
3.540000E+03	3.685529E-17	3.737145E-17
3.550000E+03	3.702974E-17	3.750008E-17
3.560000E+03	3.721053E-17	3.763469E-17
3.570000E+03	3.738472E-17	3.776223E-17
3.580000E+03	3.755871E-17	3.788916E-17
3.590000E+03	3.773898E-17	3.802202E-17
3.600000E+03	3.791243E-17	3.814762E-17
3.610000E+03	3.808552E-17	3.827250E-17
3.620000E+03	3.826482E-17	3.840326E-17
3.630000E+03	3.843706E-17	3.852657E-17
3.640000E+03	3.861547E-17	3.865572E-17
3.650000E+03	3.878666E-17	3.877731E-17
3.660000E+03	3.895722E-17	3.889796E-17
3.670000E+03	3.913386E-17	3.902438E-17
3.680000E+03	3.930301E-17	3.914305E-17
3.690000E+03	3.947137E-17	3.926065E-17
3.700000E+03	3.964571E-17	3.938394E-17
3.710000E+03	3.981231E-17	3.949930E-17
3.720000E+03	3.997791E-17	3.961345E-17
3.730000E+03	4.014940E-17	3.973321E-17
3.740000E+03	4.031287E-17	3.984484E-17
3.750000E+03	4.048213E-17	3.996202E-17
3.760000E+03	4.064319E-17	4.007094E-17
3.770000E+03	4.080293E-17	4.017842E-17
3.780000E+03	4.096834E-17	4.029137E-17
3.790000E+03	4.112526E-17	4.039586E-17
3.800000E+03	4.128065E-17	4.049877E-17
3.810000E+03	4.144157E-17	4.060705E-17
3.820000E+03	4.159369E-17	4.070668E-17
3.830000E+03	4.174406E-17	4.080457E-17
3.840000E+03	4.189982E-17	4.090774E-17
3.850000E+03	4.204648E-17	4.100205E-17
3.860000E+03	4.219115E-17	4.109449E-17
3.870000E+03	4.234105E-17	4.119208E-17
3.880000E+03	4.248154E-17	4.128062E-17
3.890000E+03	4.262713E-17	4.137425E-17
3.900000E+03	4.276310E-17	4.145870E-17
3.910000E+03	4.289669E-17	4.154102E-17
3.920000E+03	4.303519E-17	4.162830E-17
3.930000E+03	4.316376E-17	4.170621E-17
3.940000E+03	4.328968E-17	4.178182E-17
3.950000E+03	4.342033E-17	4.186229E-17
3.960000E+03	4.354072E-17	4.193318E-17
3.970000E+03	4.365820E-17	4.200163E-17
3.980000E+03	4.378020E-17	4.207479E-17
3.990000E+03	4.389162E-17	4.213820E-17
4.000000E+03	4.399987E-17	4.219900E-17
4.010000E+03	4.411241E-17	4.226439E-17
4.020000E+03	4.421406E-17	4.231982E-17
4.030000E+03	4.431225E-17	4.237250E-17
4.040000E+03	4.441452E-17	4.242962E-17
4.050000E+03	4.450555E-17	4.247661E-17
4.060000E+03	4.459287E-17	4.252068E-17
4.070000E+03	4.468402E-17	4.256906E-17
4.080000E+03	4.476363E-17	4.260712E-17
4.090000E+03	4.483923E-17	4.264210E-17
4.100000E+03	4.491075E-17	4.267395E-17
4.110000E+03	4.498577E-17	4.270992E-17
4.120000E+03	4.504883E-17	4.273534E-17
4.130000E+03	4.510752E-17	4.275747E-17
4.140000E+03	4.516948E-17	4.278358E-17
4.150000E+03	4.521917E-17	4.279898E-17
4.160000E+03	4.526422E-17	4.281093E-17
4.170000E+03	4.531228E-17	4.282671E-17
4.180000E+03	4.534779E-17	4.283162E-17
4.190000E+03	4.537839E-17	4.283295E-17
4.200000E+03	4.540400E-17	4.283063E-17
4.210000E+03	4.543230E-17	4.283194E-17
4.220000E+03	4.544769E-17	4.282220E-17
4.230000E+03	4.545784E-17	4.280868E-17
4.240000E+03	4.546269E-17	4.279134E-17
4.250000E+03	4.546990E-17	4.277743E-17
4.260000E+03	4.546391E-17	4.275233E-17
4.270000E+03	4.545239E-17	4.272328E-17
4.280000E+03	4.543530E-17	4.269026E-17
4.290000E+03	4.542031E-17	4.266051E-17
4.300000E+03	4.539189E-17	4.261945E-17
4.310000E+03	4.535774E-17	4.257434E-17
4.320000E+03	4.531784E-17	4.252516E-17
4.330000E+03	4.527986E-17	4.247914E-17
4.340000E+03	4.522836E-17	4.242178E-17
4.350000E+03	4.517105E-17	4.236033E-17
4.360000E+03	4.510795E-17	4.229480E-17
4.370000E+03	4.503906E-17	4.222521E-17
4.380000E+03	4.497208E-17	4.215875E-17
4.390000E+03	4.489172E-17	4.208109E-17
4.400000E+03	4.480571E-17	4.199945E-17
4.410000E+03	4.471410E-17	4.191388E-17
4.420000E+03	4.461696E-17	4.182441E-17
4.430000E+03	4.452194E-17	4.173821E-17
4.440000E+03	4.441398E-17	4.164111E-17
4.450000E+03	4.430074E-17	4.154030E-17
4.460000E+03	4.418233E-17	4.143583E-17
4.470000E+03	4.405885E-17	4.132777E-17
4.480000E+03	4.393040E-17	4.121619E-17
4.490000E+03	4.380454E-17	4.110813E-17
4.500000E+03	4.366646E-17	4.098969E-17
4.510000E+03	4.352375E-17	4.086795E-17
4.520000E+03	4.337652E-17	4.074297E-17
4.530000E+03	4.322488E-17	4.061482E-17
4.540000E+03	4.306895E-17	4.048358E-17
4.550000E+03	4.290885E-17	4.034932E-17
4.560000E+03	4.274469E-17	4.021212E-17
4.570000E+03	4.258381E-17	4.007884E-17
4.580000E+03	4.241186E-17	3.993594E-17
4.590000E+03	4.223621E-17	3.979032E-17
4.600000E+03	4.205696E-17	3.964205E-17
4.610000E+03	4.187423E-17	3.949119E-17
4.620000E+03	4.168815E-17	3.933783E-17
4.630000E+03	4.149881E-17	3.918203E-17
4.640000E+03	4.130635E-17	3.902386E-17
4.650000E+03	4.111086E-17	3.886339E-17
4.660000E+03	4.091247E-17	3.870070E-17
4.670000E+03	4.071127E-17	3.853584E-17
4.680000E+03	4.050738E-17	3.836890E-17
4.690000E+03	4.030091E-17	3.819994E-17
4.700000E+03	4.009196E-17	3.802902E-17
4.710000E+03	3.988065E-17	3.785621E-17
4.720000E+03	3.966706E-17	3.768159E-17
4.730000E+03	3.945131E-17	3.750520E-17
4.740000E+03	3.923350E-17	3.732712E-17
4.750000E+03	3.901372E-17	3.714742E-17
4.760000E+03	3.879208E-17	3.696614E-17
4.770000E+03	3.856866E-17	3.678336E-17
4.780000E+03	3.834358E-17	3.659915E-17
4.790000E+03	3.811691E-17	3.641354E-17
4.800000E+03	3.788876E-17	3.622662E-17
4.810000E+03	3.765920E-17	3.603844E-17
4.820000E+03	3.742834E-17	3.584905E-17
4.830000E+03	3.719626E-17	3.565852E-17
4.840000E+03	3.696304E-17	3.546689E-17
4.850000E+03	3.672876E-17	3.527424E-17
4.860000E+03	3.649352E-17	3.508060E-17
4.870000E+03	3.625739E-17	3.488605E-17
4.880000E+03	3.602044E-17	3.469062E-17
4.890000E+03	3.578277E-17	3.449438E-17
4.900000E+03	3.554443E-17	3.429737E-17
4.910000E+03	3.530552E-17	3.409965E-17
4.920000E+03	3.506018E-17	3.389556E-17
4.930000E+03	3.482036E-17	3.369660E-17
4.940000E+03	3.458016E-17	3.349707E-17
4.950000E+03	3.433966E-17	3.329703E-17
4.960000E+03	3.409893E-17	3.309653E-17
4.970000E+03	3.385802E-17	3.289560E-17
4.980000E+03	3.361700E-17	3.269429E-17
4.990000E+03	3.337031E-17	3.248718E-17
5.000000E+03	3.312930E-17	3.228530E-17
5.010000E+03	3.288835E-17	3.208316E-17
5.020000E+03	3.264753E-17	3.188083E-17
5.030000E+03	3.240689E-17	3.167833E-17
5.040000E+03	3.216108E-17	3.147043E-17
5.050000E+03	3.192100E-17	3.126777E-17
5.060000E+03	3.168126E-17	3.106507E-17
5.070000E+03	3.144191E-17	3.086237E-17
5.080000E+03	3.120299E-17	3.065971E-17
5.090000E+03	3.095934E-17	3.045200E-17
5.100000E+03	3.072147E-17	3.024955E-17
5.110000E+03	3.048416E-17	3.004725E-17
5.120000E+03	3.024746E-17	2.984513E-17
5.130000E+03	3.000637E-17	2.963823E-17
5.140000E+03	2.977106E-17	2.943660E-17
5.150000E+03	2.953647E-17	2.923525E-17
5.160000E+03	2.930265E-17	2.903421E-17
5.170000E+03	2.906475E-17	2.882866E-17
5.180000E+03	2.883260E-17	2.862836E-17
5.190000E+03	2.860133E-17	2.842846E-17
5.200000E+03	2.836619E-17	2.822424E-17
5.210000E+03	2.813678E-17	2.802526E-17
5.220000E+03	2.790833E-17	2.782675E-17
5.230000E+03	2.767623E-17	2.762412E-17
5.240000E+03	2.744983E-17	2.742669E-17
5.250000E+03	2.722446E-17	2.722982E-17
5.260000E+03	2.699564E-17	2.702900E-17
5.270000E+03	2.677248E-17	2.683335E-17
5.280000E+03	2.655043E-17	2.663833E-17
5.290000E+03	2.632510E-17	2.643953E-17
5.300000E+03	2.610538E-17	2.624587E-17
5.310000E+03	2.588250E-17	2.604853E-17
5.320000E+03	2.566519E-17	2.585631E-17
5.330000E+03	2.544910E-17	2.566482E-17
5.340000E+03	2.523001E-17	2.546981E-17
5.350000E+03	2.501644E-17	2.527987E-17
5.360000E+03	2.479997E-17	2.508652E-17
5.370000E+03	2.458897E-17	2.489821E-17
5.380000E+03	2.437518E-17	2.470658E-17
5.390000E+03	2.416682E-17	2.451996E-17
5.400000E+03	2.395978E-17	2.433419E-17
5.410000E+03	2.375008E-17	2.414524E-17
5.420000E+03	2.354574E-17	2.396126E-17
5.430000E+03	2.333885E-17	2.377418E-17
5.440000E+03	2.313725E-17	2.359202E-17
5.450000E+03	2.293318E-17	2.340687E-17
5.460000E+03	2.273437E-17	2.322659E-17
5.470000E+03	2.253316E-17	2.304341E-17
5.480000E+03	2.233715E-17	2.286506E-17
5.490000E+03	2.213883E-17	2.268389E-17
5.500000E+03	2.194565E-17	2.250751E-17
5.510000E+03	2.175024E-17	2.232839E-17
5.520000E+03	2.155631E-17	2.215031E-17
5.530000E+03	2.136742E-17	2.197698E-17
5.540000E+03	2.117642E-17	2.180101E-17
5.550000E+03	2.099041E-17	2.162973E-17
5.560000E+03	2.080234E-17	2.145589E-17
5.570000E+03	2.061920E-17	2.128670E-17
5.580000E+03	2.043408E-17	2.111501E-17
5.590000E+03	2.025044E-17	2.094442E-17
5.600000E+03	2.007165E-17	2.077842E-17
5.610000E+03	1.989096E-17	2.061002E-17
5.620000E+03	1.971505E-17	2.044616E-17
5.630000E+03	1.953730E-17	2.027997E-17
5.640000E+03	1.936103E-17	2.011491E-17
5.650000E+03	1.918945E-17	1.995431E-17
5.660000E+03	1.901611E-17	1.979147E-17
5.670000E+03	1.884424E-17	1.962976E-17
5.680000E+03	1.867698E-17	1.947245E-17
5.690000E+03	1.850802E-17	1.931298E-17
5.700000E+03	1.834054E-17	1.915466E-17
5.710000E+03	1.817755E-17	1.900065E-17
5.720000E+03	1.801295E-17	1.884458E-17
5.730000E+03	1.784980E-17	1.868965E-17
5.740000E+03	1.769106E-17	1.853896E-17
5.750000E+03	1.753077E-17	1.838628E-17
5.760000E+03	1.737192E-17	1.823475E-17
5.770000E+03	1.721450E-17	1.808436E-17
5.780000E+03	1.706135E-17	1.793810E-17
5.790000E+03	1.690675E-17	1.778996E-17
5.800000E+03	1.675355E-17	1.764296E-17
5.810000E+03	1.660453E-17	1.750002E-17
5.820000E+03	1.645411E-17	1.735527E-17
5.830000E+03	1.630508E-17	1.721165E-17
5.840000E+03	1.615744E-17	1.706916E-17
5.850000E+03	1.601117E-17	1.692780E-17
5.860000E+03	1.586892E-17	1.679037E-17
5.870000E+03	1.572535E-17	1.665124E-17
5.880000E+03	1.558314E-17	1.651322E-17
5.890000E+03	1.544228E-17	1.637633E-17
5.900000E+03	1.530275E-17	1.624055E-17
5.910000E+03	1.516708E-17	1.610857E-17
5.920000E+03	1.503018E-17	1.597498E-17
5.930000E+03	1.489459E-17	1.584250E-17
5.940000E+03	1.476030E-17	1.571112E-17
5.950000E+03	1.462731E-17	1.558083E-17
5.960000E+03	1.449561E-17	1.545164E-17
5.970000E+03	1.436758E-17	1.532609E-17
5.980000E+03	1.423840E-17	1.519904E-17
5.990000E+03	1.411048E-17	1.507307E-17
6.000000E+03	1.398381E-17	1.494818E-17
6.010000E+03	1.385839E-17	1.482435E-17
6.020000E+03	1.373420E-17	1.470159E-17
6.030000E+03	1.361123E-17	1.457989E-17
6.040000E+03	1.348947E-17	1.445924E-17
6.050000E+03	1.337116E-17	1.434203E-17
6.060000E+03	1.325178E-17	1.422345E-17
6.070000E+03	1.313360E-17	1.410591E-17
6.080000E+03	1.301659E-17	1.398940E-17
6.090000E+03	1.290075E-17	1.387391E-17
6.100000E+03	1.278607E-17	1.375945E-17
6.110000E+03	1.267254E-17	1.364600E-17
6.120000E+03	1.256015E-17	1.353356E-17
6.130000E+03	1.244889E-17	1.342212E-17
6.140000E+03	1.233875E-17	1.331168E-17
6.150000E+03	1.222972E-17	1.320223E-17
6.160000E+03	1.212180E-17	1.309377E-17
6.170000E+03	1.201497E-17	1.298628E-17
6.180000E+03	1.190922E-17	1.287977E-17
6.190000E+03	1.180455E-17	1.277422E-17
6.200000E+03	1.170094E-17	1.266964E-17
6.210000E+03	1.159839E-17	1.256600E-17
6.220000E+03	1.149689E-17	1.246332E-17
6.230000E+03	1.139642E-17	1.236157E-17
6.240000E+03	1.129698E-17	1.226076E-17
6.250000E+03	1.119856E-17	1.216088E-17
6.260000E+03	1.110114E-17	1.206191E-17
6.270000E+03	1.100473E-17	1.196387E-17
6.280000E+03	1.090931E-17	1.186673E-17
6.290000E+03	1.081487E-17	1.177049E-17
6.300000E+03	1.072140E-17	1.167515E-17
6.310000E+03	1.062890E-17	1.158070E-17
6.320000E+03	1.053735E-17	1.148712E-17
6.330000E+03	1.044674E-17	1.139443E-17
6.340000E+03	1.035707E-17	1.130260E-17
6.350000E+03	1.026833E-17	1.121163E-17
6.360000E+03	1.018051E-17	1.112152E-17
6.370000E+03	1.009191E-17	1.103042E-17
6.380000E+03	1.000592E-17	1.094202E-17
6.390000E+03	9.920815E-18	1.085445E-17
6.400000E+03	9.836594E-18	1.076771E-17
6.410000E+03	9.753249E-18	1.068179E-17
6.420000E+03	9.670770E-18	1.059669E-17
6.430000E+03	9.589149E-18	1.051240E-17
6.440000E+03	9.508378E-18	1.042891E-17
6.450000E+03	9.426872E-18	1.034448E-17
6.460000E+03	9.347787E-18	1.026259E-17
6.470000E+03	9.269527E-18	1.018148E-17
6.480000E+03	9.192082E-18	1.010115E-17
6.490000E+03	9.115445E-18	1.002158E-17
6.500000E+03	9.039608E-18	9.942784E-18
6.510000E+03	8.964562E-18	9.864740E-18
6.520000E+03	8.888815E-18	9.785811E-18
6.530000E+03	8.815340E-18	9.709274E-18
6.540000E+03	8.742633E-18	9.633474E-18
6.550000E+03	8.670686E-18	9.558404E-18
6.560000E+03	8.599491E-18	9.484059E-18
6.570000E+03	8.527615E-18	9.408860E-18
6.580000E+03	8.457912E-18	9.335957E-18
6.590000E+03	8.388938E-18	9.263760E-18
6.600000E+03	8.320685E-18	9.192262E-18
6.610000E+03	8.253146E-18	9.121457E-18
6.620000E+03	8.184946E-18	9.049826E-18
6.630000E+03	8.118823E-18	8.980400E-18
6.640000E+03	8.053393E-18	8.911648E-18
6.650000E+03	7.988646E-18	8.843565E-18
6.660000E+03	7.923253E-18	8.774677E-18
6.670000E+03	7.859865E-18	8.707923E-18
6.680000E+03	7.797140E-18	8.641820E-18
6.690000E+03	7.735071E-18	8.576361E-18
6.700000E+03	7.672369E-18	8.510117E-18
6.710000E+03	7.611602E-18	8.445940E-18
6.720000E+03	7.551471E-18	8.382389E-18
6.730000E+03	7.491968E-18	8.319459E-18
6.740000E+03	7.431845E-18	8.255763E-18
6.750000E+03	7.373589E-18	8.194068E-18
6.760000E+03	7.315943E-18	8.132976E-18
6.770000E+03	7.257685E-18	8.071132E-18
6.780000E+03	7.201247E-18	8.011241E-18
6.790000E+03	7.145398E-18	7.951936E-18
6.800000E+03	7.088947E-18	7.891892E-18
6.810000E+03	7.034267E-18	7.833753E-18
6.820000E+03	6.980159E-18	7.776185E-18
6.830000E+03	6.925457E-18	7.717891E-18
6.840000E+03	6.872481E-18	7.661456E-18
6.850000E+03	6.820058E-18	7.605576E-18
6.860000E+03	6.767050E-18	7.548981E-18
6.870000E+03	6.715723E-18	7.494202E-18
6.880000E+03	6.664931E-18	7.439962E-18
6.890000E+03	6.613563E-18	7.385019E-18
6.900000E+03	6.563832E-18	7.331848E-18
6.910000E+03	6.514620E-18	7.279201E-18
6.920000E+03	6.464839E-18	7.225862E-18
6.930000E+03	6.416654E-18	7.174255E-18
6.940000E+03	6.368972E-18	7.123155E-18
6.950000E+03	6.320727E-18	7.071375E-18
6.960000E+03	6.274039E-18	7.021286E-18
6.970000E+03	6.226794E-18	6.970523E-18
6.980000E+03	6.181079E-18	6.921424E-18
6.990000E+03	6.135840E-18	6.872809E-18
7.000000E+03	6.090051E-18	6.823531E-18
7.010000E+03	6.045754E-18	6.775878E-18
7.020000E+03	6.000913E-18	6.727569E-18
7.030000E+03	5.957539E-18	6.680860E-18
7.040000E+03	5.913624E-18	6.633500E-18
7.050000E+03	5.871153E-18	6.587717E-18
7.060000E+03	5.829122E-18	6.542385E-18
7.070000E+03	5.786558E-18	6.496413E-18
7.080000E+03	5.745401E-18	6.451981E-18
7.090000E+03	5.703716E-18	6.406914E-18
7.100000E+03	5.663415E-18	6.363363E-18
7.110000E+03	5.622589E-18	6.319184E-18
7.120000E+03	5.583126E-18	6.276498E-18
7.130000E+03	5.543142E-18	6.233190E-18
7.140000E+03	5.504499E-18	6.191352E-18
7.150000E+03	5.465340E-18	6.148898E-18
7.160000E+03	5.427499E-18	6.107892E-18
7.170000E+03	5.389146E-18	6.066276E-18
7.180000E+03	5.352091E-18	6.026086E-18
7.190000E+03	5.314529E-18	5.985291E-18
7.200000E+03	5.278243E-18	5.945902E-18
7.210000E+03	5.241454E-18	5.905914E-18
7.220000E+03	5.205922E-18	5.867310E-18
7.230000E+03	5.169890E-18	5.828113E-18
7.240000E+03	5.135095E-18	5.790280E-18
7.250000E+03	5.099805E-18	5.751858E-18
7.260000E+03	5.065733E-18	5.714781E-18
7.270000E+03	5.031170E-18	5.677121E-18
7.280000E+03	4.997806E-18	5.640786E-18
7.290000E+03	4.963954E-18	5.603874E-18
7.300000E+03	4.931283E-18	5.568267E-18
7.310000E+03	4.898128E-18	5.532088E-18
7.320000E+03	4.866136E-18	5.497195E-18
7.330000E+03	4.833664E-18	5.461736E-18
7.340000E+03	4.802338E-18	5.427545E-18
7.350000E+03	4.770535E-18	5.392792E-18
7.360000E+03	4.739065E-18	5.358390E-18
7.370000E+03	4.708714E-18	5.325230E-18
7.380000E+03	4.677893E-18	5.291515E-18
7.390000E+03	4.648175E-18	5.259026E-18
7.400000E+03	4.617990E-18	5.225985E-18
7.410000E+03	4.588122E-18	5.193281E-18
7.420000E+03	4.559332E-18	5.161776E-18
7.430000E+03	4.530080E-18	5.129728E-18
7.440000E+03	4.501892E-18	5.098863E-18
7.450000E+03	4.473247E-18	5.067460E-18
7.460000E+03	4.444902E-18	5.036377E-18
7.470000E+03	4.417598E-18	5.006454E-18
7.480000E+03	4.389841E-18	4.975999E-18
7.490000E+03	4.363110E-18	4.946688E-18
7.500000E+03	4.335931E-18	4.916851E-18
7.510000E+03	4.309038E-18	4.887319E-18
7.520000E+03	4.283149E-18	4.858910E-18
7.530000E+03	4.256816E-18	4.829980E-18
7.540000E+03	4.230762E-18	4.801348E-18
7.550000E+03	4.205692E-18	4.773817E-18
7.560000E+03	4.180183E-18	4.745771E-18
7.570000E+03	4.154946E-18	4.718017E-18
7.580000E+03	4.130671E-18	4.691341E-18
7.590000E+03	4.105964E-18	4.664158E-18
7.600000E+03	4.081519E-18	4.637259E-18
7.610000E+03	4.058019E-18	4.611418E-18
7.620000E+03	4.034091E-18	4.585075E-18
7.630000E+03	4.010419E-18	4.559010E-18
7.640000E+03	3.987672E-18	4.533983E-18
7.650000E+03	3.964503E-18	4.508461E-18
7.660000E+03	3.941582E-18	4.483209E-18
7.670000E+03	3.919570E-18	4.458977E-18
7.680000E+03	3.897139E-18	4.434255E-18
7.690000E+03	3.874951E-18	4.409798E-18
7.700000E+03	3.853004E-18	4.385602E-18
7.710000E+03	3.831941E-18	4.362401E-18
7.720000E+03	3.810467E-18	4.338720E-18
7.730000E+03	3.789227E-18	4.315294E-18
7.740000E+03	3.768856E-18	4.292845E-18
7.750000E+03	3.748077E-18	4.269921E-18
7.760000E+03	3.727527E-18	4.247247E-18
