#wls	flux	fluxerr
1.591072E+03	1.038886E-05	2.452133E-07
1.630849E+03	1.099225E-05	2.586876E-07
1.670626E+03	1.147111E-05	2.691383E-07
1.710403E+03	1.180161E-05	2.760320E-07
1.750180E+03	1.195775E-05	2.787932E-07
1.789957E+03	1.189071E-05	2.763258E-07
1.829733E+03	1.154563E-05	2.674099E-07
1.869510E+03	1.088461E-05	2.512372E-07
1.909287E+03	9.900428E-06	2.277197E-07
1.949064E+03	8.647707E-06	1.981922E-07
1.988841E+03	7.262538E-06	1.658350E-07
2.028617E+03	5.949686E-06	1.353464E-07
2.068394E+03	4.920041E-06	1.114931E-07
2.108171E+03	4.321895E-06	9.755326E-08
2.147948E+03	4.228980E-06	9.507193E-08
2.187725E+03	4.683462E-06	1.048560E-07
2.227501E+03	5.735236E-06	1.278636E-07
2.267278E+03	7.433006E-06	1.650018E-07
2.307055E+03	9.791005E-06	2.163911E-07
2.346832E+03	1.277300E-05	2.810291E-07
2.386609E+03	1.630514E-05	3.570984E-07
2.426386E+03	2.030311E-05	4.425764E-07
2.466162E+03	2.469859E-05	5.358190E-07
2.505939E+03	2.944672E-05	6.357121E-07
2.545716E+03	3.453332E-05	7.418167E-07
2.585493E+03	3.996701E-05	8.541849E-07
2.625270E+03	4.578003E-05	9.733638E-07
2.665046E+03	5.202069E-05	1.100224E-06
2.704823E+03	5.875391E-05	1.235961E-06
2.744600E+03	6.606064E-05	1.382074E-06
2.784377E+03	7.403642E-05	1.540323E-06
2.824154E+03	8.279453E-05	1.712789E-06
2.863930E+03	9.247380E-05	1.902021E-06
2.903707E+03	1.032334E-04	2.110913E-06
2.943484E+03	1.152757E-04	2.343155E-06
2.983261E+03	1.288333E-04	2.602944E-06
2.993205E+03	1.324952E-04	2.672850E-06
3.003149E+03	1.362726E-04	2.744845E-06
3.013094E+03	1.401702E-04	2.819015E-06
3.023038E+03	1.442094E-04	2.895781E-06
3.032982E+03	1.484304E-04	2.975932E-06
3.042926E+03	1.528812E-04	3.060412E-06
3.052870E+03	1.575650E-04	3.149263E-06
3.062815E+03	1.624789E-04	3.242405E-06
3.072759E+03	1.676239E-04	3.339837E-06
3.082703E+03	1.730088E-04	3.441708E-06
3.092647E+03	1.786288E-04	3.547903E-06
3.102591E+03	1.844902E-04	3.658525E-06
3.112536E+03	1.905927E-04	3.773541E-06
3.122480E+03	1.969516E-04	3.893232E-06
3.132424E+03	2.035599E-04	4.017436E-06
3.142368E+03	2.104265E-04	4.146303E-06
3.152312E+03	2.175610E-04	4.279998E-06
3.162257E+03	2.249700E-04	4.418623E-06
3.172201E+03	2.326518E-04	4.562118E-06
3.182145E+03	2.406266E-04	4.710854E-06
3.192089E+03	2.488940E-04	4.864793E-06
3.202033E+03	2.574671E-04	5.024165E-06
3.211978E+03	2.663509E-04	5.189033E-06
3.221922E+03	2.755599E-04	5.359653E-06
3.231866E+03	2.851050E-04	5.536204E-06
3.241810E+03	2.949981E-04	5.718885E-06
3.251754E+03	3.052461E-04	5.907796E-06
3.261699E+03	3.158671E-04	6.103251E-06
3.271643E+03	3.268749E-04	6.305482E-06
3.281587E+03	3.382784E-04	6.514624E-06
3.291531E+03	3.500987E-04	6.731040E-06
3.301475E+03	3.623456E-04	6.954885E-06
3.311420E+03	3.750418E-04	7.186547E-06
3.321364E+03	3.881990E-04	7.426211E-06
3.331308E+03	4.018346E-04	7.674167E-06
3.341252E+03	4.159681E-04	7.930736E-06
3.351196E+03	4.306188E-04	8.196241E-06
3.361141E+03	4.458063E-04	8.471005E-06
3.371085E+03	4.615451E-04	8.755255E-06
3.381029E+03	4.778627E-04	9.049456E-06
3.390973E+03	4.947674E-04	9.353713E-06
3.400917E+03	5.122941E-04	9.668630E-06
3.410862E+03	5.304516E-04	9.994313E-06
3.420806E+03	5.492617E-04	1.033111E-05
3.430750E+03	5.687468E-04	1.067939E-05
3.440694E+03	5.889207E-04	1.103935E-05
3.450638E+03	6.098133E-04	1.141147E-05
3.460583E+03	6.314386E-04	1.179596E-05
3.470527E+03	6.538085E-04	1.219297E-05
3.480471E+03	6.769430E-04	1.260281E-05
3.490415E+03	7.008526E-04	1.302560E-05
3.500359E+03	7.255637E-04	1.346176E-05
3.510304E+03	7.510654E-04	1.391102E-05
3.520248E+03	7.773814E-04	1.437374E-05
3.530192E+03	8.045150E-04	1.484992E-05
3.540136E+03	8.324775E-04	1.533969E-05
3.550080E+03	8.612578E-04	1.584277E-05
3.560025E+03	8.908532E-04	1.635905E-05
3.569969E+03	9.212798E-04	1.688875E-05
3.579913E+03	9.525100E-04	1.743129E-05
3.589857E+03	9.845584E-04	1.798687E-05
3.599802E+03	1.017419E-03	1.855531E-05
3.609746E+03	1.051073E-03	1.913622E-05
3.619690E+03	1.085515E-03	1.972942E-05
3.629634E+03	1.120750E-03	2.033493E-05
3.639578E+03	1.156758E-03	2.095235E-05
3.649523E+03	1.193560E-03	2.158199E-05
3.659467E+03	1.231129E-03	2.222328E-05
3.669411E+03	1.269473E-03	2.287633E-05
3.679355E+03	1.308589E-03	2.354104E-05
3.689299E+03	1.348490E-03	2.421755E-05
3.699244E+03	1.389156E-03	2.490546E-05
3.709188E+03	1.430594E-03	2.560484E-05
3.719132E+03	1.472796E-03	2.631546E-05
3.729076E+03	1.515762E-03	2.703731E-05
3.739020E+03	1.559474E-03	2.776999E-05
3.748965E+03	1.603926E-03	2.851332E-05
3.758909E+03	1.649088E-03	2.926673E-05
3.768853E+03	1.694920E-03	3.002947E-05
3.778797E+03	1.741425E-03	3.080154E-05
3.788741E+03	1.788512E-03	3.158128E-05
3.798686E+03	1.836141E-03	3.236794E-05
3.808630E+03	1.884257E-03	3.316055E-05
3.818574E+03	1.932735E-03	3.395684E-05
3.828518E+03	1.981458E-03	3.475477E-05
3.838462E+03	2.030295E-03	3.555205E-05
3.848407E+03	2.079070E-03	3.634559E-05
3.858351E+03	2.127579E-03	3.713186E-05
3.868295E+03	2.175564E-03	3.790638E-05
3.878239E+03	2.222779E-03	3.866496E-05
3.888183E+03	2.268940E-03	3.940275E-05
3.898128E+03	2.313739E-03	4.011451E-05
3.908072E+03	2.356858E-03	4.079486E-05
3.918016E+03	2.397976E-03	4.143844E-05
3.927960E+03	2.436805E-03	4.204041E-05
3.937904E+03	2.473046E-03	4.259589E-05
3.947849E+03	2.506408E-03	4.310008E-05
3.957793E+03	2.536713E-03	4.355020E-05
3.967737E+03	2.563762E-03	4.394307E-05
3.977681E+03	2.587450E-03	4.427722E-05
3.987625E+03	2.607736E-03	4.455222E-05
3.997570E+03	2.624614E-03	4.476826E-05
4.007514E+03	2.638208E-03	4.492774E-05
4.017458E+03	2.648642E-03	4.503307E-05
4.027402E+03	2.656144E-03	4.508836E-05
4.037346E+03	2.660960E-03	4.509803E-05
4.047291E+03	2.663376E-03	4.506716E-05
4.057235E+03	2.663710E-03	4.500130E-05
4.067179E+03	2.662316E-03	4.490660E-05
4.077123E+03	2.659496E-03	4.478832E-05
4.087067E+03	2.655581E-03	4.465209E-05
4.097012E+03	2.650937E-03	4.450418E-05
4.106956E+03	2.645811E-03	4.434879E-05
4.116900E+03	2.640507E-03	4.419103E-05
4.126844E+03	2.635289E-03	4.403534E-05
4.136788E+03	2.630390E-03	4.388560E-05
4.146733E+03	2.626029E-03	4.374544E-05
4.156677E+03	2.622419E-03	4.361836E-05
4.166621E+03	2.619757E-03	4.350760E-05
4.176565E+03	2.618239E-03	4.341632E-05
4.186509E+03	2.618065E-03	4.334775E-05
4.196454E+03	2.619428E-03	4.330499E-05
4.206398E+03	2.622508E-03	4.329092E-05
4.216342E+03	2.627515E-03	4.330886E-05
4.226286E+03	2.634683E-03	4.336252E-05
4.236231E+03	2.644232E-03	4.345540E-05
4.246175E+03	2.656353E-03	4.359044E-05
4.256119E+03	2.671309E-03	4.377180E-05
4.266063E+03	2.689358E-03	4.400349E-05
4.276007E+03	2.710763E-03	4.428964E-05
4.285952E+03	2.735784E-03	4.463423E-05
4.295896E+03	2.764663E-03	4.504099E-05
4.305840E+03	2.797715E-03	4.551478E-05
4.315784E+03	2.835114E-03	4.605819E-05
4.325728E+03	2.877132E-03	4.667535E-05
4.335673E+03	2.923987E-03	4.736950E-05
4.345617E+03	2.975881E-03	4.814364E-05
4.355561E+03	3.032988E-03	4.900027E-05
4.365505E+03	3.095498E-03	4.994214E-05
4.375449E+03	3.163494E-03	5.097029E-05
4.385394E+03	3.237105E-03	5.208648E-05
4.395338E+03	3.316369E-03	5.329103E-05
4.405282E+03	3.401161E-03	5.458162E-05
4.415226E+03	3.491342E-03	5.595574E-05
4.425170E+03	3.586649E-03	5.740891E-05
4.435115E+03	3.686689E-03	5.893457E-05
4.445059E+03	3.790981E-03	6.052484E-05
4.455003E+03	3.898802E-03	6.216800E-05
4.464947E+03	4.009312E-03	6.385051E-05
4.474891E+03	4.121457E-03	6.555552E-05
4.484836E+03	4.233963E-03	6.726278E-05
4.494780E+03	4.345379E-03	6.894931E-05
4.504724E+03	4.454087E-03	7.058960E-05
4.514668E+03	4.558368E-03	7.215667E-05
4.524612E+03	4.656495E-03	7.362353E-05
4.534557E+03	4.746692E-03	7.496252E-05
4.544501E+03	4.827279E-03	7.614768E-05
4.554445E+03	4.897063E-03	7.716076E-05
4.564389E+03	4.954902E-03	7.798440E-05
4.574333E+03	4.999979E-03	7.860647E-05
4.584278E+03	5.032102E-03	7.902461E-05
4.594222E+03	5.051370E-03	7.924110E-05
4.604166E+03	5.058038E-03	7.926060E-05
4.614110E+03	5.053078E-03	7.909897E-05
4.624054E+03	5.037368E-03	7.877049E-05
4.633999E+03	5.012253E-03	7.829675E-05
4.643943E+03	4.979125E-03	7.769986E-05
4.653887E+03	4.939459E-03	7.700322E-05
4.663831E+03	4.894754E-03	7.623043E-05
4.673775E+03	4.846493E-03	7.540480E-05
4.683720E+03	4.796221E-03	7.455045E-05
4.693664E+03	4.745257E-03	7.368796E-05
4.703608E+03	4.694847E-03	7.283663E-05
4.713552E+03	4.646188E-03	7.201496E-05
4.723496E+03	4.600235E-03	7.123767E-05
4.733441E+03	4.558005E-03	7.052030E-05
4.743385E+03	4.520145E-03	6.987272E-05
4.753329E+03	4.487421E-03	6.930655E-05
4.763273E+03	4.460290E-03	6.882861E-05
4.773217E+03	4.439041E-03	6.844312E-05
4.783162E+03	4.423970E-03	6.815441E-05
4.793106E+03	4.414988E-03	6.796084E-05
4.803050E+03	4.411756E-03	6.785702E-05
4.812994E+03	4.414028E-03	6.783892E-05
4.822938E+03	4.421361E-03	6.789956E-05
4.832883E+03	4.433211E-03	6.803041E-05
4.842827E+03	4.449049E-03	6.822316E-05
4.852771E+03	4.468340E-03	6.846955E-05
4.862715E+03	4.490429E-03	6.875939E-05
4.872660E+03	4.514741E-03	6.908381E-05
4.882604E+03	4.540574E-03	6.943201E-05
4.892548E+03	4.567375E-03	6.979550E-05
4.902492E+03	4.594592E-03	7.016584E-05
4.912436E+03	4.621763E-03	7.053599E-05
4.922381E+03	4.648611E-03	7.090170E-05
4.932325E+03	4.674916E-03	7.125968E-05
4.942269E+03	4.700911E-03	7.161346E-05
4.952213E+03	4.726911E-03	7.196789E-05
4.962157E+03	4.753411E-03	7.233052E-05
4.972102E+03	4.781058E-03	7.271115E-05
4.982046E+03	4.810756E-03	7.312352E-05
4.991990E+03	4.843262E-03	7.357909E-05
5.001934E+03	4.879447E-03	7.409105E-05
5.011878E+03	4.920247E-03	7.467353E-05
5.021823E+03	4.966451E-03	7.533841E-05
5.031767E+03	5.018708E-03	7.609542E-05
5.041711E+03	5.077595E-03	7.695325E-05
5.051655E+03	5.143611E-03	7.791931E-05
5.061599E+03	5.216980E-03	7.899691E-05
5.071544E+03	5.297875E-03	8.018857E-05
5.081488E+03	5.386444E-03	8.149640E-05
5.091432E+03	5.482467E-03	8.291703E-05
5.101376E+03	5.585839E-03	8.444876E-05
5.111320E+03	5.696072E-03	8.608417E-05
5.121265E+03	5.812812E-03	8.781785E-05
5.131209E+03	5.935408E-03	8.963996E-05
5.141153E+03	6.063137E-03	9.153954E-05
5.151097E+03	6.195089E-03	9.350287E-05
5.161041E+03	6.330138E-03	9.551300E-05
5.170986E+03	6.467083E-03	9.755182E-05
5.180930E+03	6.604525E-03	9.959831E-05
5.190874E+03	6.741152E-03	1.016328E-04
5.200818E+03	6.875267E-03	1.036297E-04
5.210762E+03	7.005534E-03	1.055691E-04
5.220707E+03	7.130576E-03	1.074303E-04
5.230651E+03	7.249117E-03	1.091943E-04
5.240595E+03	7.360069E-03	1.108447E-04
5.250539E+03	7.462723E-03	1.123711E-04
5.260483E+03	7.556355E-03	1.137627E-04
5.270428E+03	7.640571E-03	1.150136E-04
5.280372E+03	7.715020E-03	1.161188E-04
5.290316E+03	7.779590E-03	1.170765E-04
5.300260E+03	7.834043E-03	1.178835E-04
5.310204E+03	7.878340E-03	1.185391E-04
5.320149E+03	7.912411E-03	1.190424E-04
5.330093E+03	7.936484E-03	1.193968E-04
5.340037E+03	7.950456E-03	1.196009E-04
5.349981E+03	7.954536E-03	1.196579E-04
5.359925E+03	7.948951E-03	1.195712E-04
5.369870E+03	7.933832E-03	1.193427E-04
5.379814E+03	7.909032E-03	1.189703E-04
5.389758E+03	7.874676E-03	1.184557E-04
5.399702E+03	7.830817E-03	1.177997E-04
5.409646E+03	7.777117E-03	1.169972E-04
5.419591E+03	7.713614E-03	1.160486E-04
5.429535E+03	7.640131E-03	1.149512E-04
5.439479E+03	7.556665E-03	1.137048E-04
5.449423E+03	7.463669E-03	1.123162E-04
5.459367E+03	7.361391E-03	1.107890E-04
5.469312E+03	7.250545E-03	1.091337E-04
5.479256E+03	7.132004E-03	1.073635E-04
5.489200E+03	7.007068E-03	1.054978E-04
5.499144E+03	6.876952E-03	1.035547E-04
5.509089E+03	6.743552E-03	1.015627E-04
5.519033E+03	6.608826E-03	9.955109E-05
5.528977E+03	6.475081E-03	9.755463E-05
5.538921E+03	6.344640E-03	9.560822E-05
5.548865E+03	6.219985E-03	9.374924E-05
5.558810E+03	6.103443E-03	9.201273E-05
5.568754E+03	5.997395E-03	9.043461E-05
5.578698E+03	5.903901E-03	8.904600E-05
5.588642E+03	5.824897E-03	8.787618E-05
5.598586E+03	5.761880E-03	8.694788E-05
5.608531E+03	5.716087E-03	8.627988E-05
5.618475E+03	5.688574E-03	8.588834E-05
5.628419E+03	5.679742E-03	8.577949E-05
5.638363E+03	5.689906E-03	8.595835E-05
5.648307E+03	5.719195E-03	8.642708E-05
5.658252E+03	5.767141E-03	8.717891E-05
5.668196E+03	5.833060E-03	8.820375E-05
5.678140E+03	5.916067E-03	8.948850E-05
5.688084E+03	6.014951E-03	9.101511E-05
5.698028E+03	6.127989E-03	9.275778E-05
5.707973E+03	6.253499E-03	9.469132E-05
5.717917E+03	6.389393E-03	9.678432E-05
5.727861E+03	6.533272E-03	9.900064E-05
5.737805E+03	6.682689E-03	1.013034E-04
5.747749E+03	6.835106E-03	1.036542E-04
5.757694E+03	6.987712E-03	1.060106E-04
5.767638E+03	7.137719E-03	1.083303E-04
5.777582E+03	7.282675E-03	1.105760E-04
5.787526E+03	7.419903E-03	1.127070E-04
5.797470E+03	7.547150E-03	1.146891E-04
5.807415E+03	7.662602E-03	1.164945E-04
5.817359E+03	7.764765E-03	1.181002E-04
5.827303E+03	7.852577E-03	1.194898E-04
5.837247E+03	7.925323E-03	1.206523E-04
5.847191E+03	7.983005E-03	1.215874E-04
5.857136E+03	8.025629E-03	1.222947E-04
5.867080E+03	8.053571E-03	1.227799E-04
5.877024E+03	8.067401E-03	1.230512E-04
5.886968E+03	8.067789E-03	1.231185E-04
5.896912E+03	8.055512E-03	1.229935E-04
5.906857E+03	8.031106E-03	1.226839E-04
5.916801E+03	7.995332E-03	1.222013E-04
5.926745E+03	7.949071E-03	1.215586E-04
5.936689E+03	7.893122E-03	1.207680E-04
5.946633E+03	7.828114E-03	1.198387E-04
5.956578E+03	7.755090E-03	1.187865E-04
5.966522E+03	7.674644E-03	1.176203E-04
5.976466E+03	7.587895E-03	1.163570E-04
5.986410E+03	7.495411E-03	1.150051E-04
5.996354E+03	7.398021E-03	1.135772E-04
6.006299E+03	7.296668E-03	1.120877E-04
6.016243E+03	7.192255E-03	1.105502E-04
6.026187E+03	7.085792E-03	1.089801E-04
6.036131E+03	6.978181E-03	1.073914E-04
6.046075E+03	6.870869E-03	1.058061E-04
6.056020E+03	6.764915E-03	1.042405E-04
6.065964E+03	6.661755E-03	1.027169E-04
6.075908E+03	6.562617E-03	1.012542E-04
6.085852E+03	6.468667E-03	9.987049E-05
6.095796E+03	6.381020E-03	9.858313E-05
6.105741E+03	6.300653E-03	9.740740E-05
6.115685E+03	6.228261E-03	9.635427E-05
6.125629E+03	6.164479E-03	9.543378E-05
6.135573E+03	6.109854E-03	9.465467E-05
6.145518E+03	6.064519E-03	9.401929E-05
6.155462E+03	6.028702E-03	9.353146E-05
6.165406E+03	6.002342E-03	9.319057E-05
6.175350E+03	5.985275E-03	9.299438E-05
6.185294E+03	5.977064E-03	9.293638E-05
6.195239E+03	5.977016E-03	9.300609E-05
6.205183E+03	5.984444E-03	9.319304E-05
6.215127E+03	5.998476E-03	9.348393E-05
6.225071E+03	6.018184E-03	9.386450E-05
6.235015E+03	6.042554E-03	9.431909E-05
6.244960E+03	6.070705E-03	9.483415E-05
6.254904E+03	6.101699E-03	9.539512E-05
6.264848E+03	6.134642E-03	9.598811E-05
6.274792E+03	6.168825E-03	9.660209E-05
6.284736E+03	6.203767E-03	9.722957E-05
6.294681E+03	6.238933E-03	9.786218E-05
6.304625E+03	6.274057E-03	9.849572E-05
6.314569E+03	6.309048E-03	9.912878E-05
6.324513E+03	6.343736E-03	9.975868E-05
6.334457E+03	6.378260E-03	1.003876E-04
6.344402E+03	6.412630E-03	1.010156E-04
6.354346E+03	6.446886E-03	1.016434E-04
6.364290E+03	6.481084E-03	1.022719E-04
6.374234E+03	6.515478E-03	1.029049E-04
6.384178E+03	6.550045E-03	1.035423E-04
6.394123E+03	6.585048E-03	1.041881E-04
6.404067E+03	6.620530E-03	1.048430E-04
6.414011E+03	6.656519E-03	1.055075E-04
6.423955E+03	6.693109E-03	1.061831E-04
6.433899E+03	6.730216E-03	1.068685E-04
6.443844E+03	6.767824E-03	1.075634E-04
6.453788E+03	6.805578E-03	1.082623E-04
6.463732E+03	6.843473E-03	1.089649E-04
6.473676E+03	6.881278E-03	1.096678E-04
6.483620E+03	6.918625E-03	1.103649E-04
6.493565E+03	6.955291E-03	1.110527E-04
6.503509E+03	6.990927E-03	1.117256E-04
6.513453E+03	7.025156E-03	1.123775E-04
6.523397E+03	7.057515E-03	1.130010E-04
6.533341E+03	7.087640E-03	1.135900E-04
6.543286E+03	7.114940E-03	1.141350E-04
6.553230E+03	7.138915E-03	1.146280E-04
6.563174E+03	7.159205E-03	1.150628E-04
6.573118E+03	7.175389E-03	1.154325E-04
6.583062E+03	7.187027E-03	1.157300E-04
6.593007E+03	7.193993E-03	1.159529E-04
6.602951E+03	7.196024E-03	1.160968E-04
6.612895E+03	7.193387E-03	1.161657E-04
6.622839E+03	7.185972E-03	1.161577E-04
6.632783E+03	7.174014E-03	1.160763E-04
6.642728E+03	7.158024E-03	1.159296E-04
6.652672E+03	7.138476E-03	1.157251E-04
6.662616E+03	7.115788E-03	1.154693E-04
6.672560E+03	7.090552E-03	1.151718E-04
6.682504E+03	7.063521E-03	1.148446E-04
6.692449E+03	7.035211E-03	1.144961E-04
6.702393E+03	7.006338E-03	1.141379E-04
6.712337E+03	6.977234E-03	1.137753E-04
6.722281E+03	6.948705E-03	1.134215E-04
6.732225E+03	6.920967E-03	1.130799E-04
6.742170E+03	6.894701E-03	1.127619E-04
6.752114E+03	6.870056E-03	1.124700E-04
6.762058E+03	6.847455E-03	1.122110E-04
6.772002E+03	6.827161E-03	1.119894E-04
6.781946E+03	6.809279E-03	1.118072E-04
6.791891E+03	6.794069E-03	1.116685E-04
6.801835E+03	6.781512E-03	1.115734E-04
6.811779E+03	6.771809E-03	1.115251E-04
6.821723E+03	6.764713E-03	1.115199E-04
6.831668E+03	6.760455E-03	1.115616E-04
6.841612E+03	6.758879E-03	1.116477E-04
6.851556E+03	6.759898E-03	1.117771E-04
6.861500E+03	6.763294E-03	1.119462E-04
6.871444E+03	6.769216E-03	1.121576E-04
6.881389E+03	6.777118E-03	1.124024E-04
6.891333E+03	6.787215E-03	1.126843E-04
6.901277E+03	6.799064E-03	1.129960E-04
6.911221E+03	6.812431E-03	1.133337E-04
6.921165E+03	6.827204E-03	1.136957E-04
6.931110E+03	6.843008E-03	1.140758E-04
6.941054E+03	6.859572E-03	1.144695E-04
6.950998E+03	6.876627E-03	1.148723E-04
6.960942E+03	6.893928E-03	1.152803E-04
6.970886E+03	6.911218E-03	1.156892E-04
6.980831E+03	6.928134E-03	1.160928E-04
6.990775E+03	6.944740E-03	1.164923E-04
7.000719E+03	6.960411E-03	1.168771E-04
7.010663E+03	6.975373E-03	1.172511E-04
7.020607E+03	6.989043E-03	1.176043E-04
7.030552E+03	7.001508E-03	1.179382E-04
7.040496E+03	7.012463E-03	1.182476E-04
7.050440E+03	7.021757E-03	1.185299E-04
7.060384E+03	7.029365E-03	1.187846E-04
7.070328E+03	7.034858E-03	1.190043E-04
7.080273E+03	7.038252E-03	1.191893E-04
7.090217E+03	7.039264E-03	1.193346E-04
7.100161E+03	7.037919E-03	1.194406E-04
7.110105E+03	7.034121E-03	1.195054E-04
7.120049E+03	7.027617E-03	1.195247E-04
7.129994E+03	7.018456E-03	1.194992E-04
7.139938E+03	7.006286E-03	1.194227E-04
7.149882E+03	6.991295E-03	1.192983E-04
7.159826E+03	6.973268E-03	1.191222E-04
7.169770E+03	6.952018E-03	1.188910E-04
7.179715E+03	6.927630E-03	1.186059E-04
7.189659E+03	6.900078E-03	1.182665E-04
7.199603E+03	6.869232E-03	1.178702E-04
7.209547E+03	6.835099E-03	1.174170E-04
7.219491E+03	6.797724E-03	1.169075E-04
7.229436E+03	6.757195E-03	1.163431E-04
7.239380E+03	6.713594E-03	1.157249E-04
7.249324E+03	6.666766E-03	1.150501E-04
7.259268E+03	6.617161E-03	1.143263E-04
7.269212E+03	6.564808E-03	1.135538E-04
7.279157E+03	6.509787E-03	1.127338E-04
7.289101E+03	6.452503E-03	1.118733E-04
7.299045E+03	6.392994E-03	1.109726E-04
7.308989E+03	6.331621E-03	1.100381E-04
7.318933E+03	6.268791E-03	1.090765E-04
7.328878E+03	6.204835E-03	1.080935E-04
7.338822E+03	6.140379E-03	1.071001E-04
7.348766E+03	6.075559E-03	1.060985E-04
7.358710E+03	6.011134E-03	1.051021E-04
7.368654E+03	5.947365E-03	1.041152E-04
7.378599E+03	5.884889E-03	1.031492E-04
7.388543E+03	5.824023E-03	1.022097E-04
7.398487E+03	5.765197E-03	1.013044E-04
7.408431E+03	5.708936E-03	1.004425E-04
7.418375E+03	5.655430E-03	9.962765E-05
7.428320E+03	5.605323E-03	9.887134E-05
7.438264E+03	5.558626E-03	9.817398E-05
7.448208E+03	5.515745E-03	9.754297E-05
7.458152E+03	5.476697E-03	9.697888E-05
7.468097E+03	5.441933E-03	9.648997E-05
7.478041E+03	5.411306E-03	9.607393E-05
7.487985E+03	5.384750E-03	9.572985E-05
7.497929E+03	5.362292E-03	9.545852E-05
7.507873E+03	5.343778E-03	9.525744E-05
7.517818E+03	5.329263E-03	9.512787E-05
7.527762E+03	5.318313E-03	9.506231E-05
7.537706E+03	5.310824E-03	9.505913E-05
7.547650E+03	5.306673E-03	9.511634E-05
7.557594E+03	5.305478E-03	9.522733E-05
7.567539E+03	5.307069E-03	9.538925E-05
7.577483E+03	5.311035E-03	9.559489E-05
7.587427E+03	5.317325E-03	9.584349E-05
7.597371E+03	5.325393E-03	9.612535E-05
7.607315E+03	5.335217E-03	9.644021E-05
7.617260E+03	5.346322E-03	9.677956E-05
7.627204E+03	5.358720E-03	9.714374E-05
7.637148E+03	5.371932E-03	9.752415E-05
7.647092E+03	5.385959E-03	9.792082E-05
7.657036E+03	5.400437E-03	9.832719E-05
7.666981E+03	5.415107E-03	9.873857E-05
7.676925E+03	5.429703E-03	9.915010E-05
7.686869E+03	5.444002E-03	9.955768E-05
7.696813E+03	5.457772E-03	9.995702E-05
7.706757E+03	5.470658E-03	1.003416E-04
7.716702E+03	5.482743E-03	1.007127E-04
