#wls	flux	fluxerr
1.591072E+03	9.522296E-06	2.575550E-07
1.630849E+03	1.006021E-05	2.712153E-07
1.670626E+03	1.048259E-05	2.816559E-07
1.710403E+03	1.076822E-05	2.883374E-07
1.750180E+03	1.089401E-05	2.906798E-07
1.789957E+03	1.081634E-05	2.875671E-07
1.829733E+03	1.048628E-05	2.777628E-07
1.869510E+03	9.870681E-06	2.604678E-07
1.909287E+03	8.964316E-06	2.356345E-07
1.949064E+03	7.817933E-06	2.046859E-07
1.988841E+03	6.555519E-06	1.709370E-07
2.028617E+03	5.362166E-06	1.392390E-07
2.068394E+03	4.427340E-06	1.144755E-07
2.108171E+03	3.883082E-06	9.996600E-08
2.147948E+03	3.793733E-06	9.723107E-08
2.187725E+03	4.194955E-06	1.070247E-07
2.227501E+03	5.129101E-06	1.302482E-07
2.267278E+03	6.637194E-06	1.677427E-07
2.307055E+03	8.729244E-06	2.195426E-07
2.346832E+03	1.137026E-05	2.845440E-07
2.386609E+03	1.449200E-05	3.608258E-07
2.426386E+03	1.801724E-05	4.462737E-07
2.466162E+03	2.188338E-05	5.391675E-07
2.505939E+03	2.604877E-05	6.383305E-07
2.545716E+03	3.049896E-05	7.432673E-07
2.585493E+03	3.523946E-05	8.539710E-07
2.625270E+03	4.029620E-05	9.709219E-07
2.665046E+03	4.570858E-05	1.094906E-06
2.704823E+03	5.152974E-05	1.227010E-06
2.744600E+03	5.782563E-05	1.368595E-06
2.784377E+03	6.467332E-05	1.521238E-06
2.824154E+03	7.216334E-05	1.686786E-06
2.863930E+03	8.040560E-05	1.867477E-06
2.903707E+03	8.952397E-05	2.065805E-06
2.943484E+03	9.967482E-05	2.284929E-06
2.983261E+03	1.110339E-04	2.528351E-06
2.993205E+03	1.140897E-04	2.593554E-06
3.003149E+03	1.172361E-04	2.660572E-06
3.013094E+03	1.204767E-04	2.729472E-06
3.023038E+03	1.238292E-04	2.800646E-06
3.032982E+03	1.273272E-04	2.874837E-06
3.042926E+03	1.310109E-04	2.952936E-06
3.052870E+03	1.348818E-04	3.034955E-06
3.062815E+03	1.389365E-04	3.120791E-06
3.072759E+03	1.431743E-04	3.210413E-06
3.082703E+03	1.476015E-04	3.303936E-06
3.092647E+03	1.522126E-04	3.401215E-06
3.102591E+03	1.570114E-04	3.502315E-06
3.112536E+03	1.619961E-04	3.607170E-06
3.122480E+03	1.671780E-04	3.716012E-06
3.132424E+03	1.725494E-04	3.828645E-06
3.142368E+03	1.781159E-04	3.945172E-06
3.152312E+03	1.838836E-04	4.065705E-06
3.162257E+03	1.898560E-04	4.190293E-06
3.172201E+03	1.960292E-04	4.318831E-06
3.182145E+03	2.024180E-04	4.451619E-06
3.192089E+03	2.090195E-04	4.588565E-06
3.202033E+03	2.158419E-04	4.729829E-06
3.211978E+03	2.228866E-04	4.875410E-06
3.221922E+03	2.301627E-04	5.025485E-06
3.231866E+03	2.376763E-04	5.180155E-06
3.241810E+03	2.454335E-04	5.339530E-06
3.251754E+03	2.534369E-04	5.503634E-06
3.261699E+03	2.616977E-04	5.672683E-06
3.271643E+03	2.702235E-04	5.846808E-06
3.281587E+03	2.790176E-04	6.026055E-06
3.291531E+03	2.880927E-04	6.210662E-06
3.301475E+03	2.974532E-04	6.400696E-06
3.311420E+03	3.071125E-04	6.596407E-06
3.321364E+03	3.170755E-04	6.797868E-06
3.331308E+03	3.273523E-04	7.005258E-06
3.341252E+03	3.379531E-04	7.218764E-06
3.351196E+03	3.488885E-04	7.438568E-06
3.361141E+03	3.601696E-04	7.664876E-06
3.371085E+03	3.718028E-04	7.897781E-06
3.381029E+03	3.838055E-04	8.137612E-06
3.390973E+03	3.961791E-04	8.384357E-06
3.400917E+03	4.089475E-04	8.638478E-06
3.410862E+03	4.221130E-04	8.899984E-06
3.420806E+03	4.356889E-04	9.169110E-06
3.430750E+03	4.496898E-04	9.446113E-06
3.440694E+03	4.641240E-04	9.731126E-06
3.450638E+03	4.790137E-04	1.002456E-05
3.460583E+03	4.943684E-04	1.032657E-05
3.470527E+03	5.101989E-04	1.063733E-05
3.480471E+03	5.265230E-04	1.095716E-05
3.490415E+03	5.433521E-04	1.128624E-05
3.500359E+03	5.607135E-04	1.162508E-05
3.510304E+03	5.786066E-04	1.197362E-05
3.520248E+03	5.970605E-04	1.233241E-05
3.530192E+03	6.160917E-04	1.270171E-05
3.540136E+03	6.357253E-04	1.308199E-05
3.550080E+03	6.559729E-04	1.347343E-05
3.560025E+03	6.768546E-04	1.387638E-05
3.569969E+03	6.984079E-04	1.429153E-05
3.579913E+03	7.206393E-04	1.471896E-05
3.589857E+03	7.435888E-04	1.515940E-05
3.599802E+03	7.672792E-04	1.561326E-05
3.609746E+03	7.917235E-04	1.608073E-05
3.619690E+03	8.169372E-04	1.656203E-05
3.629634E+03	8.429352E-04	1.705741E-05
3.639578E+03	8.697081E-04	1.756659E-05
3.649523E+03	8.972696E-04	1.808978E-05
3.659467E+03	9.255909E-04	1.862633E-05
3.669411E+03	9.546681E-04	1.917609E-05
3.679355E+03	9.844838E-04	1.973863E-05
3.689299E+03	1.015027E-03	2.031369E-05
3.699244E+03	1.046263E-03	2.090048E-05
3.709188E+03	1.078174E-03	2.149858E-05
3.719132E+03	1.110725E-03	2.210728E-05
3.729076E+03	1.143892E-03	2.272600E-05
3.739020E+03	1.177632E-03	2.335385E-05
3.748965E+03	1.211911E-03	2.399009E-05
3.758909E+03	1.246673E-03	2.463363E-05
3.768853E+03	1.281861E-03	2.528325E-05
3.778797E+03	1.317445E-03	2.593834E-05
3.788741E+03	1.353326E-03	2.659694E-05
3.798686E+03	1.389447E-03	2.725791E-05
3.808630E+03	1.425742E-03	2.791997E-05
3.818574E+03	1.462099E-03	2.858088E-05
3.828518E+03	1.498414E-03	2.923867E-05
3.838462E+03	1.534582E-03	2.989131E-05
3.848407E+03	1.570470E-03	3.053623E-05
3.858351E+03	1.605933E-03	3.117065E-05
3.868295E+03	1.640791E-03	3.179116E-05
3.878239E+03	1.674885E-03	3.239477E-05
3.888183E+03	1.708035E-03	3.297808E-05
3.898128E+03	1.740051E-03	3.353756E-05
3.908072E+03	1.770744E-03	3.406969E-05
3.918016E+03	1.799929E-03	3.457109E-05
3.927960E+03	1.827459E-03	3.503907E-05
3.937904E+03	1.853182E-03	3.547092E-05
3.947849E+03	1.876951E-03	3.586403E-05
3.957793E+03	1.898702E-03	3.621738E-05
3.967737E+03	1.918348E-03	3.652952E-05
3.977681E+03	1.935862E-03	3.680016E-05
3.987625E+03	1.951236E-03	3.702938E-05
3.997570E+03	1.964473E-03	3.721743E-05
4.007514E+03	1.975658E-03	3.736614E-05
4.017458E+03	1.984855E-03	3.747693E-05
4.027402E+03	1.992188E-03	3.755235E-05
4.037346E+03	1.997790E-03	3.759506E-05
4.047291E+03	2.001811E-03	3.760805E-05
4.057235E+03	2.004419E-03	3.759463E-05
4.067179E+03	2.005808E-03	3.755859E-05
4.077123E+03	2.006142E-03	3.750310E-05
4.087067E+03	2.005609E-03	3.743175E-05
4.097012E+03	2.004427E-03	3.734871E-05
4.106956E+03	2.002742E-03	3.725676E-05
4.116900E+03	2.000749E-03	3.715956E-05
4.126844E+03	1.998622E-03	3.706036E-05
4.136788E+03	1.996525E-03	3.696223E-05
4.146733E+03	1.994620E-03	3.686815E-05
4.156677E+03	1.993066E-03	3.678105E-05
4.166621E+03	1.992014E-03	3.670370E-05
4.176565E+03	1.991617E-03	3.663883E-05
4.186509E+03	1.992022E-03	3.658916E-05
4.196454E+03	1.993382E-03	3.655735E-05
4.206398E+03	1.995826E-03	3.654575E-05
4.216342E+03	1.999509E-03	3.655708E-05
4.226286E+03	2.004606E-03	3.659445E-05
4.236231E+03	2.011279E-03	3.666070E-05
4.246175E+03	2.019663E-03	3.675815E-05
4.256119E+03	2.029950E-03	3.689019E-05
4.266063E+03	2.042322E-03	3.705998E-05
4.276007E+03	2.056963E-03	3.727068E-05
4.285952E+03	2.074059E-03	3.752550E-05
4.295896E+03	2.093778E-03	3.782729E-05
4.305840E+03	2.116333E-03	3.817973E-05
4.315784E+03	2.141845E-03	3.858478E-05
4.325728E+03	2.170495E-03	3.904550E-05
4.335673E+03	2.202407E-03	3.956391E-05
4.345617E+03	2.237691E-03	4.014177E-05
4.355561E+03	2.276414E-03	4.078004E-05
4.365505E+03	2.318631E-03	4.147952E-05
4.375449E+03	2.364331E-03	4.223978E-05
4.385394E+03	2.413520E-03	4.306074E-05
4.395338E+03	2.466133E-03	4.394102E-05
4.405282E+03	2.522041E-03	4.487814E-05
4.415226E+03	2.581113E-03	4.586959E-05
4.425170E+03	2.643101E-03	4.691082E-05
4.435115E+03	2.707672E-03	4.799575E-05
4.445059E+03	2.774421E-03	4.911713E-05
4.455003E+03	2.842784E-03	5.026485E-05
4.464947E+03	2.912163E-03	5.142831E-05
4.474891E+03	2.981849E-03	5.259501E-05
4.484836E+03	3.051030E-03	5.375070E-05
4.494780E+03	3.118866E-03	5.488065E-05
4.504724E+03	3.184473E-03	5.596947E-05
4.514668E+03	3.246955E-03	5.700164E-05
4.524612E+03	3.305450E-03	5.796228E-05
4.534557E+03	3.359105E-03	5.883673E-05
4.544501E+03	3.407134E-03	5.961156E-05
4.554445E+03	3.448973E-03	6.027733E-05
4.564389E+03	3.484057E-03	6.082452E-05
4.574333E+03	3.512010E-03	6.124699E-05
4.584278E+03	3.532753E-03	6.154381E-05
4.594222E+03	3.546361E-03	6.171671E-05
4.604166E+03	3.552979E-03	6.176856E-05
4.614110E+03	3.553164E-03	6.170946E-05
4.624054E+03	3.547375E-03	6.154771E-05
4.633999E+03	3.536382E-03	6.129693E-05
4.643943E+03	3.520929E-03	6.097031E-05
4.653887E+03	3.501814E-03	6.058183E-05
4.663831E+03	3.479851E-03	6.014575E-05
4.673775E+03	3.455851E-03	5.967617E-05
4.683720E+03	3.430667E-03	5.918792E-05
4.693664E+03	3.405016E-03	5.869337E-05
4.703608E+03	3.379585E-03	5.820434E-05
4.713552E+03	3.355032E-03	5.773218E-05
4.723496E+03	3.331847E-03	5.728521E-05
4.733441E+03	3.310587E-03	5.687294E-05
4.743385E+03	3.291533E-03	5.650009E-05
4.753329E+03	3.275061E-03	5.617302E-05
4.763273E+03	3.261406E-03	5.589563E-05
4.773217E+03	3.250691E-03	5.566991E-05
4.783162E+03	3.243098E-03	5.549887E-05
4.793106E+03	3.238749E-03	5.538444E-05
4.803050E+03	3.237614E-03	5.532602E-05
4.812994E+03	3.239714E-03	5.532386E-05
4.822938E+03	3.244969E-03	5.537645E-05
4.832883E+03	3.253214E-03	5.548086E-05
4.842827E+03	3.264278E-03	5.563409E-05
4.852771E+03	3.277993E-03	5.583318E-05
4.862715E+03	3.294098E-03	5.607360E-05
4.872660E+03	3.312389E-03	5.635182E-05
4.882604E+03	3.332558E-03	5.666256E-05
4.892548E+03	3.354413E-03	5.700247E-05
4.902492E+03	3.377753E-03	5.736812E-05
4.912436E+03	3.402404E-03	5.775655E-05
4.922381E+03	3.428319E-03	5.816689E-05
4.932325E+03	3.455441E-03	5.859819E-05
4.942269E+03	3.483869E-03	5.905211E-05
4.952213E+03	3.513699E-03	5.953026E-05
4.962157E+03	3.545126E-03	6.003589E-05
4.972102E+03	3.578368E-03	6.057273E-05
4.982046E+03	3.613795E-03	6.114699E-05
4.991990E+03	3.651651E-03	6.176276E-05
5.001934E+03	3.692254E-03	6.242541E-05
5.011878E+03	3.735946E-03	6.314068E-05
5.021823E+03	3.782959E-03	6.391246E-05
5.031767E+03	3.833499E-03	6.474421E-05
5.041711E+03	3.887716E-03	6.563841E-05
5.051655E+03	3.945695E-03	6.659650E-05
5.061599E+03	4.007400E-03	6.761783E-05
5.071544E+03	4.072764E-03	6.870125E-05
5.081488E+03	4.141688E-03	6.984511E-05
5.091432E+03	4.213857E-03	7.104407E-05
5.101376E+03	4.289049E-03	7.229440E-05
5.111320E+03	4.366761E-03	7.358764E-05
5.121265E+03	4.446666E-03	7.491832E-05
5.131209E+03	4.528240E-03	7.627761E-05
5.141153E+03	4.610933E-03	7.765634E-05
5.151097E+03	4.694150E-03	7.904448E-05
5.161041E+03	4.777182E-03	8.043017E-05
5.170986E+03	4.859312E-03	8.180142E-05
5.180930E+03	4.939758E-03	8.314509E-05
5.190874E+03	5.017857E-03	8.445013E-05
5.200818E+03	5.092693E-03	8.570117E-05
5.210762E+03	5.163589E-03	8.688690E-05
5.220707E+03	5.229856E-03	8.799577E-05
5.230651E+03	5.290856E-03	8.901714E-05
5.240595E+03	5.345944E-03	8.994021E-05
5.250539E+03	5.394720E-03	9.075829E-05
5.260483E+03	5.436765E-03	9.146440E-05
5.270428E+03	5.471860E-03	9.205488E-05
5.280372E+03	5.499835E-03	9.252689E-05
5.290316E+03	5.520735E-03	9.288122E-05
5.300260E+03	5.534560E-03	9.311787E-05
5.310204E+03	5.541523E-03	9.324044E-05
5.320149E+03	5.541884E-03	9.325325E-05
5.330093E+03	5.536127E-03	9.316448E-05
5.340037E+03	5.524585E-03	9.297967E-05
5.349981E+03	5.507841E-03	9.270863E-05
5.359925E+03	5.486376E-03	9.235939E-05
5.369870E+03	5.460572E-03	9.193832E-05
5.379814E+03	5.430552E-03	9.144745E-05
5.389758E+03	5.396440E-03	9.088877E-05
5.399702E+03	5.358302E-03	9.026328E-05
5.409646E+03	5.315973E-03	8.956815E-05
5.419591E+03	5.269511E-03	8.880426E-05
5.429535E+03	5.218857E-03	8.797052E-05
5.439479E+03	5.164120E-03	8.706865E-05
5.449423E+03	5.105713E-03	8.610553E-05
5.459367E+03	5.043928E-03	8.508598E-05
5.469312E+03	4.979367E-03	8.402004E-05
5.479256E+03	4.912652E-03	8.291813E-05
5.489200E+03	4.844664E-03	8.179502E-05
5.499144E+03	4.776156E-03	8.066337E-05
5.509089E+03	4.708203E-03	7.954127E-05
5.519033E+03	4.641866E-03	7.844661E-05
5.528977E+03	4.578388E-03	7.740038E-05
5.538921E+03	4.518865E-03	7.642111E-05
5.548865E+03	4.464473E-03	7.552871E-05
5.558810E+03	4.416280E-03	7.474133E-05
5.568754E+03	4.375341E-03	7.407690E-05
5.578698E+03	4.342481E-03	7.354951E-05
5.588642E+03	4.318506E-03	7.317294E-05
5.598586E+03	4.304040E-03	7.295793E-05
5.608531E+03	4.299542E-03	7.291245E-05
5.618475E+03	4.305385E-03	7.304302E-05
5.628419E+03	4.321647E-03	7.335119E-05
5.638363E+03	4.348355E-03	7.383766E-05
5.648307E+03	4.385405E-03	7.450088E-05
5.658252E+03	4.432468E-03	7.533555E-05
5.668196E+03	4.489073E-03	7.633387E-05
5.678140E+03	4.554586E-03	7.748533E-05
5.688084E+03	4.628295E-03	7.877803E-05
5.698028E+03	4.709123E-03	8.019387E-05
5.707973E+03	4.796037E-03	8.171546E-05
5.717917E+03	4.887740E-03	8.332087E-05
5.727861E+03	4.982737E-03	8.498477E-05
5.737805E+03	5.079530E-03	8.668171E-05
5.747749E+03	5.176564E-03	8.838524E-05
5.757694E+03	5.272136E-03	9.006630E-05
5.767638E+03	5.364620E-03	9.169708E-05
5.777582E+03	5.452639E-03	9.325398E-05
5.787526E+03	5.534708E-03	9.471148E-05
5.797470E+03	5.609678E-03	9.604980E-05
5.807415E+03	5.676615E-03	9.725271E-05
5.817359E+03	5.734802E-03	9.830772E-05
5.827303E+03	5.783790E-03	9.920689E-05
5.837247E+03	5.823184E-03	9.994317E-05
5.847191E+03	5.853039E-03	1.005172E-04
5.857136E+03	5.873359E-03	1.009288E-04
5.867080E+03	5.884320E-03	1.011807E-04
5.877024E+03	5.886203E-03	1.012774E-04
5.886968E+03	5.879373E-03	1.012249E-04
5.896912E+03	5.864296E-03	1.010309E-04
5.906857E+03	5.841294E-03	1.007007E-04
5.916801E+03	5.810867E-03	1.002427E-04
5.926745E+03	5.773591E-03	9.966656E-05
5.936689E+03	5.730005E-03	9.898130E-05
5.946633E+03	5.680544E-03	9.819423E-05
5.956578E+03	5.625925E-03	9.731752E-05
5.966522E+03	5.566566E-03	9.635821E-05
5.976466E+03	5.503324E-03	9.533095E-05
5.986410E+03	5.436758E-03	9.424526E-05
5.996354E+03	5.367663E-03	9.311480E-05
6.006299E+03	5.296930E-03	9.195491E-05
6.016243E+03	5.225384E-03	9.077985E-05
6.026187E+03	5.153921E-03	8.960511E-05
6.036131E+03	5.083287E-03	8.844369E-05
6.046075E+03	5.014436E-03	8.731221E-05
6.056020E+03	4.947970E-03	8.622117E-05
6.065964E+03	4.884727E-03	8.518529E-05
6.075908E+03	4.825265E-03	8.421442E-05
6.085852E+03	4.770069E-03	8.331715E-05
6.095796E+03	4.719610E-03	8.250188E-05
6.105741E+03	4.674307E-03	8.177613E-05
6.115685E+03	4.634386E-03	8.114406E-05
6.125629E+03	4.600048E-03	8.060942E-05
6.135573E+03	4.571509E-03	8.017622E-05
6.145518E+03	4.548668E-03	7.984296E-05
6.155462E+03	4.531497E-03	7.960938E-05
6.165406E+03	4.519828E-03	7.947278E-05
6.175350E+03	4.513389E-03	7.942864E-05
6.185294E+03	4.511708E-03	7.946885E-05
6.195239E+03	4.514243E-03	7.958406E-05
6.205183E+03	4.520468E-03	7.976516E-05
6.215127E+03	4.529753E-03	8.000119E-05
6.225071E+03	4.541614E-03	8.028374E-05
6.235015E+03	4.555552E-03	8.060408E-05
6.244960E+03	4.571168E-03	8.095525E-05
6.254904E+03	4.588089E-03	8.133068E-05
6.264848E+03	4.605975E-03	8.172442E-05
6.274792E+03	4.624586E-03	8.213222E-05
6.284736E+03	4.643789E-03	8.255179E-05
6.294681E+03	4.663376E-03	8.297938E-05
6.304625E+03	4.683300E-03	8.341423E-05
6.314569E+03	4.703583E-03	8.385670E-05
6.324513E+03	4.724143E-03	8.430536E-05
6.334457E+03	4.745117E-03	8.476267E-05
6.344402E+03	4.766528E-03	8.522902E-05
6.354346E+03	4.788399E-03	8.570487E-05
6.364290E+03	4.810746E-03	8.619050E-05
6.374234E+03	4.833710E-03	8.668846E-05
6.384178E+03	4.857201E-03	8.719719E-05
6.394123E+03	4.881327E-03	8.771861E-05
6.404067E+03	4.906013E-03	8.825143E-05
6.414011E+03	4.931163E-03	8.879394E-05
6.423955E+03	4.956726E-03	8.934523E-05
6.433899E+03	4.982551E-03	8.990260E-05
6.443844E+03	5.008539E-03	9.046427E-05
6.453788E+03	5.034339E-03	9.102390E-05
6.463732E+03	5.059887E-03	9.158031E-05
6.473676E+03	5.084950E-03	9.212927E-05
6.483620E+03	5.109196E-03	9.266471E-05
6.493565E+03	5.132439E-03	9.318320E-05
6.503509E+03	5.154399E-03	9.367961E-05
6.513453E+03	5.174800E-03	9.414884E-05
6.523397E+03	5.193376E-03	9.458593E-05
6.533341E+03	5.209961E-03	9.498778E-05
6.543286E+03	5.224242E-03	9.534851E-05
6.553230E+03	5.236029E-03	9.566454E-05
6.563174E+03	5.245255E-03	9.593448E-05
6.573118E+03	5.251808E-03	9.615613E-05
6.583062E+03	5.255542E-03	9.632668E-05
6.593007E+03	5.256532E-03	9.644730E-05
6.602951E+03	5.254728E-03	9.651693E-05
6.612895E+03	5.250426E-03	9.654081E-05
6.622839E+03	5.243611E-03	9.651856E-05
6.632783E+03	5.234500E-03	9.645398E-05
6.642728E+03	5.223464E-03	9.635379E-05
6.652672E+03	5.210828E-03	9.622389E-05
6.662616E+03	5.196849E-03	9.606889E-05
6.672560E+03	5.181896E-03	9.589559E-05
6.682504E+03	5.166434E-03	9.571249E-05
6.692449E+03	5.150736E-03	9.552463E-05
6.702393E+03	5.135238E-03	9.534010E-05
6.712337E+03	5.120080E-03	9.516151E-05
6.722281E+03	5.105744E-03	9.499785E-05
6.732225E+03	5.092317E-03	9.485076E-05
6.742170E+03	5.080223E-03	9.472824E-05
6.752114E+03	5.069495E-03	9.463095E-05
6.762058E+03	5.060408E-03	9.456413E-05
6.772002E+03	5.053115E-03	9.453073E-05
6.781946E+03	5.047644E-03	9.453139E-05
6.791891E+03	5.044171E-03	9.456953E-05
6.801835E+03	5.042653E-03	9.464448E-05
6.811779E+03	5.043201E-03	9.475840E-05
6.821723E+03	5.045612E-03	9.490765E-05
6.831668E+03	5.050034E-03	9.509512E-05
6.841612E+03	5.056299E-03	9.531778E-05
6.851556E+03	5.064314E-03	9.557397E-05
6.861500E+03	5.073867E-03	9.585982E-05
6.871444E+03	5.085015E-03	9.617650E-05
6.881389E+03	5.097318E-03	9.651580E-05
6.891333E+03	5.110901E-03	9.688017E-05
6.901277E+03	5.125390E-03	9.726257E-05
6.911221E+03	5.140602E-03	9.765963E-05
6.921165E+03	5.156441E-03	9.806956E-05
6.931110E+03	5.172611E-03	9.848678E-05
6.941054E+03	5.188917E-03	9.890761E-05
6.950998E+03	5.205166E-03	9.932837E-05
6.960942E+03	5.221163E-03	9.974534E-05
6.970886E+03	5.236730E-03	1.001551E-04
6.980831E+03	5.251589E-03	1.005524E-04
6.990775E+03	5.265776E-03	1.009378E-04
7.000719E+03	5.278831E-03	1.013025E-04
7.010663E+03	5.290925E-03	1.016497E-04
7.020607E+03	5.301606E-03	1.019706E-04
7.030552E+03	5.310978E-03	1.022672E-04
7.040496E+03	5.318835E-03	1.025355E-04
7.050440E+03	5.325084E-03	1.027735E-04
7.060384E+03	5.329771E-03	1.029820E-04
7.070328E+03	5.332623E-03	1.031558E-04
7.080273E+03	5.333695E-03	1.032957E-04
7.090217E+03	5.332840E-03	1.033987E-04
7.100161E+03	5.330129E-03	1.034662E-04
7.110105E+03	5.325519E-03	1.034972E-04
7.120049E+03	5.318866E-03	1.034888E-04
7.129994E+03	5.310238E-03	1.034421E-04
7.139938E+03	5.299370E-03	1.033520E-04
7.149882E+03	5.286443E-03	1.032217E-04
7.159826E+03	5.271308E-03	1.030482E-04
7.169770E+03	5.253825E-03	1.028287E-04
7.179715E+03	5.234083E-03	1.025647E-04
7.189659E+03	5.212069E-03	1.022558E-04
7.199603E+03	5.187671E-03	1.018998E-04
7.209547E+03	5.160907E-03	1.014967E-04
7.219491E+03	5.131805E-03	1.010469E-04
7.229436E+03	5.100397E-03	1.005510E-04
7.239380E+03	5.066756E-03	1.000102E-04
7.249324E+03	5.030751E-03	9.942174E-05
7.259268E+03	4.992692E-03	9.879160E-05
7.269212E+03	4.952611E-03	9.812027E-05
7.279157E+03	4.910564E-03	9.740870E-05
7.289101E+03	4.866833E-03	9.666233E-05
7.299045E+03	4.821434E-03	9.588138E-05
7.308989E+03	4.774607E-03	9.507050E-05
7.318933E+03	4.726613E-03	9.423474E-05
7.328878E+03	4.677642E-03	9.337785E-05
7.338822E+03	4.628095E-03	9.250771E-05
7.348766E+03	4.577986E-03	9.162457E-05
7.358710E+03	4.527833E-03	9.073877E-05
7.368654E+03	4.477766E-03	8.985288E-05
7.378599E+03	4.428186E-03	8.897498E-05
7.388543E+03	4.379307E-03	8.810937E-05
7.398487E+03	4.331415E-03	8.726187E-05
7.408431E+03	4.284857E-03	8.643957E-05
7.418375E+03	4.239766E-03	8.564523E-05
7.428320E+03	4.196607E-03	8.488836E-05
7.438264E+03	4.155353E-03	8.416858E-05
7.448208E+03	4.116315E-03	8.349233E-05
7.458152E+03	4.079498E-03	8.285987E-05
7.468097E+03	4.045234E-03	8.227818E-05
7.478041E+03	4.013478E-03	8.174652E-05
7.487985E+03	3.984249E-03	8.126548E-05
7.497929E+03	3.957628E-03	8.083693E-05
7.507873E+03	3.933595E-03	8.046063E-05
7.517818E+03	3.912285E-03	8.013954E-05
7.527762E+03	3.893473E-03	7.986927E-05
7.537706E+03	3.877177E-03	7.965036E-05
7.547650E+03	3.863408E-03	7.948326E-05
7.557594E+03	3.851990E-03	7.936454E-05
7.567539E+03	3.842906E-03	7.929403E-05
7.577483E+03	3.835954E-03	7.926775E-05
7.587427E+03	3.831176E-03	7.928673E-05
7.597371E+03	3.828250E-03	7.934450E-05
7.607315E+03	3.827187E-03	7.944144E-05
7.617260E+03	3.827634E-03	7.957037E-05
7.627204E+03	3.829574E-03	7.973106E-05
7.637148E+03	3.832638E-03	7.991592E-05
7.647092E+03	3.836795E-03	8.012443E-05
7.657036E+03	3.841760E-03	8.035069E-05
7.666981E+03	3.847333E-03	8.059060E-05
7.676925E+03	3.853323E-03	8.084017E-05
7.686869E+03	3.859543E-03	8.109552E-05
7.696813E+03	3.865816E-03	8.135295E-05
7.706757E+03	3.871889E-03	8.160708E-05
7.716702E+03	3.877784E-03	8.185836E-05
