#wls	flux	fluxerr
1.591072E+03	6.697668E-06	4.683923E-08
1.630849E+03	7.082612E-06	4.941343E-08
1.670626E+03	7.384858E-06	5.139613E-08
1.710403E+03	7.588746E-06	5.268239E-08
1.750180E+03	7.678416E-06	5.316724E-08
1.789957E+03	7.622222E-06	5.263808E-08
1.829733E+03	7.387628E-06	5.087891E-08
1.869510E+03	6.950877E-06	4.773688E-08
1.909287E+03	6.308563E-06	4.320095E-08
1.949064E+03	5.497974E-06	3.753874E-08
1.988841E+03	4.607624E-06	3.136412E-08
2.028617E+03	3.766692E-06	2.555992E-08
2.068394E+03	3.109381E-06	2.103196E-08
2.108171E+03	2.727937E-06	1.839116E-08
2.147948E+03	2.667862E-06	1.792538E-08
2.187725E+03	2.956056E-06	1.979285E-08
2.227501E+03	3.627464E-06	2.420187E-08
2.267278E+03	4.720772E-06	3.138107E-08
2.307055E+03	6.256070E-06	4.143075E-08
2.346832E+03	8.222562E-06	5.424395E-08
2.386609E+03	1.058390E-05	6.954546E-08
2.426386E+03	1.329634E-05	8.701382E-08
2.466162E+03	1.632212E-05	1.063701E-07
2.505939E+03	1.963658E-05	1.274230E-07
2.545716E+03	2.322998E-05	1.500795E-07
2.585493E+03	2.710622E-05	1.743342E-07
2.625270E+03	3.128049E-05	2.002522E-07
2.665046E+03	3.577695E-05	2.279530E-07
2.704823E+03	4.062198E-05	2.575659E-07
2.744600E+03	4.585151E-05	2.892758E-07
2.784377E+03	5.150083E-05	3.232575E-07
2.824154E+03	5.760256E-05	3.596630E-07
2.863930E+03	6.419674E-05	3.986842E-07
2.903707E+03	7.133202E-05	4.405589E-07
2.943484E+03	7.909105E-05	4.857249E-07
2.983261E+03	8.757166E-05	5.346990E-07
2.993205E+03	8.981910E-05	5.476152E-07
3.003149E+03	9.212029E-05	5.608145E-07
3.013094E+03	9.447860E-05	5.743156E-07
3.023038E+03	9.690188E-05	5.881643E-07
3.032982E+03	9.941640E-05	6.025178E-07
3.042926E+03	1.020536E-04	6.175635E-07
3.052870E+03	1.048124E-04	6.332913E-07
3.062815E+03	1.076871E-04	6.496623E-07
3.072759E+03	1.106795E-04	6.666848E-07
3.082703E+03	1.137842E-04	6.843226E-07
3.092647E+03	1.170038E-04	7.025872E-07
3.102591E+03	1.203332E-04	7.214447E-07
3.112536E+03	1.237754E-04	7.409092E-07
3.122480E+03	1.273256E-04	7.609486E-07
3.132424E+03	1.309844E-04	7.815633E-07
3.142368E+03	1.347527E-04	8.027552E-07
3.152312E+03	1.386262E-04	8.244941E-07
3.162257E+03	1.426087E-04	8.468001E-07
3.172201E+03	1.466989E-04	8.696612E-07
3.182145E+03	1.508955E-04	8.930661E-07
3.192089E+03	1.552002E-04	9.170214E-07
3.202033E+03	1.596119E-04	9.415172E-07
3.211978E+03	1.641328E-04	9.665623E-07
3.221922E+03	1.687620E-04	9.921481E-07
3.231866E+03	1.734991E-04	1.018267E-06
3.241810E+03	1.783464E-04	1.044931E-06
3.251754E+03	1.833068E-04	1.072152E-06
3.261699E+03	1.883770E-04	1.099907E-06
3.271643E+03	1.935569E-04	1.128190E-06
3.281587E+03	1.988530E-04	1.157037E-06
3.291531E+03	2.042623E-04	1.186426E-06
3.301475E+03	2.097886E-04	1.216373E-06
3.311420E+03	2.154325E-04	1.246880E-06
3.321364E+03	2.211916E-04	1.277927E-06
3.331308E+03	2.270702E-04	1.309535E-06
3.341252E+03	2.330729E-04	1.341726E-06
3.351196E+03	2.391946E-04	1.374466E-06
3.361141E+03	2.454404E-04	1.407780E-06
3.371085E+03	2.518125E-04	1.441677E-06
3.381029E+03	2.583133E-04	1.476165E-06
3.390973E+03	2.649387E-04	1.511215E-06
3.400917E+03	2.716990E-04	1.546882E-06
3.410862E+03	2.785908E-04	1.583142E-06
3.420806E+03	2.856148E-04	1.619993E-06
3.430750E+03	2.927793E-04	1.657478E-06
3.440694E+03	3.000791E-04	1.695561E-06
3.450638E+03	3.075202E-04	1.734272E-06
3.460583E+03	3.151059E-04	1.773623E-06
3.470527E+03	3.228370E-04	1.813614E-06
3.480471E+03	3.307142E-04	1.854243E-06
3.490415E+03	3.387405E-04	1.895521E-06
3.500359E+03	3.469072E-04	1.937393E-06
3.510304E+03	3.552232E-04	1.979904E-06
3.520248E+03	3.636860E-04	2.023035E-06
3.530192E+03	3.722874E-04	2.066733E-06
3.540136E+03	3.810237E-04	2.110973E-06
3.550080E+03	3.898962E-04	2.155758E-06
3.560025E+03	3.988961E-04	2.201031E-06
3.569969E+03	4.080190E-04	2.246765E-06
3.579913E+03	4.172656E-04	2.292959E-06
3.589857E+03	4.266327E-04	2.339589E-06
3.599802E+03	4.361376E-04	2.386745E-06
3.609746E+03	4.457878E-04	2.434463E-06
3.619690E+03	4.556066E-04	2.482864E-06
3.629634E+03	4.656010E-04	2.531980E-06
3.639578E+03	4.757848E-04	2.581877E-06
3.649523E+03	4.861740E-04	2.632636E-06
3.659467E+03	4.967763E-04	2.684290E-06
3.669411E+03	5.076116E-04	2.736938E-06
3.679355E+03	5.186871E-04	2.790611E-06
3.689299E+03	5.300141E-04	2.845358E-06
3.699244E+03	5.416134E-04	2.901283E-06
3.709188E+03	5.534959E-04	2.958433E-06
3.719132E+03	5.656779E-04	3.016884E-06
3.729076E+03	5.781687E-04	3.076674E-06
3.739020E+03	5.909818E-04	3.137862E-06
3.748965E+03	6.041285E-04	3.200497E-06
3.758909E+03	6.176070E-04	3.264557E-06
3.768853E+03	6.314331E-04	3.330111E-06
3.778797E+03	6.456028E-04	3.397126E-06
3.788741E+03	6.601076E-04	3.465544E-06
3.798686E+03	6.749456E-04	3.535342E-06
3.808630E+03	6.901015E-04	3.606426E-06
3.818574E+03	7.055608E-04	3.678710E-06
3.828518E+03	7.212997E-04	3.752058E-06
3.838462E+03	7.373027E-04	3.826378E-06
3.848407E+03	7.535390E-04	3.901500E-06
3.858351E+03	7.699807E-04	3.977271E-06
3.868295E+03	7.865950E-04	4.053515E-06
3.878239E+03	8.033395E-04	4.130005E-06
3.888183E+03	8.201727E-04	4.206525E-06
3.898128E+03	8.370486E-04	4.282833E-06
3.908072E+03	8.539167E-04	4.358672E-06
3.918016E+03	8.707091E-04	4.433695E-06
3.927960E+03	8.873816E-04	4.507678E-06
3.937904E+03	9.038543E-04	4.580223E-06
3.947849E+03	9.200799E-04	4.651097E-06
3.957793E+03	9.359846E-04	4.719936E-06
3.967737E+03	9.515086E-04	4.786453E-06
3.977681E+03	9.665899E-04	4.850348E-06
3.987625E+03	9.811860E-04	4.911427E-06
3.997570E+03	9.952321E-04	4.969383E-06
4.007514E+03	1.008711E-03	5.024152E-06
4.017458E+03	1.021578E-03	5.075532E-06
4.027402E+03	1.033832E-03	5.123548E-06
4.037346E+03	1.045474E-03	5.168215E-06
4.047291E+03	1.056523E-03	5.209661E-06
4.057235E+03	1.066994E-03	5.247976E-06
4.067179E+03	1.076954E-03	5.283517E-06
4.077123E+03	1.086456E-03	5.316561E-06
4.087067E+03	1.095574E-03	5.347483E-06
4.097012E+03	1.104399E-03	5.376744E-06
4.106956E+03	1.113022E-03	5.404798E-06
4.116900E+03	1.121539E-03	5.432120E-06
4.126844E+03	1.130066E-03	5.459275E-06
4.136788E+03	1.138686E-03	5.486664E-06
4.146733E+03	1.147518E-03	5.514850E-06
4.156677E+03	1.156660E-03	5.544303E-06
4.166621E+03	1.166210E-03	5.575483E-06
4.176565E+03	1.176283E-03	5.608915E-06
4.186509E+03	1.186961E-03	5.644982E-06
4.196454E+03	1.198354E-03	5.684174E-06
4.206398E+03	1.210537E-03	5.726828E-06
4.216342E+03	1.223621E-03	5.773433E-06
4.226286E+03	1.237680E-03	5.824313E-06
4.236231E+03	1.252797E-03	5.879814E-06
4.246175E+03	1.269048E-03	5.940262E-06
4.256119E+03	1.286515E-03	6.005999E-06
4.266063E+03	1.305269E-03	6.077305E-06
4.276007E+03	1.325384E-03	6.154482E-06
4.285952E+03	1.346909E-03	6.237714E-06
4.295896E+03	1.369930E-03	6.327336E-06
4.305840E+03	1.394467E-03	6.423403E-06
4.315784E+03	1.420564E-03	6.526053E-06
4.325728E+03	1.448250E-03	6.635364E-06
4.335673E+03	1.477503E-03	6.751184E-06
4.345617E+03	1.508315E-03	6.873428E-06
4.355561E+03	1.540623E-03	7.001746E-06
4.365505E+03	1.574330E-03	7.135651E-06
4.375449E+03	1.609308E-03	7.274523E-06
4.385394E+03	1.645370E-03	7.417470E-06
4.395338E+03	1.682483E-03	7.564315E-06
4.405282E+03	1.720819E-03	7.715796E-06
4.415226E+03	1.760534E-03	7.872573E-06
4.425170E+03	1.801714E-03	8.034983E-06
4.435115E+03	1.844412E-03	8.203218E-06
4.445059E+03	1.888682E-03	8.377468E-06
4.455003E+03	1.934448E-03	8.557354E-06
4.464947E+03	1.981640E-03	8.742515E-06
4.474891E+03	2.030092E-03	8.932182E-06
4.484836E+03	2.079606E-03	9.125445E-06
4.494780E+03	2.129882E-03	9.320971E-06
4.504724E+03	2.180593E-03	9.517305E-06
4.514668E+03	2.231323E-03	9.712632E-06
4.524612E+03	2.281630E-03	9.905044E-06
4.534557E+03	2.331061E-03	1.009260E-05
4.544501E+03	2.379111E-03	1.027317E-05
4.554445E+03	2.425328E-03	1.044485E-05
4.564389E+03	2.469196E-03	1.060551E-05
4.574333E+03	2.510288E-03	1.075339E-05
4.584278E+03	2.548192E-03	1.088686E-05
4.594222E+03	2.582553E-03	1.100450E-05
4.604166E+03	2.613068E-03	1.110517E-05
4.614110E+03	2.639500E-03	1.118799E-05
4.624054E+03	2.661641E-03	1.125224E-05
4.633999E+03	2.679432E-03	1.129781E-05
4.643943E+03	2.692880E-03	1.132487E-05
4.653887E+03	2.702016E-03	1.133372E-05
4.663831E+03	2.707059E-03	1.132541E-05
4.673775E+03	2.708275E-03	1.130120E-05
4.683720E+03	2.706090E-03	1.126298E-05
4.693664E+03	2.701000E-03	1.121291E-05
4.703608E+03	2.693539E-03	1.115333E-05
4.713552E+03	2.684305E-03	1.108676E-05
4.723496E+03	2.673850E-03	1.101553E-05
4.733441E+03	2.662792E-03	1.094225E-05
4.743385E+03	2.651687E-03	1.086918E-05
4.753329E+03	2.641063E-03	1.079851E-05
4.763273E+03	2.631346E-03	1.073195E-05
4.773217E+03	2.622907E-03	1.067099E-05
4.783162E+03	2.616317E-03	1.061791E-05
4.793106E+03	2.612190E-03	1.057514E-05
4.803050E+03	2.611095E-03	1.054491E-05
4.812994E+03	2.613388E-03	1.052856E-05
4.822938E+03	2.619353E-03	1.052714E-05
4.832883E+03	2.629025E-03	1.054069E-05
4.842827E+03	2.642454E-03	1.056931E-05
4.852771E+03	2.659483E-03	1.061228E-05
4.862715E+03	2.679855E-03	1.066847E-05
4.872660E+03	2.703283E-03	1.073666E-05
4.882604E+03	2.729392E-03	1.081527E-05
4.892548E+03	2.757752E-03	1.090256E-05
4.902492E+03	2.787861E-03	1.099647E-05
4.912436E+03	2.819227E-03	1.109504E-05
4.922381E+03	2.851306E-03	1.119610E-05
4.932325E+03	2.883494E-03	1.129728E-05
4.942269E+03	2.915330E-03	1.139677E-05
4.952213E+03	2.946223E-03	1.149230E-05
4.962157E+03	2.975781E-03	1.158236E-05
4.972102E+03	3.003617E-03	1.166550E-05
4.982046E+03	3.029476E-03	1.174078E-05
4.991990E+03	3.053209E-03	1.180768E-05
5.001934E+03	3.074889E-03	1.186654E-05
5.011878E+03	3.094607E-03	1.191777E-05
5.021823E+03	3.112608E-03	1.196235E-05
5.031767E+03	3.129241E-03	1.200169E-05
5.041711E+03	3.144885E-03	1.203725E-05
5.051655E+03	3.159879E-03	1.207038E-05
5.061599E+03	3.174699E-03	1.210288E-05
5.071544E+03	3.189694E-03	1.213612E-05
5.081488E+03	3.205283E-03	1.217168E-05
5.091432E+03	3.221832E-03	1.221094E-05
5.101376E+03	3.239666E-03	1.225510E-05
5.111320E+03	3.259042E-03	1.230513E-05
5.121265E+03	3.280203E-03	1.236191E-05
5.131209E+03	3.303348E-03	1.242615E-05
5.141153E+03	3.328641E-03	1.249844E-05
5.151097E+03	3.356207E-03	1.257921E-05
5.161041E+03	3.386138E-03	1.266878E-05
5.170986E+03	3.418497E-03	1.276733E-05
5.180930E+03	3.453279E-03	1.287481E-05
5.190874E+03	3.490488E-03	1.299120E-05
5.200818E+03	3.530137E-03	1.311651E-05
5.210762E+03	3.572151E-03	1.325044E-05
5.220707E+03	3.616475E-03	1.339274E-05
5.230651E+03	3.663017E-03	1.354306E-05
5.240595E+03	3.711797E-03	1.370144E-05
5.250539E+03	3.762711E-03	1.386748E-05
5.260483E+03	3.815812E-03	1.404135E-05
5.270428E+03	3.871179E-03	1.422331E-05
5.280372E+03	3.928906E-03	1.441371E-05
5.290316E+03	3.989356E-03	1.461384E-05
5.300260E+03	4.052918E-03	1.482512E-05
5.310204E+03	4.120160E-03	1.504958E-05
5.320149E+03	4.191776E-03	1.528972E-05
5.330093E+03	4.268576E-03	1.554846E-05
5.340037E+03	4.351415E-03	1.582885E-05
5.349981E+03	4.441259E-03	1.613435E-05
5.359925E+03	4.538916E-03	1.646781E-05
5.369870E+03	4.644547E-03	1.682975E-05
5.379814E+03	4.756174E-03	1.721294E-05
5.389758E+03	4.871143E-03	1.760774E-05
5.399702E+03	4.986548E-03	1.800365E-05
5.409646E+03	5.099647E-03	1.839084E-05
5.419591E+03	5.207594E-03	1.875910E-05
5.429535E+03	5.308027E-03	1.910003E-05
5.439479E+03	5.398982E-03	1.940668E-05
5.449423E+03	5.478876E-03	1.967351E-05
5.459367E+03	5.546330E-03	1.989570E-05
5.469312E+03	5.600412E-03	2.007006E-05
5.479256E+03	5.640523E-03	2.019461E-05
5.489200E+03	5.666409E-03	2.026858E-05
5.499144E+03	5.678186E-03	2.029252E-05
5.509089E+03	5.676314E-03	2.026822E-05
5.519033E+03	5.661642E-03	2.019883E-05
5.528977E+03	5.635571E-03	2.008944E-05
5.538921E+03	5.599613E-03	1.994552E-05
5.548865E+03	5.555666E-03	1.977389E-05
5.558810E+03	5.505802E-03	1.958198E-05
5.568754E+03	5.452248E-03	1.937773E-05
5.578698E+03	5.397075E-03	1.916850E-05
5.588642E+03	5.342450E-03	1.896197E-05
5.598586E+03	5.290356E-03	1.876515E-05
5.608531E+03	5.242544E-03	1.858422E-05
5.618475E+03	5.200655E-03	1.842494E-05
5.628419E+03	5.165979E-03	1.829183E-05
5.638363E+03	5.139679E-03	1.818895E-05
5.648307E+03	5.122518E-03	1.811894E-05
5.658252E+03	5.115247E-03	1.808440E-05
5.668196E+03	5.118302E-03	1.808681E-05
5.678140E+03	5.131821E-03	1.812661E-05
5.688084E+03	5.155978E-03	1.820436E-05
5.698028E+03	5.190622E-03	1.831948E-05
5.707973E+03	5.235556E-03	1.847125E-05
5.717917E+03	5.290318E-03	1.865801E-05
5.727861E+03	5.354360E-03	1.887778E-05
5.737805E+03	5.427044E-03	1.912832E-05
5.747749E+03	5.507536E-03	1.940668E-05
5.757694E+03	5.594801E-03	1.970918E-05
5.767638E+03	5.687793E-03	2.003217E-05
5.777582E+03	5.785354E-03	2.037156E-05
5.787526E+03	5.886029E-03	2.072226E-05
5.797470E+03	5.988481E-03	2.107956E-05
5.807415E+03	6.091327E-03	2.143863E-05
5.817359E+03	6.193032E-03	2.179407E-05
5.827303E+03	6.292212E-03	2.214107E-05
5.837247E+03	6.387468E-03	2.247470E-05
5.847191E+03	6.477476E-03	2.279035E-05
5.857136E+03	6.560943E-03	2.308348E-05
5.867080E+03	6.636933E-03	2.335083E-05
5.877024E+03	6.704513E-03	2.358914E-05
5.886968E+03	6.762837E-03	2.379544E-05
5.896912E+03	6.811394E-03	2.396795E-05
5.906857E+03	6.849782E-03	2.410525E-05
5.916801E+03	6.877864E-03	2.420687E-05
5.926745E+03	6.895463E-03	2.427218E-05
5.936689E+03	6.902985E-03	2.430260E-05
5.946633E+03	6.900699E-03	2.429907E-05
5.956578E+03	6.889118E-03	2.426337E-05
5.966522E+03	6.868985E-03	2.419811E-05
5.976466E+03	6.841084E-03	2.410601E-05
5.986410E+03	6.806292E-03	2.399016E-05
5.996354E+03	6.765561E-03	2.385387E-05
6.006299E+03	6.720032E-03	2.370116E-05
6.016243E+03	6.670692E-03	2.353547E-05
6.026187E+03	6.618413E-03	2.335985E-05
6.036131E+03	6.564263E-03	2.317807E-05
6.046075E+03	6.509066E-03	2.299302E-05
6.056020E+03	6.453555E-03	2.280726E-05
6.065964E+03	6.398525E-03	2.262360E-05
6.075908E+03	6.344335E-03	2.244329E-05
6.085852E+03	6.291566E-03	2.226840E-05
6.095796E+03	6.240535E-03	2.210004E-05
6.105741E+03	6.191451E-03	2.193896E-05
6.115685E+03	6.144424E-03	2.178554E-05
6.125629E+03	6.099356E-03	2.163945E-05
6.135573E+03	6.056168E-03	2.150040E-05
6.145518E+03	6.014446E-03	2.136694E-05
6.155462E+03	5.973865E-03	2.123792E-05
6.165406E+03	5.933415E-03	2.110974E-05
6.175350E+03	5.892164E-03	2.097906E-05
6.185294E+03	5.848377E-03	2.083968E-05
6.195239E+03	5.800036E-03	2.068436E-05
6.205183E+03	5.744722E-03	2.050439E-05
6.215127E+03	5.680633E-03	2.029324E-05
6.225071E+03	5.610427E-03	2.006032E-05
6.235015E+03	5.537359E-03	1.981718E-05
6.244960E+03	5.463826E-03	1.957234E-05
6.254904E+03	5.391993E-03	1.933355E-05
6.264848E+03	5.323340E-03	1.910609E-05
6.274792E+03	5.259108E-03	1.889444E-05
6.284736E+03	5.200045E-03	1.870130E-05
6.294681E+03	5.146849E-03	1.852923E-05
6.304625E+03	5.099842E-03	1.837942E-05
6.314569E+03	5.059239E-03	1.825271E-05
6.324513E+03	5.025054E-03	1.814921E-05
6.334457E+03	4.997358E-03	1.806922E-05
6.344402E+03	4.975942E-03	1.801206E-05
6.354346E+03	4.960777E-03	1.797768E-05
6.364290E+03	4.951738E-03	1.796570E-05
6.374234E+03	4.948453E-03	1.797484E-05
6.384178E+03	4.950773E-03	1.800460E-05
6.394123E+03	4.958239E-03	1.805340E-05
6.404067E+03	4.970701E-03	1.812075E-05
6.414011E+03	4.987712E-03	1.820506E-05
6.423955E+03	5.009138E-03	1.830591E-05
6.433899E+03	5.034629E-03	1.842208E-05
6.443844E+03	5.063915E-03	1.855262E-05
6.453788E+03	5.096888E-03	1.869719E-05
6.463732E+03	5.133288E-03	1.885489E-05
6.473676E+03	5.172760E-03	1.902445E-05
6.483620E+03	5.215178E-03	1.920544E-05
6.493565E+03	5.260315E-03	1.939709E-05
6.503509E+03	5.307746E-03	1.959785E-05
6.513453E+03	5.357346E-03	1.980729E-05
6.523397E+03	5.408614E-03	2.002359E-05
6.533341E+03	5.461179E-03	2.024541E-05
6.543286E+03	5.514733E-03	2.047161E-05
6.553230E+03	5.568768E-03	2.070032E-05
6.563174E+03	5.622851E-03	2.092994E-05
6.573118E+03	5.676636E-03	2.115918E-05
6.583062E+03	5.729512E-03	2.138574E-05
6.593007E+03	5.781252E-03	2.160878E-05
6.602951E+03	5.831380E-03	2.182649E-05
6.612895E+03	5.879444E-03	2.203715E-05
6.622839E+03	5.925327E-03	2.224028E-05
6.632783E+03	5.968561E-03	2.243410E-05
6.642728E+03	6.009125E-03	2.261848E-05
6.652672E+03	6.046646E-03	2.279197E-05
6.662616E+03	6.081204E-03	2.295483E-05
6.672560E+03	6.112628E-03	2.310635E-05
6.682504E+03	6.140792E-03	2.324602E-05
6.692449E+03	6.165933E-03	2.337467E-05
6.702393E+03	6.188019E-03	2.349213E-05
6.712337E+03	6.207167E-03	2.359880E-05
6.722281E+03	6.223529E-03	2.369520E-05
6.732225E+03	6.237287E-03	2.378199E-05
6.742170E+03	6.248761E-03	2.386034E-05
6.752114E+03	6.257963E-03	2.393025E-05
6.762058E+03	6.265356E-03	2.399347E-05
6.772002E+03	6.271083E-03	2.405051E-05
6.781946E+03	6.275401E-03	2.410232E-05
6.791891E+03	6.278671E-03	2.415027E-05
6.801835E+03	6.281027E-03	2.419487E-05
6.811779E+03	6.282701E-03	2.423698E-05
6.821723E+03	6.283910E-03	2.427744E-05
6.831668E+03	6.284966E-03	2.431745E-05
6.841612E+03	6.285932E-03	2.435723E-05
6.851556E+03	6.286960E-03	2.439740E-05
6.861500E+03	6.288176E-03	2.443844E-05
6.871444E+03	6.289796E-03	2.448119E-05
6.881389E+03	6.291892E-03	2.452594E-05
6.891333E+03	6.294275E-03	2.457196E-05
6.901277E+03	6.297191E-03	2.462023E-05
6.911221E+03	6.300511E-03	2.467024E-05
6.921165E+03	6.304316E-03	2.472234E-05
6.931110E+03	6.308427E-03	2.477581E-05
6.941054E+03	6.312762E-03	2.483036E-05
6.950998E+03	6.317344E-03	2.488607E-05
6.960942E+03	6.321941E-03	2.494205E-05
6.970886E+03	6.326557E-03	2.499831E-05
6.980831E+03	6.330937E-03	2.505384E-05
6.990775E+03	6.334949E-03	2.510813E-05
7.000719E+03	6.338578E-03	2.516110E-05
7.010663E+03	6.341560E-03	2.521171E-05
7.020607E+03	6.343756E-03	2.525940E-05
7.030552E+03	6.345156E-03	2.530411E-05
7.040496E+03	6.345499E-03	2.534480E-05
7.050440E+03	6.344782E-03	2.538144E-05
7.060384E+03	6.342756E-03	2.541301E-05
7.070328E+03	6.339429E-03	2.543953E-05
7.080273E+03	6.334560E-03	2.546001E-05
7.090217E+03	6.328041E-03	2.547399E-05
7.100161E+03	6.319905E-03	2.548158E-05
7.110105E+03	6.310056E-03	2.548236E-05
7.120049E+03	6.298281E-03	2.547545E-05
7.129994E+03	6.284502E-03	2.546050E-05
7.139938E+03	6.268914E-03	2.543825E-05
7.149882E+03	6.251068E-03	2.540687E-05
7.159826E+03	6.231314E-03	2.536772E-05
7.169770E+03	6.209232E-03	2.531908E-05
7.179715E+03	6.185200E-03	2.526243E-05
7.189659E+03	6.158961E-03	2.519669E-05
7.199603E+03	6.130667E-03	2.512245E-05
7.209547E+03	6.100356E-03	2.503982E-05
7.219491E+03	6.067952E-03	2.494845E-05
7.229436E+03	6.033660E-03	2.484914E-05
7.239380E+03	5.997569E-03	2.474223E-05
7.249324E+03	5.959653E-03	2.462757E-05
7.259268E+03	5.920170E-03	2.450620E-05
7.269212E+03	5.879260E-03	2.437866E-05
7.279157E+03	5.837080E-03	2.424558E-05
7.289101E+03	5.793672E-03	2.410710E-05
7.299045E+03	5.749355E-03	2.396452E-05
7.308989E+03	5.704328E-03	2.381867E-05
7.318933E+03	5.658672E-03	2.366986E-05
7.328878E+03	5.612610E-03	2.351901E-05
7.338822E+03	5.566495E-03	2.336759E-05
7.348766E+03	5.520429E-03	2.321604E-05
7.358710E+03	5.474772E-03	2.306586E-05
7.368654E+03	5.429630E-03	2.291752E-05
7.378599E+03	5.385364E-03	2.277255E-05
7.388543E+03	5.342208E-03	2.263196E-05
7.398487E+03	5.300397E-03	2.249677E-05
7.408431E+03	5.260291E-03	2.236855E-05
7.418375E+03	5.222005E-03	2.224783E-05
7.428320E+03	5.185909E-03	2.213622E-05
7.438264E+03	5.152252E-03	2.203485E-05
7.448208E+03	5.121294E-03	2.194488E-05
7.458152E+03	5.093303E-03	2.186755E-05
7.468097E+03	5.068437E-03	2.180359E-05
7.478041E+03	5.047240E-03	2.175544E-05
7.487985E+03	5.029762E-03	2.172342E-05
7.497929E+03	5.016553E-03	2.170999E-05
7.507873E+03	5.007640E-03	2.171540E-05
7.517818E+03	5.003348E-03	2.174116E-05
7.527762E+03	5.003734E-03	2.178764E-05
7.537706E+03	5.008544E-03	2.185387E-05
7.547650E+03	5.017570E-03	2.193902E-05
7.557594E+03	5.030155E-03	2.204035E-05
7.567539E+03	5.045541E-03	2.215461E-05
7.577483E+03	5.062829E-03	2.227791E-05
7.587427E+03	5.080501E-03	2.240363E-05
7.597371E+03	5.097079E-03	2.252523E-05
7.607315E+03	5.112806E-03	2.264374E-05
7.617260E+03	5.128396E-03	2.276232E-05
7.627204E+03	5.143837E-03	2.288090E-05
7.637148E+03	5.159451E-03	2.300090E-05
7.647092E+03	5.175042E-03	2.312146E-05
7.657036E+03	5.190478E-03	2.324196E-05
7.666981E+03	5.205587E-03	2.336164E-05
7.676925E+03	5.220183E-03	2.347964E-05
7.686869E+03	5.234072E-03	2.359506E-05
7.696813E+03	5.247205E-03	2.370766E-05
7.706757E+03	5.259402E-03	2.381659E-05
7.716702E+03	5.270211E-03	2.391977E-05
