#wls	flux	fluxerr
1.591072E+03	7.798594E-06	2.826613E-07
1.630849E+03	8.271027E-06	2.985133E-07
1.670626E+03	8.650972E-06	3.108650E-07
1.710403E+03	8.920827E-06	3.191258E-07
1.750180E+03	9.059508E-06	3.225944E-07
1.789957E+03	9.028569E-06	3.199713E-07
1.829733E+03	8.786779E-06	3.098878E-07
1.869510E+03	8.303239E-06	2.913709E-07
1.909287E+03	7.571311E-06	2.643220E-07
1.949064E+03	6.630665E-06	2.302613E-07
1.988841E+03	5.585107E-06	1.929006E-07
2.028617E+03	4.590419E-06	1.576622E-07
2.068394E+03	3.809816E-06	1.301024E-07
2.108171E+03	3.361113E-06	1.141042E-07
2.147948E+03	3.304480E-06	1.115035E-07
2.187725E+03	3.678526E-06	1.233541E-07
2.227501E+03	4.528628E-06	1.508922E-07
2.267278E+03	5.897109E-06	1.952016E-07
2.307055E+03	7.804601E-06	2.566025E-07
2.346832E+03	1.023377E-05	3.341425E-07
2.386609E+03	1.313760E-05	4.259077E-07
2.426386E+03	1.645991E-05	5.297195E-07
2.466162E+03	2.015418E-05	6.437483E-07
2.505939E+03	2.419203E-05	7.667733E-07
2.545716E+03	2.856359E-05	8.981734E-07
2.585493E+03	3.327859E-05	1.037939E-06
2.625270E+03	3.836126E-05	1.186489E-06
2.665046E+03	4.384704E-05	1.344550E-06
2.704823E+03	4.978001E-05	1.513064E-06
2.744600E+03	5.621482E-05	1.693229E-06
2.784377E+03	6.320510E-05	1.886142E-06
2.824154E+03	7.081085E-05	2.093012E-06
2.863930E+03	7.910546E-05	2.315357E-06
2.903707E+03	8.817815E-05	2.555048E-06
2.943484E+03	9.814882E-05	2.814715E-06
2.983261E+03	1.091666E-04	3.097652E-06
2.993205E+03	1.121036E-04	3.172430E-06
3.003149E+03	1.151194E-04	3.248949E-06
3.013094E+03	1.182187E-04	3.327323E-06
3.023038E+03	1.214124E-04	3.407838E-06
3.032982E+03	1.247347E-04	3.491422E-06
3.042926E+03	1.282261E-04	3.579175E-06
3.052870E+03	1.318809E-04	3.670895E-06
3.062815E+03	1.357020E-04	3.766623E-06
3.072759E+03	1.396843E-04	3.866177E-06
3.082703E+03	1.438288E-04	3.969540E-06
3.092647E+03	1.481339E-04	4.076628E-06
3.102591E+03	1.526012E-04	4.187442E-06
3.112536E+03	1.572297E-04	4.301913E-06
3.122480E+03	1.620185E-04	4.419976E-06
3.132424E+03	1.669702E-04	4.541659E-06
3.142368E+03	1.720813E-04	4.666824E-06
3.152312E+03	1.773581E-04	4.795599E-06
3.162257E+03	1.827976E-04	4.927858E-06
3.172201E+03	1.884035E-04	5.063655E-06
3.182145E+03	1.941763E-04	5.202963E-06
3.192089E+03	2.001169E-04	5.345759E-06
3.202033E+03	2.062298E-04	5.492117E-06
3.211978E+03	2.125163E-04	5.642027E-06
3.221922E+03	2.189745E-04	5.795387E-06
3.231866E+03	2.256168E-04	5.952481E-06
3.241810E+03	2.324344E-04	6.113023E-06
3.251754E+03	2.394404E-04	6.277313E-06
3.261699E+03	2.466299E-04	6.445168E-06
3.271643E+03	2.540093E-04	6.616704E-06
3.281587E+03	2.615854E-04	6.792046E-06
3.291531E+03	2.693532E-04	6.971008E-06
3.301475E+03	2.773237E-04	7.153825E-06
3.311420E+03	2.855009E-04	7.340538E-06
3.321364E+03	2.938844E-04	7.531080E-06
3.331308E+03	3.024777E-04	7.725487E-06
3.341252E+03	3.112852E-04	7.923805E-06
3.351196E+03	3.203151E-04	8.126190E-06
3.361141E+03	3.295635E-04	8.332474E-06
3.371085E+03	3.390442E-04	8.542944E-06
3.381029E+03	3.487527E-04	8.757426E-06
3.390973E+03	3.586948E-04	8.975998E-06
3.400917E+03	3.688802E-04	9.198835E-06
3.410862E+03	3.793012E-04	9.425678E-06
3.420806E+03	3.899731E-04	9.656840E-06
3.430750E+03	4.008982E-04	9.892302E-06
3.440694E+03	4.120687E-04	1.013181E-05
3.450638E+03	4.235023E-04	1.037572E-05
3.460583E+03	4.351923E-04	1.062379E-05
3.470527E+03	4.471476E-04	1.087617E-05
3.480471E+03	4.593731E-04	1.113291E-05
3.490415E+03	4.718591E-04	1.139369E-05
3.500359E+03	4.846176E-04	1.165872E-05
3.510304E+03	4.976459E-04	1.192787E-05
3.520248E+03	5.109428E-04	1.220103E-05
3.530192E+03	5.245137E-04	1.247824E-05
3.540136E+03	5.383549E-04	1.275935E-05
3.550080E+03	5.524704E-04	1.304437E-05
3.560025E+03	5.668599E-04	1.333322E-05
3.569969E+03	5.815376E-04	1.362615E-05
3.579913E+03	5.965127E-04	1.392330E-05
3.589857E+03	6.117927E-04	1.422475E-05
3.599802E+03	6.273967E-04	1.453086E-05
3.609746E+03	6.433470E-04	1.484205E-05
3.619690E+03	6.596488E-04	1.515835E-05
3.629634E+03	6.763258E-04	1.548021E-05
3.639578E+03	6.933671E-04	1.580725E-05
3.649523E+03	7.107867E-04	1.613972E-05
3.659467E+03	7.285921E-04	1.647766E-05
3.669411E+03	7.467913E-04	1.682115E-05
3.679355E+03	7.653989E-04	1.717040E-05
3.689299E+03	7.844367E-04	1.752580E-05
3.699244E+03	8.038995E-04	1.788710E-05
3.709188E+03	8.238235E-04	1.825497E-05
3.719132E+03	8.442081E-04	1.862930E-05
3.729076E+03	8.650736E-04	1.901037E-05
3.739020E+03	8.864381E-04	1.939847E-05
3.748965E+03	9.082934E-04	1.979326E-05
3.758909E+03	9.306652E-04	2.019517E-05
3.768853E+03	9.535443E-04	2.060386E-05
3.778797E+03	9.769319E-04	2.101921E-05
3.788741E+03	1.000814E-03	2.144077E-05
3.798686E+03	1.025178E-03	2.186815E-05
3.808630E+03	1.049997E-03	2.230063E-05
3.818574E+03	1.075244E-03	2.273753E-05
3.828518E+03	1.100878E-03	2.317785E-05
3.838462E+03	1.126867E-03	2.362082E-05
3.848407E+03	1.153152E-03	2.406511E-05
3.858351E+03	1.179669E-03	2.450932E-05
3.868295E+03	1.206354E-03	2.495203E-05
3.878239E+03	1.233125E-03	2.539155E-05
3.888183E+03	1.259913E-03	2.582644E-05
3.898128E+03	1.286623E-03	2.625475E-05
3.908072E+03	1.313164E-03	2.667465E-05
3.918016E+03	1.339430E-03	2.708406E-05
3.927960E+03	1.365312E-03	2.748085E-05
3.937904E+03	1.390729E-03	2.786355E-05
3.947849E+03	1.415550E-03	2.822966E-05
3.957793E+03	1.439687E-03	2.857763E-05
3.967737E+03	1.463039E-03	2.890563E-05
3.977681E+03	1.485521E-03	2.921223E-05
3.987625E+03	1.507059E-03	2.949625E-05
3.997570E+03	1.527572E-03	2.975637E-05
4.007514E+03	1.547027E-03	2.999226E-05
4.017458E+03	1.565390E-03	3.020356E-05
4.027402E+03	1.582658E-03	3.039053E-05
4.037346E+03	1.598839E-03	3.055366E-05
4.047291E+03	1.613966E-03	3.069389E-05
4.057235E+03	1.628120E-03	3.081302E-05
4.067179E+03	1.641366E-03	3.091262E-05
4.077123E+03	1.653817E-03	3.099504E-05
4.087067E+03	1.665604E-03	3.106296E-05
4.097012E+03	1.676847E-03	3.111883E-05
4.106956E+03	1.687717E-03	3.116595E-05
4.116900E+03	1.698355E-03	3.120703E-05
4.126844E+03	1.708929E-03	3.124527E-05
4.136788E+03	1.719614E-03	3.128384E-05
4.146733E+03	1.730554E-03	3.132538E-05
4.156677E+03	1.741933E-03	3.137313E-05
4.166621E+03	1.753877E-03	3.142924E-05
4.176565E+03	1.766572E-03	3.149693E-05
4.186509E+03	1.780132E-03	3.157804E-05
4.196454E+03	1.794704E-03	3.167493E-05
4.206398E+03	1.810413E-03	3.178959E-05
4.216342E+03	1.827392E-03	3.192403E-05
4.226286E+03	1.845721E-03	3.207935E-05
4.236231E+03	1.865531E-03	3.225749E-05
4.246175E+03	1.886900E-03	3.245944E-05
4.256119E+03	1.909901E-03	3.268606E-05
4.266063E+03	1.934625E-03	3.293851E-05
4.276007E+03	1.961145E-03	3.321763E-05
4.285952E+03	1.989493E-03	3.352354E-05
4.295896E+03	2.019728E-03	3.385677E-05
4.305840E+03	2.051899E-03	3.421774E-05
4.315784E+03	2.086054E-03	3.460677E-05
4.325728E+03	2.122235E-03	3.502412E-05
4.335673E+03	2.160500E-03	3.547029E-05
4.345617E+03	2.200894E-03	3.594554E-05
4.355561E+03	2.243463E-03	3.645016E-05
4.365505E+03	2.288313E-03	3.698542E-05
4.375449E+03	2.335506E-03	3.755179E-05
4.385394E+03	2.385125E-03	3.815013E-05
4.395338E+03	2.437222E-03	3.878076E-05
4.405282E+03	2.491763E-03	3.944263E-05
4.415226E+03	2.548677E-03	4.013413E-05
4.425170E+03	2.607910E-03	4.085397E-05
4.435115E+03	2.669342E-03	4.159984E-05
4.445059E+03	2.732837E-03	4.236923E-05
4.455003E+03	2.798211E-03	4.315895E-05
4.464947E+03	2.865181E-03	4.396436E-05
4.474891E+03	2.933472E-03	4.478095E-05
4.484836E+03	3.002690E-03	4.560258E-05
4.494780E+03	3.072377E-03	4.642219E-05
4.504724E+03	3.142027E-03	4.723221E-05
4.514668E+03	3.211027E-03	4.802360E-05
4.524612E+03	3.278765E-03	4.878750E-05
4.534557E+03	3.344595E-03	4.951480E-05
4.544501E+03	3.407833E-03	5.019592E-05
4.554445E+03	3.467765E-03	5.082111E-05
4.564389E+03	3.523757E-03	5.138198E-05
4.574333E+03	3.575192E-03	5.187052E-05
4.584278E+03	3.621511E-03	5.227980E-05
4.594222E+03	3.662269E-03	5.260459E-05
4.604166E+03	3.697052E-03	5.284027E-05
4.614110E+03	3.725617E-03	5.298472E-05
4.624054E+03	3.747810E-03	5.303715E-05
4.633999E+03	3.763607E-03	5.299862E-05
4.643943E+03	3.773116E-03	5.287201E-05
4.653887E+03	3.776586E-03	5.266213E-05
4.663831E+03	3.774399E-03	5.237552E-05
4.673775E+03	3.767130E-03	5.202132E-05
4.683720E+03	3.755403E-03	5.160910E-05
4.693664E+03	3.739942E-03	5.114966E-05
4.703608E+03	3.721615E-03	5.065554E-05
4.713552E+03	3.701248E-03	5.013848E-05
4.723496E+03	3.679737E-03	4.961092E-05
4.733441E+03	3.658021E-03	4.908570E-05
4.743385E+03	3.637000E-03	4.857481E-05
4.753329E+03	3.617508E-03	4.808921E-05
4.763273E+03	3.600397E-03	4.763989E-05
4.773217E+03	3.586415E-03	4.723622E-05
4.783162E+03	3.576103E-03	4.688473E-05
4.793106E+03	3.569903E-03	4.659053E-05
4.803050E+03	3.568128E-03	4.635694E-05
4.812994E+03	3.570983E-03	4.618589E-05
4.822938E+03	3.578571E-03	4.607790E-05
4.832883E+03	3.590849E-03	4.603167E-05
4.842827E+03	3.607771E-03	4.604581E-05
4.852771E+03	3.629054E-03	4.611599E-05
4.862715E+03	3.654389E-03	4.623756E-05
4.872660E+03	3.683415E-03	4.640532E-05
4.882604E+03	3.715662E-03	4.661279E-05
4.892548E+03	3.750600E-03	4.685287E-05
4.902492E+03	3.787581E-03	4.711707E-05
4.912436E+03	3.826058E-03	4.739835E-05
4.922381E+03	3.865369E-03	4.768836E-05
4.932325E+03	3.904891E-03	4.797932E-05
4.942269E+03	3.944027E-03	4.826396E-05
4.952213E+03	3.982237E-03	4.853577E-05
4.962157E+03	4.019017E-03	4.878882E-05
4.972102E+03	4.054001E-03	4.901892E-05
4.982046E+03	4.086977E-03	4.922381E-05
4.991990E+03	4.117785E-03	4.940188E-05
5.001934E+03	4.146396E-03	4.955312E-05
5.011878E+03	4.173021E-03	4.968036E-05
5.021823E+03	4.197785E-03	4.978538E-05
5.031767E+03	4.221101E-03	4.987333E-05
5.041711E+03	4.243368E-03	4.994913E-05
5.051655E+03	4.264909E-03	5.001671E-05
5.061599E+03	4.286311E-03	5.008305E-05
5.071544E+03	4.307958E-03	5.015266E-05
5.081488E+03	4.330300E-03	5.023074E-05
5.091432E+03	4.353800E-03	5.032261E-05
5.101376E+03	4.378761E-03	5.043160E-05
5.111320E+03	4.405523E-03	5.056151E-05
5.121265E+03	4.434425E-03	5.071602E-05
5.131209E+03	4.465675E-03	5.089729E-05
5.141153E+03	4.499477E-03	5.110741E-05
5.151097E+03	4.535946E-03	5.134744E-05
5.161041E+03	4.575243E-03	5.161897E-05
5.170986E+03	4.617357E-03	5.192160E-05
5.180930E+03	4.662421E-03	5.225659E-05
5.190874E+03	4.710399E-03	5.262332E-05
5.200818E+03	4.761232E-03	5.302090E-05
5.210762E+03	4.814886E-03	5.344874E-05
5.220707E+03	4.871371E-03	5.390677E-05
5.230651E+03	4.930558E-03	5.439339E-05
5.240595E+03	4.992482E-03	5.490883E-05
5.250539E+03	5.057220E-03	5.545381E-05
5.260483E+03	5.124712E-03	5.602753E-05
5.270428E+03	5.195271E-03	5.663328E-05
5.280372E+03	5.269002E-03	5.727208E-05
5.290316E+03	5.346424E-03	5.794943E-05
5.300260E+03	5.427852E-03	5.866857E-05
5.310204E+03	5.513966E-03	5.943668E-05
5.320149E+03	5.605428E-03	6.026065E-05
5.330093E+03	5.702896E-03	6.114732E-05
5.340037E+03	5.807211E-03	6.210542E-05
5.349981E+03	5.918896E-03	6.314021E-05
5.359925E+03	6.038741E-03	6.425977E-05
5.369870E+03	6.166595E-03	6.546218E-05
5.379814E+03	6.300217E-03	6.672342E-05
5.389758E+03	6.436705E-03	6.801273E-05
5.399702E+03	6.572972E-03	6.929767E-05
5.409646E+03	6.705792E-03	7.054452E-05
5.419591E+03	6.832070E-03	7.172113E-05
5.429535E+03	6.948899E-03	7.279758E-05
5.439479E+03	7.053666E-03	7.374722E-05
5.449423E+03	7.144063E-03	7.454677E-05
5.459367E+03	7.218225E-03	7.517767E-05
5.469312E+03	7.274920E-03	7.562807E-05
5.479256E+03	7.313304E-03	7.589014E-05
5.489200E+03	7.333075E-03	7.596171E-05
5.499144E+03	7.334492E-03	7.584633E-05
5.509089E+03	7.318498E-03	7.555459E-05
5.519033E+03	7.286330E-03	7.509998E-05
5.528977E+03	7.239905E-03	7.450285E-05
5.538921E+03	7.181301E-03	7.378507E-05
5.548865E+03	7.113037E-03	7.297287E-05
5.558810E+03	7.037894E-03	7.209499E-05
5.568754E+03	6.958525E-03	7.117868E-05
5.578698E+03	6.877783E-03	7.025307E-05
5.588642E+03	6.798347E-03	6.934538E-05
5.598586E+03	6.722656E-03	6.848021E-05
5.608531E+03	6.652991E-03	6.768047E-05
5.618475E+03	6.591436E-03	6.696691E-05
5.628419E+03	6.539720E-03	6.635664E-05
5.638363E+03	6.499216E-03	6.586306E-05
5.648307E+03	6.471140E-03	6.549797E-05
5.658252E+03	6.456429E-03	6.527030E-05
5.668196E+03	6.455557E-03	6.518425E-05
5.678140E+03	6.468942E-03	6.524352E-05
5.688084E+03	6.496764E-03	6.544937E-05
5.698028E+03	6.538909E-03	6.580013E-05
5.707973E+03	6.595034E-03	6.629188E-05
5.717917E+03	6.664580E-03	6.691852E-05
5.727861E+03	6.746767E-03	6.767183E-05
5.737805E+03	6.840668E-03	6.854215E-05
5.747749E+03	6.945002E-03	6.951633E-05
5.757694E+03	7.058496E-03	7.058137E-05
5.767638E+03	7.179460E-03	7.172019E-05
5.777582E+03	7.306095E-03	7.291469E-05
5.787526E+03	7.436610E-03	7.414694E-05
5.797470E+03	7.568784E-03	7.539481E-05
5.807415E+03	7.700563E-03	7.663791E-05
5.817359E+03	7.829879E-03	7.785581E-05
5.827303E+03	7.954534E-03	7.902687E-05
5.837247E+03	8.072597E-03	8.013216E-05
5.847191E+03	8.182105E-03	8.115253E-05
5.857136E+03	8.281563E-03	8.207350E-05
5.867080E+03	8.369437E-03	8.288026E-05
5.877024E+03	8.444546E-03	8.356155E-05
5.886968E+03	8.506086E-03	8.410983E-05
5.896912E+03	8.553358E-03	8.451863E-05
5.906857E+03	8.586147E-03	8.478627E-05
5.916801E+03	8.604340E-03	8.491205E-05
5.926745E+03	8.608293E-03	8.489989E-05
5.936689E+03	8.598531E-03	8.475533E-05
5.946633E+03	8.575809E-03	8.448616E-05
5.956578E+03	8.540985E-03	8.410115E-05
5.966522E+03	8.495280E-03	8.361257E-05
5.976466E+03	8.439935E-03	8.303289E-05
5.986410E+03	8.376168E-03	8.237427E-05
5.996354E+03	8.305431E-03	8.165115E-05
6.006299E+03	8.228969E-03	8.087588E-05
6.016243E+03	8.147987E-03	8.006042E-05
6.026187E+03	8.063907E-03	7.921879E-05
6.036131E+03	7.977666E-03	7.836026E-05
6.046075E+03	7.890377E-03	7.749577E-05
6.056020E+03	7.802736E-03	7.663222E-05
6.065964E+03	7.715590E-03	7.577790E-05
6.075908E+03	7.629460E-03	7.493797E-05
6.085852E+03	7.544823E-03	7.411709E-05
6.095796E+03	7.462028E-03	7.331873E-05
6.105741E+03	7.381210E-03	7.254419E-05
6.115685E+03	7.302488E-03	7.179468E-05
6.125629E+03	7.225872E-03	7.107031E-05
6.135573E+03	7.151291E-03	7.037038E-05
6.145518E+03	7.078580E-03	6.969329E-05
6.155462E+03	7.007427E-03	6.903597E-05
6.165406E+03	6.937636E-03	6.839650E-05
6.175350E+03	6.868896E-03	6.777157E-05
6.185294E+03	6.800888E-03	6.715767E-05
6.195239E+03	6.733396E-03	6.655231E-05
6.205183E+03	6.666249E-03	6.595340E-05
6.215127E+03	6.599469E-03	6.536084E-05
6.225071E+03	6.533691E-03	6.478057E-05
6.235015E+03	6.469711E-03	6.422015E-05
6.244960E+03	6.408407E-03	6.368808E-05
6.254904E+03	6.350383E-03	6.319012E-05
6.264848E+03	6.296618E-03	6.273584E-05
6.274792E+03	6.247580E-03	6.232979E-05
6.284736E+03	6.203900E-03	6.197819E-05
6.294681E+03	6.166016E-03	6.168537E-05
6.304625E+03	6.134259E-03	6.145464E-05
6.314569E+03	6.108776E-03	6.128751E-05
6.324513E+03	6.089714E-03	6.118550E-05
6.334457E+03	6.077156E-03	6.114951E-05
6.344402E+03	6.071046E-03	6.117905E-05
6.354346E+03	6.071287E-03	6.127327E-05
6.364290E+03	6.077847E-03	6.143190E-05
6.374234E+03	6.090412E-03	6.165189E-05
6.384178E+03	6.108828E-03	6.193177E-05
6.394123E+03	6.132848E-03	6.226910E-05
6.404067E+03	6.162126E-03	6.266047E-05
6.414011E+03	6.196583E-03	6.310512E-05
6.423955E+03	6.235866E-03	6.359951E-05
6.433899E+03	6.279894E-03	6.414285E-05
6.443844E+03	6.328493E-03	6.473341E-05
6.453788E+03	6.381379E-03	6.536829E-05
6.463732E+03	6.438342E-03	6.604535E-05
6.473676E+03	6.499148E-03	6.676217E-05
6.483620E+03	6.563521E-03	6.751588E-05
6.493565E+03	6.631133E-03	6.830307E-05
6.503509E+03	6.701702E-03	6.912077E-05
6.513453E+03	6.774676E-03	6.996319E-05
6.523397E+03	6.849423E-03	7.082370E-05
6.533341E+03	6.925576E-03	7.169838E-05
6.543286E+03	7.002273E-03	7.257812E-05
6.553230E+03	7.078940E-03	7.345678E-05
6.563174E+03	7.154863E-03	7.432675E-05
6.573118E+03	7.229318E-03	7.518027E-05
6.583062E+03	7.301589E-03	7.600966E-05
6.593007E+03	7.370864E-03	7.680616E-05
6.602951E+03	7.436621E-03	7.756406E-05
6.612895E+03	7.498151E-03	7.827569E-05
6.622839E+03	7.555075E-03	7.893678E-05
6.632783E+03	7.606854E-03	7.954143E-05
6.642728E+03	7.653171E-03	8.008605E-05
6.652672E+03	7.693953E-03	8.056959E-05
6.662616E+03	7.729108E-03	8.099086E-05
6.672560E+03	7.758390E-03	8.134705E-05
6.682504E+03	7.782186E-03	8.164202E-05
6.692449E+03	7.800444E-03	8.187505E-05
6.702393E+03	7.813738E-03	8.205202E-05
6.712337E+03	7.822301E-03	8.217527E-05
6.722281E+03	7.826424E-03	8.224775E-05
6.732225E+03	7.826848E-03	8.227718E-05
6.742170E+03	7.823794E-03	8.226587E-05
6.752114E+03	7.817908E-03	8.222057E-05
6.762058E+03	7.809706E-03	8.214672E-05
6.772002E+03	7.799691E-03	8.204964E-05
6.781946E+03	7.788214E-03	8.193305E-05
6.791891E+03	7.775878E-03	8.180334E-05
6.801835E+03	7.762972E-03	8.166361E-05
6.811779E+03	7.750039E-03	8.151966E-05
6.821723E+03	7.737294E-03	8.137381E-05
6.831668E+03	7.725061E-03	8.122955E-05
6.841612E+03	7.713760E-03	8.109139E-05
6.851556E+03	7.703345E-03	8.095894E-05
6.861500E+03	7.694296E-03	8.083732E-05
6.871444E+03	7.686619E-03	8.072671E-05
6.881389E+03	7.680424E-03	8.062835E-05
6.891333E+03	7.675768E-03	8.054294E-05
6.901277E+03	7.672667E-03	8.047075E-05
6.911221E+03	7.670945E-03	8.041005E-05
6.921165E+03	7.670680E-03	8.036176E-05
6.931110E+03	7.671761E-03	8.032486E-05
6.941054E+03	7.674052E-03	8.029803E-05
6.950998E+03	7.677090E-03	8.027658E-05
6.960942E+03	7.681134E-03	8.026337E-05
6.970886E+03	7.685535E-03	8.025177E-05
6.980831E+03	7.690379E-03	8.024287E-05
6.990775E+03	7.695300E-03	8.023303E-05
7.000719E+03	7.700078E-03	8.022016E-05
7.010663E+03	7.704493E-03	8.020219E-05
7.020607E+03	7.708331E-03	8.017712E-05
7.030552E+03	7.711224E-03	8.014138E-05
7.040496E+03	7.713121E-03	8.009472E-05
7.050440E+03	7.713823E-03	8.003534E-05
7.060384E+03	7.712980E-03	7.995993E-05
7.070328E+03	7.710559E-03	7.986843E-05
7.080273E+03	7.706220E-03	7.975766E-05
7.090217E+03	7.699787E-03	7.962615E-05
7.100161E+03	7.691081E-03	7.947239E-05
7.110105E+03	7.680094E-03	7.929666E-05
7.120049E+03	7.666347E-03	7.909440E-05
7.129994E+03	7.649686E-03	7.886438E-05
7.139938E+03	7.630285E-03	7.860880E-05
7.149882E+03	7.607698E-03	7.832345E-05
7.159826E+03	7.581814E-03	7.800757E-05
7.169770E+03	7.552702E-03	7.766228E-05
7.179715E+03	7.520133E-03	7.728560E-05
7.189659E+03	7.484066E-03	7.687748E-05
7.199603E+03	7.444487E-03	7.643816E-05
7.209547E+03	7.401407E-03	7.596809E-05
7.219491E+03	7.355026E-03	7.546968E-05
7.229436E+03	7.305098E-03	7.494073E-05
7.239380E+03	7.252043E-03	7.438585E-05
7.249324E+03	7.195834E-03	7.380503E-05
7.259268E+03	7.136637E-03	7.320025E-05
7.269212E+03	7.074799E-03	7.257529E-05
7.279157E+03	7.010388E-03	7.193107E-05
7.289101E+03	6.943805E-03	7.127187E-05
7.299045E+03	6.875320E-03	7.060064E-05
7.308989E+03	6.805378E-03	6.992208E-05
7.318933E+03	6.734287E-03	6.923947E-05
7.328878E+03	6.662520E-03	6.855779E-05
7.338822E+03	6.590258E-03	6.787897E-05
7.348766E+03	6.518291E-03	6.721126E-05
7.358710E+03	6.446963E-03	6.655826E-05
7.368654E+03	6.376466E-03	6.592206E-05
7.378599E+03	6.307591E-03	6.531091E-05
7.388543E+03	6.240530E-03	6.472691E-05
7.398487E+03	6.175765E-03	6.417519E-05
7.408431E+03	6.113484E-03	6.365786E-05
7.418375E+03	6.054156E-03	6.317996E-05
7.428320E+03	5.997671E-03	6.274057E-05
7.438264E+03	5.944626E-03	6.234617E-05
7.448208E+03	5.894901E-03	6.199577E-05
7.458152E+03	5.848932E-03	6.169427E-05
7.468097E+03	5.806862E-03	6.144355E-05
7.478041E+03	5.768815E-03	6.124534E-05
7.487985E+03	5.735172E-03	6.110417E-05
7.497929E+03	5.705725E-03	6.101832E-05
7.507873E+03	5.680919E-03	6.099311E-05
7.517818E+03	5.660730E-03	6.102856E-05
7.527762E+03	5.645216E-03	6.112561E-05
7.537706E+03	5.634250E-03	6.128321E-05
7.547650E+03	5.627958E-03	6.150314E-05
7.557594E+03	5.626198E-03	6.178431E-05
7.567539E+03	5.629034E-03	6.212790E-05
7.577483E+03	5.636791E-03	6.253809E-05
7.587427E+03	5.649706E-03	6.301817E-05
7.597371E+03	5.668261E-03	6.357433E-05
7.607315E+03	5.691218E-03	6.419352E-05
7.617260E+03	5.717617E-03	6.486556E-05
7.627204E+03	5.746291E-03	6.557772E-05
7.637148E+03	5.776557E-03	6.632252E-05
7.647092E+03	5.807590E-03	6.709066E-05
7.657036E+03	5.838824E-03	6.787565E-05
7.666981E+03	5.869784E-03	6.867186E-05
7.676925E+03	5.900365E-03	6.947788E-05
7.686869E+03	5.929752E-03	7.028387E-05
7.696813E+03	5.958080E-03	7.109104E-05
7.706757E+03	5.984753E-03	7.189184E-05
7.716702E+03	6.009659E-03	7.268436E-05
