#wls	flux	fluxerr
1.591072E+03	4.036992E-06	1.364278E-07
1.630849E+03	4.240893E-06	1.432811E-07
1.670626E+03	4.390411E-06	1.482929E-07
1.710403E+03	4.478065E-06	1.512119E-07
1.750180E+03	4.495087E-06	1.517438E-07
1.789957E+03	4.425150E-06	1.493395E-07
1.829733E+03	4.251562E-06	1.434385E-07
1.869510E+03	3.964809E-06	1.337231E-07
1.909287E+03	3.565836E-06	1.202289E-07
1.949064E+03	3.079313E-06	1.037914E-07
1.988841E+03	2.557299E-06	8.616783E-08
2.028617E+03	2.072636E-06	6.981345E-08
2.068394E+03	1.696533E-06	5.712510E-08
2.108171E+03	1.476888E-06	4.971151E-08
2.147948E+03	1.434064E-06	4.825235E-08
2.187725E+03	1.578443E-06	5.309034E-08
2.227501E+03	1.924419E-06	6.470213E-08
2.267278E+03	2.487823E-06	8.361163E-08
2.307055E+03	3.274232E-06	1.099969E-07
2.346832E+03	4.273231E-06	1.434984E-07
2.386609E+03	5.462971E-06	1.833727E-07
2.426386E+03	6.815514E-06	2.286730E-07
2.466162E+03	8.307882E-06	2.786201E-07
2.505939E+03	9.919874E-06	3.325290E-07
2.545716E+03	1.164296E-05	3.901067E-07
2.585493E+03	1.346939E-05	4.510860E-07
2.625270E+03	1.540094E-05	5.155199E-07
2.665046E+03	1.743968E-05	5.834695E-07
2.704823E+03	1.959101E-05	6.551084E-07
2.744600E+03	2.186489E-05	7.307604E-07
2.784377E+03	2.426502E-05	8.105403E-07
2.824154E+03	2.680320E-05	8.948320E-07
2.863930E+03	2.948534E-05	9.838217E-07
2.903707E+03	3.232282E-05	1.077878E-06
2.943484E+03	3.533176E-05	1.177525E-06
2.983261E+03	3.853605E-05	1.283546E-06
2.993205E+03	3.937253E-05	1.311207E-06
3.003149E+03	4.022160E-05	1.339278E-06
3.013094E+03	4.108554E-05	1.367835E-06
3.023038E+03	4.196959E-05	1.397051E-06
3.032982E+03	4.288490E-05	1.427297E-06
3.042926E+03	4.384157E-05	1.458909E-06
3.052870E+03	4.483964E-05	1.491887E-06
3.062815E+03	4.587723E-05	1.526169E-06
3.072759E+03	4.695267E-05	1.561696E-06
3.082703E+03	4.806647E-05	1.598488E-06
3.092647E+03	4.921504E-05	1.636422E-06
3.102591E+03	5.040141E-05	1.675599E-06
3.112536E+03	5.161995E-05	1.715831E-06
3.122480E+03	5.287631E-05	1.757306E-06
3.132424E+03	5.416266E-05	1.799762E-06
3.142368E+03	5.548497E-05	1.843397E-06
3.152312E+03	5.684025E-05	1.888112E-06
3.162257E+03	5.823015E-05	1.933960E-06
3.172201E+03	5.965174E-05	1.980843E-06
3.182145E+03	6.110699E-05	2.028826E-06
3.192089E+03	6.259804E-05	2.077980E-06
3.202033E+03	6.412220E-05	2.128215E-06
3.211978E+03	6.568186E-05	2.179608E-06
3.221922E+03	6.727963E-05	2.232246E-06
3.231866E+03	6.891566E-05	2.286134E-06
3.241810E+03	7.058769E-05	2.341195E-06
3.251754E+03	7.230128E-05	2.397613E-06
3.261699E+03	7.405698E-05	2.455405E-06
3.271643E+03	7.585290E-05	2.514508E-06
3.281587E+03	7.769502E-05	2.575120E-06
3.291531E+03	7.958440E-05	2.637274E-06
3.301475E+03	8.152478E-05	2.701093E-06
3.311420E+03	8.351477E-05	2.766530E-06
3.321364E+03	8.555567E-05	2.833628E-06
3.331308E+03	8.765729E-05	2.902709E-06
3.341252E+03	8.981579E-05	2.973646E-06
3.351196E+03	9.203579E-05	3.046591E-06
3.361141E+03	9.431931E-05	3.121608E-06
3.371085E+03	9.667127E-05	3.198859E-06
3.381029E+03	9.909697E-05	3.278519E-06
3.390973E+03	1.015931E-04	3.360476E-06
3.400917E+03	1.041681E-04	3.445008E-06
3.410862E+03	1.068249E-04	3.532208E-06
3.420806E+03	1.095635E-04	3.622078E-06
3.430750E+03	1.123870E-04	3.714716E-06
3.440694E+03	1.153047E-04	3.810432E-06
3.450638E+03	1.183113E-04	3.909040E-06
3.460583E+03	1.214132E-04	4.010759E-06
3.470527E+03	1.246144E-04	4.115713E-06
3.480471E+03	1.279126E-04	4.223825E-06
3.490415E+03	1.313118E-04	4.335228E-06
3.500359E+03	1.348099E-04	4.449848E-06
3.510304E+03	1.384112E-04	4.567823E-06
3.520248E+03	1.421168E-04	4.689189E-06
3.530192E+03	1.459247E-04	4.813877E-06
3.540136E+03	1.498360E-04	4.941922E-06
3.550080E+03	1.538552E-04	5.073470E-06
3.560025E+03	1.579801E-04	5.208447E-06
3.569969E+03	1.622121E-04	5.346892E-06
3.579913E+03	1.665487E-04	5.488725E-06
3.589857E+03	1.709874E-04	5.633861E-06
3.599802E+03	1.755325E-04	5.782436E-06
3.609746E+03	1.801811E-04	5.934354E-06
3.619690E+03	1.849372E-04	6.089743E-06
3.629634E+03	1.898047E-04	6.248732E-06
3.639578E+03	1.947874E-04	6.411441E-06
3.649523E+03	1.998892E-04	6.577995E-06
3.659467E+03	2.051137E-04	6.748510E-06
3.669411E+03	2.104643E-04	6.923096E-06
3.679355E+03	2.159444E-04	7.101861E-06
3.689299E+03	2.215533E-04	7.284777E-06
3.699244E+03	2.273013E-04	7.472186E-06
3.709188E+03	2.331836E-04	7.663918E-06
3.719132E+03	2.392021E-04	7.860038E-06
3.729076E+03	2.453588E-04	8.060607E-06
3.739020E+03	2.516591E-04	8.265800E-06
3.748965E+03	2.580960E-04	8.475381E-06
3.758909E+03	2.646742E-04	8.689502E-06
3.768853E+03	2.713938E-04	8.908163E-06
3.778797E+03	2.782501E-04	9.131206E-06
3.788741E+03	2.852421E-04	9.358597E-06
3.798686E+03	2.923682E-04	9.590277E-06
3.808630E+03	2.996263E-04	9.826174E-06
3.818574E+03	3.070091E-04	1.006605E-05
3.828518E+03	3.145176E-04	1.030992E-05
3.838462E+03	3.221433E-04	1.055752E-05
3.848407E+03	3.298815E-04	1.080869E-05
3.858351E+03	3.377316E-04	1.106339E-05
3.868295E+03	3.456783E-04	1.132114E-05
3.878239E+03	3.537150E-04	1.158171E-05
3.888183E+03	3.618398E-04	1.184503E-05
3.898128E+03	3.700452E-04	1.211086E-05
3.908072E+03	3.783189E-04	1.237878E-05
3.918016E+03	3.866525E-04	1.264854E-05
3.927960E+03	3.950381E-04	1.291986E-05
3.937904E+03	4.034675E-04	1.319247E-05
3.947849E+03	4.119323E-04	1.346611E-05
3.957793E+03	4.204255E-04	1.374053E-05
3.967737E+03	4.289333E-04	1.401529E-05
3.977681E+03	4.374543E-04	1.429034E-05
3.987625E+03	4.459827E-04	1.456549E-05
3.997570E+03	4.545076E-04	1.484038E-05
4.007514E+03	4.630238E-04	1.511485E-05
4.017458E+03	4.715284E-04	1.538879E-05
4.027402E+03	4.800244E-04	1.566231E-05
4.037346E+03	4.885002E-04	1.593503E-05
4.047291E+03	4.969675E-04	1.620732E-05
4.057235E+03	5.054165E-04	1.647888E-05
4.067179E+03	5.138566E-04	1.675000E-05
4.077123E+03	5.222863E-04	1.702063E-05
4.087067E+03	5.307183E-04	1.729120E-05
4.097012E+03	5.391539E-04	1.756173E-05
4.106956E+03	5.476015E-04	1.783252E-05
4.116900E+03	5.560711E-04	1.810386E-05
4.126844E+03	5.645678E-04	1.837595E-05
4.136788E+03	5.731091E-04	1.864934E-05
4.146733E+03	5.817025E-04	1.892427E-05
4.156677E+03	5.903606E-04	1.920115E-05
4.166621E+03	5.990916E-04	1.948026E-05
4.176565E+03	6.079091E-04	1.976202E-05
4.186509E+03	6.168288E-04	2.004695E-05
4.196454E+03	6.258593E-04	2.033532E-05
4.206398E+03	6.350149E-04	2.062759E-05
4.216342E+03	6.442976E-04	2.092383E-05
4.226286E+03	6.537360E-04	2.122496E-05
4.236231E+03	6.633248E-04	2.153080E-05
4.246175E+03	6.730775E-04	2.184179E-05
4.256119E+03	6.830083E-04	2.215839E-05
4.266063E+03	6.931228E-04	2.248077E-05
4.276007E+03	7.034264E-04	2.280910E-05
4.285952E+03	7.139298E-04	2.314372E-05
4.295896E+03	7.246277E-04	2.348445E-05
4.305840E+03	7.355364E-04	2.383183E-05
4.315784E+03	7.466388E-04	2.418529E-05
4.325728E+03	7.579629E-04	2.454573E-05
4.335673E+03	7.694789E-04	2.491217E-05
4.345617E+03	7.812102E-04	2.528538E-05
4.355561E+03	7.931458E-04	2.566500E-05
4.365505E+03	8.052870E-04	2.605104E-05
4.375449E+03	8.176328E-04	2.644349E-05
4.385394E+03	8.302048E-04	2.684304E-05
4.395338E+03	8.429963E-04	2.724945E-05
4.405282E+03	8.560056E-04	2.766267E-05
4.415226E+03	8.692289E-04	2.808257E-05
4.425170E+03	8.826592E-04	2.850892E-05
4.435115E+03	8.962863E-04	2.894139E-05
4.445059E+03	9.100798E-04	2.937898E-05
4.455003E+03	9.240235E-04	2.982117E-05
4.464947E+03	9.380906E-04	3.026710E-05
4.474891E+03	9.522615E-04	3.071612E-05
4.484836E+03	9.664755E-04	3.116627E-05
4.494780E+03	9.807296E-04	3.161746E-05
4.504724E+03	9.949592E-04	3.206761E-05
4.514668E+03	1.009120E-03	3.251530E-05
4.524612E+03	1.023188E-03	3.295971E-05
4.534557E+03	1.037118E-03	3.339944E-05
4.544501E+03	1.050845E-03	3.383239E-05
4.554445E+03	1.064338E-03	3.425757E-05
4.564389E+03	1.077559E-03	3.467374E-05
4.574333E+03	1.090460E-03	3.507937E-05
4.584278E+03	1.102997E-03	3.547307E-05
4.594222E+03	1.115142E-03	3.585396E-05
4.604166E+03	1.126862E-03	3.622094E-05
4.614110E+03	1.138116E-03	3.657273E-05
4.624054E+03	1.148881E-03	3.690861E-05
4.633999E+03	1.159139E-03	3.722802E-05
4.643943E+03	1.168869E-03	3.753029E-05
4.653887E+03	1.178042E-03	3.781452E-05
4.663831E+03	1.186674E-03	3.808118E-05
4.673775E+03	1.194725E-03	3.832906E-05
4.683720E+03	1.202220E-03	3.855898E-05
4.693664E+03	1.209168E-03	3.877120E-05
4.703608E+03	1.215593E-03	3.896653E-05
4.713552E+03	1.221546E-03	3.914664E-05
4.723496E+03	1.227108E-03	3.931410E-05
4.733441E+03	1.232350E-03	3.947121E-05
4.743385E+03	1.237320E-03	3.961952E-05
4.753329E+03	1.242103E-03	3.976174E-05
4.763273E+03	1.246760E-03	3.989986E-05
4.773217E+03	1.251376E-03	4.003656E-05
4.783162E+03	1.255983E-03	4.017291E-05
4.793106E+03	1.260662E-03	4.031146E-05
4.803050E+03	1.265439E-03	4.045309E-05
4.812994E+03	1.270390E-03	4.060017E-05
4.822938E+03	1.275545E-03	4.075370E-05
4.832883E+03	1.280921E-03	4.091421E-05
4.842827E+03	1.286581E-03	4.108365E-05
4.852771E+03	1.292532E-03	4.126234E-05
4.862715E+03	1.298792E-03	4.145077E-05
4.872660E+03	1.305388E-03	4.164979E-05
4.882604E+03	1.312330E-03	4.185974E-05
4.892548E+03	1.319624E-03	4.208082E-05
4.902492E+03	1.327290E-03	4.231363E-05
4.912436E+03	1.335304E-03	4.255741E-05
4.922381E+03	1.343695E-03	4.281303E-05
4.932325E+03	1.352462E-03	4.308053E-05
4.942269E+03	1.361594E-03	4.335949E-05
4.952213E+03	1.371091E-03	4.364989E-05
4.962157E+03	1.380952E-03	4.395175E-05
4.972102E+03	1.391193E-03	4.426554E-05
4.982046E+03	1.401805E-03	4.459094E-05
4.991990E+03	1.412792E-03	4.492810E-05
5.001934E+03	1.424162E-03	4.527725E-05
5.011878E+03	1.435939E-03	4.563917E-05
5.021823E+03	1.448108E-03	4.601331E-05
5.031767E+03	1.460695E-03	4.640058E-05
5.041711E+03	1.473720E-03	4.680151E-05
5.051655E+03	1.487201E-03	4.721671E-05
5.061599E+03	1.501160E-03	4.764689E-05
5.071544E+03	1.515620E-03	4.809271E-05
5.081488E+03	1.530574E-03	4.855399E-05
5.091432E+03	1.546092E-03	4.903290E-05
5.101376E+03	1.562168E-03	4.952925E-05
5.111320E+03	1.578825E-03	5.004376E-05
5.121265E+03	1.596086E-03	5.057714E-05
5.131209E+03	1.613972E-03	5.113005E-05
5.141153E+03	1.632499E-03	5.170301E-05
5.151097E+03	1.651701E-03	5.229701E-05
5.161041E+03	1.671542E-03	5.291091E-05
5.170986E+03	1.692078E-03	5.354651E-05
5.180930E+03	1.713279E-03	5.420285E-05
5.190874E+03	1.735165E-03	5.488048E-05
5.200818E+03	1.757709E-03	5.557861E-05
5.210762E+03	1.780885E-03	5.629634E-05
5.220707E+03	1.804711E-03	5.703425E-05
5.230651E+03	1.829145E-03	5.779101E-05
5.240595E+03	1.854159E-03	5.856573E-05
5.250539E+03	1.879699E-03	5.935665E-05
5.260483E+03	1.905721E-03	6.016240E-05
5.270428E+03	1.932196E-03	6.098205E-05
5.280372E+03	1.959027E-03	6.181253E-05
5.290316E+03	1.986190E-03	6.265309E-05
5.300260E+03	2.013575E-03	6.350025E-05
5.310204E+03	2.041103E-03	6.435149E-05
5.320149E+03	2.068710E-03	6.520481E-05
5.330093E+03	2.096281E-03	6.605663E-05
5.340037E+03	2.123699E-03	6.690320E-05
5.349981E+03	2.150899E-03	6.774252E-05
5.359925E+03	2.177708E-03	6.856911E-05
5.369870E+03	2.204029E-03	6.937999E-05
5.379814E+03	2.229744E-03	7.017143E-05
5.389758E+03	2.254707E-03	7.093886E-05
5.399702E+03	2.278823E-03	7.167933E-05
5.409646E+03	2.301929E-03	7.238769E-05
5.419591E+03	2.323939E-03	7.306132E-05
5.429535E+03	2.344733E-03	7.369643E-05
5.439479E+03	2.364251E-03	7.429119E-05
5.449423E+03	2.382449E-03	7.484426E-05
5.459367E+03	2.399213E-03	7.535208E-05
5.469312E+03	2.414596E-03	7.581631E-05
5.479256E+03	2.428528E-03	7.623489E-05
5.489200E+03	2.441070E-03	7.660966E-05
5.499144E+03	2.452311E-03	7.694351E-05
5.509089E+03	2.462321E-03	7.723865E-05
5.519033E+03	2.471225E-03	7.749903E-05
5.528977E+03	2.479200E-03	7.773022E-05
5.538921E+03	2.486401E-03	7.793712E-05
5.548865E+03	2.493052E-03	7.812675E-05
5.558810E+03	2.499374E-03	7.830608E-05
5.568754E+03	2.505603E-03	7.848245E-05
5.578698E+03	2.512005E-03	7.866423E-05
5.588642E+03	2.518776E-03	7.885759E-05
5.598586E+03	2.526217E-03	7.907189E-05
5.608531E+03	2.534568E-03	7.931463E-05
5.618475E+03	2.544035E-03	7.959226E-05
5.628419E+03	2.554863E-03	7.991242E-05
5.638363E+03	2.567252E-03	8.028131E-05
5.648307E+03	2.581380E-03	8.070452E-05
5.658252E+03	2.597405E-03	8.118686E-05
5.668196E+03	2.615453E-03	8.173232E-05
5.678140E+03	2.635648E-03	8.234472E-05
5.688084E+03	2.658031E-03	8.302525E-05
5.698028E+03	2.682661E-03	8.377573E-05
5.707973E+03	2.709531E-03	8.459593E-05
5.717917E+03	2.738601E-03	8.548450E-05
5.727861E+03	2.769758E-03	8.643791E-05
5.737805E+03	2.802935E-03	8.745406E-05
5.747749E+03	2.837942E-03	8.852693E-05
5.757694E+03	2.874569E-03	8.964999E-05
5.767638E+03	2.912606E-03	9.081662E-05
5.777582E+03	2.951768E-03	9.201793E-05
5.787526E+03	2.991705E-03	9.324299E-05
5.797470E+03	3.032133E-03	9.448296E-05
5.807415E+03	3.072609E-03	9.572403E-05
5.817359E+03	3.112771E-03	9.695490E-05
5.827303E+03	3.152240E-03	9.816381E-05
5.837247E+03	3.190566E-03	9.933678E-05
5.847191E+03	3.227367E-03	1.004620E-04
5.857136E+03	3.262240E-03	1.015268E-04
5.867080E+03	3.294759E-03	1.025181E-04
5.877024E+03	3.324637E-03	1.034270E-04
5.886968E+03	3.351474E-03	1.042411E-04
5.896912E+03	3.375059E-03	1.049539E-04
5.906857E+03	3.395153E-03	1.055580E-04
5.916801E+03	3.411535E-03	1.060467E-04
5.926745E+03	3.424113E-03	1.064171E-04
5.936689E+03	3.432815E-03	1.066671E-04
5.946633E+03	3.437632E-03	1.067965E-04
5.956578E+03	3.438648E-03	1.068080E-04
5.966522E+03	3.435926E-03	1.067036E-04
5.976466E+03	3.429621E-03	1.064881E-04
5.986410E+03	3.419969E-03	1.061690E-04
5.996354E+03	3.407212E-03	1.057538E-04
6.006299E+03	3.391618E-03	1.052509E-04
6.016243E+03	3.373447E-03	1.046684E-04
6.026187E+03	3.353090E-03	1.040186E-04
6.036131E+03	3.330792E-03	1.033089E-04
6.046075E+03	3.306917E-03	1.025507E-04
6.056020E+03	3.281787E-03	1.017541E-04
6.065964E+03	3.255642E-03	1.009265E-04
6.075908E+03	3.228816E-03	1.000783E-04
6.085852E+03	3.201521E-03	9.921605E-05
6.095796E+03	3.174021E-03	9.834789E-05
6.105741E+03	3.146446E-03	9.747788E-05
6.115685E+03	3.118980E-03	9.661175E-05
6.125629E+03	3.091785E-03	9.575449E-05
6.135573E+03	3.064928E-03	9.490815E-05
6.145518E+03	3.038596E-03	9.407852E-05
6.155462E+03	3.012955E-03	9.327075E-05
6.165406E+03	2.988183E-03	9.249034E-05
6.175350E+03	2.964473E-03	9.174322E-05
6.185294E+03	2.941928E-03	9.103258E-05
6.195239E+03	2.920674E-03	9.036229E-05
6.205183E+03	2.900749E-03	8.973351E-05
6.215127E+03	2.882228E-03	8.914853E-05
6.225071E+03	2.865139E-03	8.860820E-05
6.235015E+03	2.849585E-03	8.811567E-05
6.244960E+03	2.835555E-03	8.767056E-05
6.254904E+03	2.823065E-03	8.727343E-05
6.264848E+03	2.812133E-03	8.692469E-05
6.274792E+03	2.802800E-03	8.662569E-05
6.284736E+03	2.795038E-03	8.637548E-05
6.294681E+03	2.788879E-03	8.617505E-05
6.304625E+03	2.784286E-03	8.602323E-05
6.314569E+03	2.781249E-03	8.591972E-05
6.324513E+03	2.779793E-03	8.586525E-05
6.334457E+03	2.779868E-03	8.585824E-05
6.344402E+03	2.781488E-03	8.589914E-05
6.354346E+03	2.784597E-03	8.598619E-05
6.364290E+03	2.789238E-03	8.612071E-05
6.374234E+03	2.795348E-03	8.630074E-05
6.384178E+03	2.802929E-03	8.652632E-05
6.394123E+03	2.811946E-03	8.679638E-05
6.404067E+03	2.822323E-03	8.710852E-05
6.414011E+03	2.833981E-03	8.746030E-05
6.423955E+03	2.846832E-03	8.784904E-05
6.433899E+03	2.860751E-03	8.827084E-05
6.443844E+03	2.875757E-03	8.872628E-05
6.453788E+03	2.891671E-03	8.920984E-05
6.463732E+03	2.908430E-03	8.971953E-05
6.473676E+03	2.925918E-03	9.025185E-05
6.483620E+03	2.944137E-03	9.080681E-05
6.493565E+03	2.962925E-03	9.137940E-05
6.503509E+03	2.982191E-03	9.196683E-05
6.513453E+03	3.001878E-03	9.256736E-05
6.523397E+03	3.021847E-03	9.317668E-05
6.533341E+03	3.042033E-03	9.379277E-05
6.543286E+03	3.062323E-03	9.441219E-05
6.553230E+03	3.082604E-03	9.503145E-05
6.563174E+03	3.102763E-03	9.564704E-05
6.573118E+03	3.122725E-03	9.625670E-05
6.583062E+03	3.142337E-03	9.685566E-05
6.593007E+03	3.161531E-03	9.744189E-05
6.602951E+03	3.180207E-03	9.801226E-05
6.612895E+03	3.198267E-03	9.856382E-05
6.622839E+03	3.215678E-03	9.909547E-05
6.632783E+03	3.232322E-03	9.960366E-05
6.642728E+03	3.248190E-03	1.000881E-04
6.652672E+03	3.263199E-03	1.005462E-04
6.662616E+03	3.277420E-03	1.009802E-04
6.672560E+03	3.290805E-03	1.013886E-04
6.682504E+03	3.303368E-03	1.017719E-04
6.692449E+03	3.315145E-03	1.021311E-04
6.702393E+03	3.326236E-03	1.024693E-04
6.712337E+03	3.336661E-03	1.027873E-04
6.722281E+03	3.346554E-03	1.030890E-04
6.732225E+03	3.355963E-03	1.033760E-04
6.742170E+03	3.365096E-03	1.036547E-04
6.752114E+03	3.373972E-03	1.039257E-04
6.762058E+03	3.382765E-03	1.041944E-04
6.772002E+03	3.391604E-03	1.044646E-04
6.781946E+03	3.400568E-03	1.047389E-04
6.791891E+03	3.409886E-03	1.050243E-04
6.801835E+03	3.419632E-03	1.053232E-04
6.811779E+03	3.429923E-03	1.056390E-04
6.821723E+03	3.440868E-03	1.059752E-04
6.831668E+03	3.452566E-03	1.063347E-04
6.841612E+03	3.465101E-03	1.067203E-04
6.851556E+03	3.478543E-03	1.071341E-04
6.861500E+03	3.492944E-03	1.075776E-04
6.871444E+03	3.508340E-03	1.080520E-04
6.881389E+03	3.524751E-03	1.085578E-04
6.891333E+03	3.542230E-03	1.090969E-04
6.901277E+03	3.560641E-03	1.096649E-04
6.911221E+03	3.580059E-03	1.102641E-04
6.921165E+03	3.600367E-03	1.108910E-04
6.931110E+03	3.621486E-03	1.115432E-04
6.941054E+03	3.643260E-03	1.122158E-04
6.950998E+03	3.665694E-03	1.129090E-04
6.960942E+03	3.688599E-03	1.136170E-04
6.970886E+03	3.711835E-03	1.143356E-04
6.980831E+03	3.735247E-03	1.150598E-04
6.990775E+03	3.758673E-03	1.157848E-04
7.000719E+03	3.781940E-03	1.165052E-04
7.010663E+03	3.804871E-03	1.172155E-04
7.020607E+03	3.827221E-03	1.179084E-04
7.030552E+03	3.848937E-03	1.185820E-04
7.040496E+03	3.869769E-03	1.192287E-04
7.050440E+03	3.889540E-03	1.198431E-04
7.060384E+03	3.908003E-03	1.204175E-04
7.070328E+03	3.925125E-03	1.209510E-04
7.080273E+03	3.940604E-03	1.214342E-04
7.090217E+03	3.954422E-03	1.218665E-04
7.100161E+03	3.966365E-03	1.222415E-04
7.110105E+03	3.976231E-03	1.225528E-04
7.120049E+03	3.984035E-03	1.228008E-04
7.129994E+03	3.989602E-03	1.229803E-04
7.139938E+03	3.992833E-03	1.230881E-04
7.149882E+03	3.993652E-03	1.231220E-04
7.159826E+03	3.992064E-03	1.230819E-04
7.169770E+03	3.987954E-03	1.229644E-04
7.179715E+03	3.981360E-03	1.227706E-04
7.189659E+03	3.972200E-03	1.224980E-04
7.199603E+03	3.960548E-03	1.221489E-04
7.209547E+03	3.946432E-03	1.217240E-04
7.219491E+03	3.929962E-03	1.212269E-04
7.229436E+03	3.911054E-03	1.206547E-04
7.239380E+03	3.889929E-03	1.200144E-04
7.249324E+03	3.866678E-03	1.193088E-04
7.259268E+03	3.841413E-03	1.185412E-04
7.269212E+03	3.814183E-03	1.177131E-04
7.279157E+03	3.785340E-03	1.168355E-04
7.289101E+03	3.754889E-03	1.159084E-04
7.299045E+03	3.722987E-03	1.149366E-04
7.308989E+03	3.689943E-03	1.139297E-04
7.318933E+03	3.655857E-03	1.128908E-04
7.328878E+03	3.620972E-03	1.118273E-04
7.338822E+03	3.585397E-03	1.107426E-04
7.348766E+03	3.549311E-03	1.096422E-04
7.358710E+03	3.512957E-03	1.085335E-04
7.368654E+03	3.476508E-03	1.074220E-04
7.378599E+03	3.440067E-03	1.063108E-04
7.388543E+03	3.403795E-03	1.052049E-04
7.398487E+03	3.367852E-03	1.041091E-04
7.408431E+03	3.332384E-03	1.030281E-04
7.418375E+03	3.297603E-03	1.019684E-04
7.428320E+03	3.263509E-03	1.009299E-04
7.438264E+03	3.230292E-03	9.991862E-05
7.448208E+03	3.198068E-03	9.893805E-05
7.458152E+03	3.166941E-03	9.799146E-05
7.468097E+03	3.136884E-03	9.707801E-05
7.478041E+03	3.108108E-03	9.620425E-05
7.487985E+03	3.080567E-03	9.536878E-05
7.497929E+03	3.054393E-03	9.457566E-05
7.507873E+03	3.029577E-03	9.382468E-05
7.517818E+03	3.006172E-03	9.311745E-05
7.527762E+03	2.984212E-03	9.245508E-05
7.537706E+03	2.963665E-03	9.183653E-05
7.547650E+03	2.944608E-03	9.126422E-05
7.557594E+03	2.926922E-03	9.073450E-05
7.567539E+03	2.910722E-03	9.025096E-05
7.577483E+03	2.895873E-03	8.980939E-05
7.587427E+03	2.882407E-03	8.941086E-05
7.597371E+03	2.870296E-03	8.905446E-05
7.607315E+03	2.859441E-03	8.873715E-05
7.617260E+03	2.849860E-03	8.845953E-05
7.627204E+03	2.841386E-03	8.821642E-05
7.637148E+03	2.834140E-03	8.801160E-05
7.647092E+03	2.827883E-03	8.783763E-05
7.657036E+03	2.822660E-03	8.769599E-05
7.666981E+03	2.818279E-03	8.758067E-05
7.676925E+03	2.814778E-03	8.749290E-05
7.686869E+03	2.812016E-03	8.742831E-05
7.696813E+03	2.809907E-03	8.738421E-05
7.706757E+03	2.808423E-03	8.735977E-05
7.716702E+03	2.807359E-03	8.734860E-05
