#wls	flux	fluxerr
1.591072E+03	3.323677E-06	1.608336E-07
1.630849E+03	3.504507E-06	1.690631E-07
1.670626E+03	3.641076E-06	1.750976E-07
1.710403E+03	3.727530E-06	1.786748E-07
1.750180E+03	3.754692E-06	1.793787E-07
1.789957E+03	3.709173E-06	1.765995E-07
1.829733E+03	3.576259E-06	1.696749E-07
1.869510E+03	3.345675E-06	1.581643E-07
1.909287E+03	3.019193E-06	1.422035E-07
1.949064E+03	2.615039E-06	1.227014E-07
1.988841E+03	2.178072E-06	1.018011E-07
2.028617E+03	1.769966E-06	8.239653E-08
2.068394E+03	1.452090E-06	6.732182E-08
2.108171E+03	1.266651E-06	5.847775E-08
2.147948E+03	1.231700E-06	5.661899E-08
2.187725E+03	1.357121E-06	6.210838E-08
2.227501E+03	1.655476E-06	7.541862E-08
2.267278E+03	2.139437E-06	9.701244E-08
2.307055E+03	2.813489E-06	1.269676E-07
2.346832E+03	3.666338E-06	1.646439E-07
2.386609E+03	4.676840E-06	2.089661E-07
2.426386E+03	5.818901E-06	2.586532E-07
2.466162E+03	7.069472E-06	3.125787E-07
2.505939E+03	8.410076E-06	3.698354E-07
2.545716E+03	9.831006E-06	4.299144E-07
2.585493E+03	1.132747E-05	4.925271E-07
2.625270E+03	1.289746E-05	5.575085E-07
2.665046E+03	1.454588E-05	6.249886E-07
2.704823E+03	1.627651E-05	6.950434E-07
2.744600E+03	1.809677E-05	7.678960E-07
2.784377E+03	2.001567E-05	8.438261E-07
2.824154E+03	2.204352E-05	9.231543E-07
2.863930E+03	2.418567E-05	1.005982E-06
2.903707E+03	2.645680E-05	1.092783E-06
2.943484E+03	2.887002E-05	1.183950E-06
2.983261E+03	3.144710E-05	1.280206E-06
2.993205E+03	3.211953E-05	1.305147E-06
3.003149E+03	3.280571E-05	1.330534E-06
3.013094E+03	3.350604E-05	1.356378E-06
3.023038E+03	3.421934E-05	1.382629E-06
3.032982E+03	3.495463E-05	1.409647E-06
3.042926E+03	3.573002E-05	1.438153E-06
3.052870E+03	3.653583E-05	1.467751E-06
3.062815E+03	3.737896E-05	1.498707E-06
3.072759E+03	3.824977E-05	1.530628E-06
3.082703E+03	3.915124E-05	1.563625E-06
3.092647E+03	4.008227E-05	1.597646E-06
3.102591E+03	4.104186E-05	1.632643E-06
3.112536E+03	4.202914E-05	1.668574E-06
3.122480E+03	4.304791E-05	1.705583E-06
3.132424E+03	4.408813E-05	1.743263E-06
3.142368E+03	4.515858E-05	1.781955E-06
3.152312E+03	4.625885E-05	1.821635E-06
3.162257E+03	4.738360E-05	1.862086E-06
3.172201E+03	4.853746E-05	1.903479E-06
3.182145E+03	4.971503E-05	1.945598E-06
3.192089E+03	5.092653E-05	1.988834E-06
3.202033E+03	5.216140E-05	2.032766E-06
3.211978E+03	5.342486E-05	2.077590E-06
3.221922E+03	5.471694E-05	2.123299E-06
3.231866E+03	5.604345E-05	2.170111E-06
3.241810E+03	5.739908E-05	2.217809E-06
3.251754E+03	5.878408E-05	2.266396E-06
3.261699E+03	6.020461E-05	2.316099E-06
3.271643E+03	6.166135E-05	2.366935E-06
3.281587E+03	6.315489E-05	2.418916E-06
3.291531E+03	6.468598E-05	2.472060E-06
3.301475E+03	6.626165E-05	2.526624E-06
3.311420E+03	6.787658E-05	2.582393E-06
3.321364E+03	6.953165E-05	2.639389E-06
3.331308E+03	7.123426E-05	2.697880E-06
3.341252E+03	7.299227E-05	2.758151E-06
3.351196E+03	7.479369E-05	2.819732E-06
3.361141E+03	7.665322E-05	2.883165E-06
3.371085E+03	7.856546E-05	2.948231E-06
3.381029E+03	8.054577E-05	3.015488E-06
3.390973E+03	8.258183E-05	3.084457E-06
3.400917E+03	8.468948E-05	3.155713E-06
3.410862E+03	8.686330E-05	3.229033E-06
3.420806E+03	8.911236E-05	3.304735E-06
3.430750E+03	9.143872E-05	3.382872E-06
3.440694E+03	9.384429E-05	3.463495E-06
3.450638E+03	9.633874E-05	3.546934E-06
3.460583E+03	9.891665E-05	3.632967E-06
3.470527E+03	1.015878E-04	3.721925E-06
3.480471E+03	1.043545E-04	3.813868E-06
3.490415E+03	1.072270E-04	3.909141E-06
3.500359E+03	1.101996E-04	4.007510E-06
3.510304E+03	1.132830E-04	4.109324E-06
3.520248E+03	1.164794E-04	4.214639E-06
3.530192E+03	1.197912E-04	4.323509E-06
3.540136E+03	1.232294E-04	4.436290E-06
3.550080E+03	1.267879E-04	4.552731E-06
3.560025E+03	1.304776E-04	4.673185E-06
3.569969E+03	1.342921E-04	4.797385E-06
3.579913E+03	1.382512E-04	4.926000E-06
3.589857E+03	1.423483E-04	5.058755E-06
3.599802E+03	1.465856E-04	5.195680E-06
3.609746E+03	1.509648E-04	5.336803E-06
3.619690E+03	1.554969E-04	5.482466E-06
3.629634E+03	1.601744E-04	5.632359E-06
3.639578E+03	1.649984E-04	5.786479E-06
3.649523E+03	1.699893E-04	5.945495E-06
3.659467E+03	1.751290E-04	6.108725E-06
3.669411E+03	1.804179E-04	6.276140E-06
3.679355E+03	1.858760E-04	6.448387E-06
3.689299E+03	1.914836E-04	6.624738E-06
3.699244E+03	1.972502E-04	6.805472E-06
3.709188E+03	2.031648E-04	6.990167E-06
3.719132E+03	2.092362E-04	7.179077E-06
3.729076E+03	2.154627E-04	7.372097E-06
3.739020E+03	2.218420E-04	7.569102E-06
3.748965E+03	2.283606E-04	7.769588E-06
3.758909E+03	2.350253E-04	7.973746E-06
3.768853E+03	2.418212E-04	8.181024E-06
3.778797E+03	2.487539E-04	8.391572E-06
3.788741E+03	2.558066E-04	8.604784E-06
3.798686E+03	2.629724E-04	8.820392E-06
3.808630E+03	2.702434E-04	9.038102E-06
3.818574E+03	2.776109E-04	9.257584E-06
3.828518E+03	2.850649E-04	9.478486E-06
3.838462E+03	2.925835E-04	9.700049E-06
3.848407E+03	3.001773E-04	9.922605E-06
3.858351E+03	3.077995E-04	1.014459E-05
3.868295E+03	3.154592E-04	1.036630E-05
3.878239E+03	3.231308E-04	1.058687E-05
3.888183E+03	3.307879E-04	1.080546E-05
3.898128E+03	3.384387E-04	1.102232E-05
3.908072E+03	3.460335E-04	1.123584E-05
3.918016E+03	3.535803E-04	1.144631E-05
3.927960E+03	3.610527E-04	1.165288E-05
3.937904E+03	3.684359E-04	1.185511E-05
3.947849E+03	3.757042E-04	1.205220E-05
3.957793E+03	3.828441E-04	1.224374E-05
3.967737E+03	3.898545E-04	1.242976E-05
3.977681E+03	3.967006E-04	1.260917E-05
3.987625E+03	4.033720E-04	1.278171E-05
3.997570E+03	4.098716E-04	1.294752E-05
4.007514E+03	4.161804E-04	1.310606E-05
4.017458E+03	4.222928E-04	1.325720E-05
4.027402E+03	4.281937E-04	1.340055E-05
4.037346E+03	4.338821E-04	1.353613E-05
4.047291E+03	4.393599E-04	1.366407E-05
4.057235E+03	4.446323E-04	1.378460E-05
4.067179E+03	4.496960E-04	1.389769E-05
4.077123E+03	4.545628E-04	1.400376E-05
4.087067E+03	4.592473E-04	1.410333E-05
4.097012E+03	4.637550E-04	1.419662E-05
4.106956E+03	4.681153E-04	1.428458E-05
4.116900E+03	4.723366E-04	1.436753E-05
4.126844E+03	4.764284E-04	1.444580E-05
4.136788E+03	4.804222E-04	1.452039E-05
4.146733E+03	4.843284E-04	1.459164E-05
4.156677E+03	4.881788E-04	1.466054E-05
4.166621E+03	4.919732E-04	1.472711E-05
4.176565E+03	4.957436E-04	1.479233E-05
4.186509E+03	4.995006E-04	1.485653E-05
4.196454E+03	5.032759E-04	1.492066E-05
4.206398E+03	5.070703E-04	1.498475E-05
4.216342E+03	5.109259E-04	1.505004E-05
4.226286E+03	5.148440E-04	1.511656E-05
4.236231E+03	5.188566E-04	1.518524E-05
4.246175E+03	5.229856E-04	1.525671E-05
4.256119E+03	5.272327E-04	1.533098E-05
4.266063E+03	5.316398E-04	1.540926E-05
4.276007E+03	5.362277E-04	1.549211E-05
4.285952E+03	5.409968E-04	1.557949E-05
4.295896E+03	5.459754E-04	1.567220E-05
4.305840E+03	5.511808E-04	1.577067E-05
4.315784E+03	5.566181E-04	1.587500E-05
4.325728E+03	5.623107E-04	1.598581E-05
4.335673E+03	5.682699E-04	1.610336E-05
4.345617E+03	5.744950E-04	1.622758E-05
4.355561E+03	5.809927E-04	1.635860E-05
4.365505E+03	5.877565E-04	1.649618E-05
4.375449E+03	5.948084E-04	1.664088E-05
4.385394E+03	6.021276E-04	1.679207E-05
4.395338E+03	6.097101E-04	1.694958E-05
4.405282E+03	6.175483E-04	1.711315E-05
4.415226E+03	6.256329E-04	1.728249E-05
4.425170E+03	6.339505E-04	1.745718E-05
4.435115E+03	6.424649E-04	1.763619E-05
4.445059E+03	6.511651E-04	1.781918E-05
4.455003E+03	6.600382E-04	1.800579E-05
4.464947E+03	6.690367E-04	1.819467E-05
4.474891E+03	6.781495E-04	1.838553E-05
4.484836E+03	6.873229E-04	1.857690E-05
4.494780E+03	6.965278E-04	1.876799E-05
4.504724E+03	7.057244E-04	1.895775E-05
4.514668E+03	7.148575E-04	1.914472E-05
4.524612E+03	7.238830E-04	1.932776E-05
4.534557E+03	7.327530E-04	1.950563E-05
4.544501E+03	7.414214E-04	1.967718E-05
4.554445E+03	7.498327E-04	1.984100E-05
4.564389E+03	7.579534E-04	1.999628E-05
4.574333E+03	7.657230E-04	2.014152E-05
4.584278E+03	7.731275E-04	2.027646E-05
4.594222E+03	7.801038E-04	2.039955E-05
4.604166E+03	7.866589E-04	2.051109E-05
4.614110E+03	7.927428E-04	2.060989E-05
4.624054E+03	7.983440E-04	2.069577E-05
4.633999E+03	8.034799E-04	2.076932E-05
4.643943E+03	8.081219E-04	2.082991E-05
4.653887E+03	8.122906E-04	2.087820E-05
4.663831E+03	8.160147E-04	2.091504E-05
4.673775E+03	8.192985E-04	2.094065E-05
4.683720E+03	8.221748E-04	2.095598E-05
4.693664E+03	8.246914E-04	2.096234E-05
4.703608E+03	8.268824E-04	2.096068E-05
4.713552E+03	8.288077E-04	2.095260E-05
4.723496E+03	8.305181E-04	2.093945E-05
4.733441E+03	8.320667E-04	2.092261E-05
4.743385E+03	8.335068E-04	2.090347E-05
4.753329E+03	8.349129E-04	2.088393E-05
4.763273E+03	8.363357E-04	2.086527E-05
4.773217E+03	8.378274E-04	2.084880E-05
4.783162E+03	8.394285E-04	2.083553E-05
4.793106E+03	8.411879E-04	2.082665E-05
4.803050E+03	8.431325E-04	2.082283E-05
4.812994E+03	8.453290E-04	2.082568E-05
4.822938E+03	8.478000E-04	2.083573E-05
4.832883E+03	8.505857E-04	2.085393E-05
4.842827E+03	8.537405E-04	2.088159E-05
4.852771E+03	8.572743E-04	2.091889E-05
4.862715E+03	8.612072E-04	2.096629E-05
4.872660E+03	8.655746E-04	2.102460E-05
4.882604E+03	8.703695E-04	2.109360E-05
4.892548E+03	8.755862E-04	2.117312E-05
4.902492E+03	8.812242E-04	2.126310E-05
4.912436E+03	8.872664E-04	2.136310E-05
4.922381E+03	8.936836E-04	2.147239E-05
4.932325E+03	9.004719E-04	2.159085E-05
4.942269E+03	9.076072E-04	2.171789E-05
4.952213E+03	9.150556E-04	2.185268E-05
4.962157E+03	9.228040E-04	2.199492E-05
4.972102E+03	9.308307E-04	2.214408E-05
4.982046E+03	9.391290E-04	2.230001E-05
4.991990E+03	9.476880E-04	2.246247E-05
5.001934E+03	9.564955E-04	2.263118E-05
5.011878E+03	9.655784E-04	2.280680E-05
5.021823E+03	9.749327E-04	2.298925E-05
5.031767E+03	9.846027E-04	2.317960E-05
5.041711E+03	9.946235E-04	2.337869E-05
5.051655E+03	1.005022E-03	2.358716E-05
5.061599E+03	1.015849E-03	2.380625E-05
5.071544E+03	1.027160E-03	2.403726E-05
5.081488E+03	1.038973E-03	2.428063E-05
5.091432E+03	1.051351E-03	2.453785E-05
5.101376E+03	1.064317E-03	2.480950E-05
5.111320E+03	1.077914E-03	2.509661E-05
5.121265E+03	1.092162E-03	2.539963E-05
5.131209E+03	1.107094E-03	2.571940E-05
5.141153E+03	1.122729E-03	2.605641E-05
5.151097E+03	1.139082E-03	2.641102E-05
5.161041E+03	1.156162E-03	2.678352E-05
5.170986E+03	1.173972E-03	2.717403E-05
5.180930E+03	1.192507E-03	2.758249E-05
5.190874E+03	1.211757E-03	2.800875E-05
5.200818E+03	1.231715E-03	2.845278E-05
5.210762E+03	1.252332E-03	2.891350E-05
5.220707E+03	1.273598E-03	2.939079E-05
5.230651E+03	1.295470E-03	2.988381E-05
5.240595E+03	1.317870E-03	3.039082E-05
5.250539E+03	1.340762E-03	3.091120E-05
5.260483E+03	1.364072E-03	3.144336E-05
5.270428E+03	1.387707E-03	3.198529E-05
5.280372E+03	1.411572E-03	3.253496E-05
5.290316E+03	1.435580E-03	3.309054E-05
5.300260E+03	1.459607E-03	3.364931E-05
5.310204E+03	1.483548E-03	3.420907E-05
5.320149E+03	1.507262E-03	3.476670E-05
5.330093E+03	1.530630E-03	3.531963E-05
5.340037E+03	1.553497E-03	3.586443E-05
5.349981E+03	1.575732E-03	3.639820E-05
5.359925E+03	1.597160E-03	3.691709E-05
5.369870E+03	1.617639E-03	3.741791E-05
5.379814E+03	1.637000E-03	3.789688E-05
5.389758E+03	1.655059E-03	3.834979E-05
5.399702E+03	1.671665E-03	3.877322E-05
5.409646E+03	1.686635E-03	3.916293E-05
5.419591E+03	1.699845E-03	3.951598E-05
5.429535E+03	1.711113E-03	3.982801E-05
5.439479E+03	1.720296E-03	4.009558E-05
5.449423E+03	1.727299E-03	4.031623E-05
5.459367E+03	1.731969E-03	4.048618E-05
5.469312E+03	1.734229E-03	4.060333E-05
5.479256E+03	1.734007E-03	4.066575E-05
5.489200E+03	1.731269E-03	4.067221E-05
5.499144E+03	1.726014E-03	4.062237E-05
5.509089E+03	1.718341E-03	4.051816E-05
5.519033E+03	1.708385E-03	4.036231E-05
5.528977E+03	1.696430E-03	4.016115E-05
5.538921E+03	1.682757E-03	3.992094E-05
5.548865E+03	1.667798E-03	3.965160E-05
5.558810E+03	1.651989E-03	3.936313E-05
5.568754E+03	1.635831E-03	3.906729E-05
5.578698E+03	1.619810E-03	3.877549E-05
5.588642E+03	1.604424E-03	3.849961E-05
5.598586E+03	1.590107E-03	3.825008E-05
5.608531E+03	1.577291E-03	3.803735E-05
5.618475E+03	1.566335E-03	3.787030E-05
5.628419E+03	1.557585E-03	3.775754E-05
5.638363E+03	1.551320E-03	3.770623E-05
5.648307E+03	1.547816E-03	3.772348E-05
5.658252E+03	1.547305E-03	3.781546E-05
5.668196E+03	1.549960E-03	3.798693E-05
5.678140E+03	1.556007E-03	3.824410E-05
5.688084E+03	1.565561E-03	3.859047E-05
5.698028E+03	1.578787E-03	3.903088E-05
5.707973E+03	1.595799E-03	3.956893E-05
5.717917E+03	1.616654E-03	4.020689E-05
5.727861E+03	1.641393E-03	4.094669E-05
5.737805E+03	1.670005E-03	4.178894E-05
5.747749E+03	1.702429E-03	4.273307E-05
5.757694E+03	1.738485E-03	4.377550E-05
5.767638E+03	1.777994E-03	4.491260E-05
5.777582E+03	1.820640E-03	4.613728E-05
5.787526E+03	1.866025E-03	4.744026E-05
5.797470E+03	1.913723E-03	4.881140E-05
5.807415E+03	1.963149E-03	5.023639E-05
5.817359E+03	2.013694E-03	5.170013E-05
5.827303E+03	2.064672E-03	5.318529E-05
5.837247E+03	2.115342E-03	5.467292E-05
5.847191E+03	2.164955E-03	5.614357E-05
5.857136E+03	2.212787E-03	5.757819E-05
5.867080E+03	2.258113E-03	5.895742E-05
5.877024E+03	2.300268E-03	6.026324E-05
5.886968E+03	2.338633E-03	6.147858E-05
5.896912E+03	2.372657E-03	6.258785E-05
5.906857E+03	2.401852E-03	6.357701E-05
5.916801E+03	2.425768E-03	6.443279E-05
5.926745E+03	2.444175E-03	6.514758E-05
5.936689E+03	2.456817E-03	6.571297E-05
5.946633E+03	2.463681E-03	6.612701E-05
5.956578E+03	2.464915E-03	6.639200E-05
5.966522E+03	2.460827E-03	6.651464E-05
5.976466E+03	2.451820E-03	6.650426E-05
5.986410E+03	2.438530E-03	6.637677E-05
5.996354E+03	2.421613E-03	6.614875E-05
6.006299E+03	2.401753E-03	6.583785E-05
6.016243E+03	2.379661E-03	6.546268E-05
6.026187E+03	2.356021E-03	6.504145E-05
6.036131E+03	2.331453E-03	6.459079E-05
6.046075E+03	2.306564E-03	6.412725E-05
6.056020E+03	2.281835E-03	6.366406E-05
6.065964E+03	2.257730E-03	6.321422E-05
6.075908E+03	2.234648E-03	6.278906E-05
6.085852E+03	2.212907E-03	6.239779E-05
6.095796E+03	2.192776E-03	6.204837E-05
6.105741E+03	2.174491E-03	6.174792E-05
6.115685E+03	2.158218E-03	6.150170E-05
6.125629E+03	2.144072E-03	6.131354E-05
6.135573E+03	2.132090E-03	6.118510E-05
6.145518E+03	2.122275E-03	6.111708E-05
6.155462E+03	2.114578E-03	6.110872E-05
6.165406E+03	2.108930E-03	6.115857E-05
6.175350E+03	2.105190E-03	6.126316E-05
6.185294E+03	2.103220E-03	6.141897E-05
6.195239E+03	2.102825E-03	6.162080E-05
6.205183E+03	2.103765E-03	6.186210E-05
6.215127E+03	2.105816E-03	6.213658E-05
6.225071E+03	2.108763E-03	6.243823E-05
6.235015E+03	2.112404E-03	6.276129E-05
6.244960E+03	2.116516E-03	6.309926E-05
6.254904E+03	2.120997E-03	6.344924E-05
6.264848E+03	2.125696E-03	6.380679E-05
6.274792E+03	2.130523E-03	6.416923E-05
6.284736E+03	2.135481E-03	6.453668E-05
6.294681E+03	2.140551E-03	6.490858E-05
6.304625E+03	2.145798E-03	6.528688E-05
6.314569E+03	2.151235E-03	6.567207E-05
6.324513E+03	2.156934E-03	6.606636E-05
6.334457E+03	2.162973E-03	6.647220E-05
6.344402E+03	2.169393E-03	6.689094E-05
6.354346E+03	2.176276E-03	6.732527E-05
6.364290E+03	2.183695E-03	6.777747E-05
6.374234E+03	2.191673E-03	6.824849E-05
6.384178E+03	2.200211E-03	6.873845E-05
6.394123E+03	2.209302E-03	6.924735E-05
6.404067E+03	2.218890E-03	6.977350E-05
6.414011E+03	2.228933E-03	7.031575E-05
6.423955E+03	2.239330E-03	7.087103E-05
6.433899E+03	2.249995E-03	7.143666E-05
6.443844E+03	2.260837E-03	7.200983E-05
6.453788E+03	2.271810E-03	7.258910E-05
6.463732E+03	2.282850E-03	7.317244E-05
6.473676E+03	2.293864E-03	7.375687E-05
6.483620E+03	2.304793E-03	7.434043E-05
6.493565E+03	2.315630E-03	7.492286E-05
6.503509E+03	2.326312E-03	7.550209E-05
6.513453E+03	2.336758E-03	7.607538E-05
6.523397E+03	2.346927E-03	7.664133E-05
6.533341E+03	2.356684E-03	7.719539E-05
6.543286E+03	2.365886E-03	7.773277E-05
6.553230E+03	2.374377E-03	7.824809E-05
6.563174E+03	2.382002E-03	7.873601E-05
6.573118E+03	2.388564E-03	7.918974E-05
6.583062E+03	2.393855E-03	7.960202E-05
6.593007E+03	2.397685E-03	7.996613E-05
6.602951E+03	2.399802E-03	8.027317E-05
6.612895E+03	2.400111E-03	8.051948E-05
6.622839E+03	2.398419E-03	8.069799E-05
6.632783E+03	2.394671E-03	8.080623E-05
6.642728E+03	2.388882E-03	8.084414E-05
6.652672E+03	2.381075E-03	8.081184E-05
6.662616E+03	2.371374E-03	8.071302E-05
6.672560E+03	2.359897E-03	8.055115E-05
6.682504E+03	2.346885E-03	8.033389E-05
6.692449E+03	2.332535E-03	8.006762E-05
6.702393E+03	2.317113E-03	7.976112E-05
6.712337E+03	2.300918E-03	7.942436E-05
6.722281E+03	2.284298E-03	7.906921E-05
6.732225E+03	2.267596E-03	7.870745E-05
6.742170E+03	2.251143E-03	7.835054E-05
6.752114E+03	2.235351E-03	7.801299E-05
6.762058E+03	2.220559E-03	7.770687E-05
6.772002E+03	2.207105E-03	7.744427E-05
6.781946E+03	2.195416E-03	7.724064E-05
6.791891E+03	2.185752E-03	7.710564E-05
6.801835E+03	2.178483E-03	7.705293E-05
6.811779E+03	2.173873E-03	7.709255E-05
6.821723E+03	2.172226E-03	7.723604E-05
6.831668E+03	2.173683E-03	7.748926E-05
6.841612E+03	2.178507E-03	7.786249E-05
6.851556E+03	2.186791E-03	7.835995E-05
6.861500E+03	2.198670E-03	7.898744E-05
6.871444E+03	2.214209E-03	7.974828E-05
6.881389E+03	2.233400E-03	8.064321E-05
6.891333E+03	2.256271E-03	8.167417E-05
6.901277E+03	2.282698E-03	8.283764E-05
6.911221E+03	2.312585E-03	8.413110E-05
6.921165E+03	2.345759E-03	8.554916E-05
6.931110E+03	2.381995E-03	8.708439E-05
6.941054E+03	2.421004E-03	8.872703E-05
6.950998E+03	2.462409E-03	9.046394E-05
6.960942E+03	2.505851E-03	9.228249E-05
6.970886E+03	2.550904E-03	9.416748E-05
6.980831E+03	2.597118E-03	9.610258E-05
6.990775E+03	2.644020E-03	9.807056E-05
7.000719E+03	2.691203E-03	1.000564E-04
7.010663E+03	2.738323E-03	1.020473E-04
7.020607E+03	2.784974E-03	1.040281E-04
7.030552E+03	2.830799E-03	1.059852E-04
7.040496E+03	2.875447E-03	1.079052E-04
7.050440E+03	2.918586E-03	1.097752E-04
7.060384E+03	2.959916E-03	1.115836E-04
7.070328E+03	2.999179E-03	1.133200E-04
7.080273E+03	3.036138E-03	1.149750E-04
7.090217E+03	3.070676E-03	1.165434E-04
7.100161E+03	3.102741E-03	1.180227E-04
7.110105E+03	3.132354E-03	1.194129E-04
7.120049E+03	3.159396E-03	1.207089E-04
7.129994E+03	3.183979E-03	1.219143E-04
7.139938E+03	3.205939E-03	1.230222E-04
7.149882E+03	3.225204E-03	1.240291E-04
7.159826E+03	3.241601E-03	1.249277E-04
7.169770E+03	3.254867E-03	1.257071E-04
7.179715E+03	3.264730E-03	1.263559E-04
7.189659E+03	3.270885E-03	1.268616E-04
7.199603E+03	3.272964E-03	1.272088E-04
7.209547E+03	3.270621E-03	1.273832E-04
7.219491E+03	3.263484E-03	1.273690E-04
7.229436E+03	3.251296E-03	1.271552E-04
7.239380E+03	3.233741E-03	1.267281E-04
7.249324E+03	3.210668E-03	1.260805E-04
7.259268E+03	3.182027E-03	1.252092E-04
7.269212E+03	3.147907E-03	1.241163E-04
7.279157E+03	3.108444E-03	1.228060E-04
7.289101E+03	3.064004E-03	1.212916E-04
7.299045E+03	3.015108E-03	1.195924E-04
7.308989E+03	2.962345E-03	1.177311E-04
7.318933E+03	2.906381E-03	1.157331E-04
7.328878E+03	2.847859E-03	1.136236E-04
7.338822E+03	2.787409E-03	1.114271E-04
7.348766E+03	2.725660E-03	1.091684E-04
7.358710E+03	2.663182E-03	1.068702E-04
7.368654E+03	2.600424E-03	1.045504E-04
7.378599E+03	2.537871E-03	1.022285E-04
7.388543E+03	2.475843E-03	9.991753E-05
7.398487E+03	2.414695E-03	9.763207E-05
7.408431E+03	2.354707E-03	9.538373E-05
7.418375E+03	2.296141E-03	9.318339E-05
7.428320E+03	2.239164E-03	9.103822E-05
7.438264E+03	2.183961E-03	8.895619E-05
7.448208E+03	2.130689E-03	8.694415E-05
7.458152E+03	2.079440E-03	8.500632E-05
7.468097E+03	2.030314E-03	8.314726E-05
7.478041E+03	1.983353E-03	8.136927E-05
7.487985E+03	1.938588E-03	7.967405E-05
7.497929E+03	1.896072E-03	7.806440E-05
7.507873E+03	1.855798E-03	7.654049E-05
7.517818E+03	1.817722E-03	7.510104E-05
7.527762E+03	1.781857E-03	7.374711E-05
7.537706E+03	1.748136E-03	7.247639E-05
7.547650E+03	1.716552E-03	7.128914E-05
7.557594E+03	1.687025E-03	7.018247E-05
7.567539E+03	1.659508E-03	6.915487E-05
7.577483E+03	1.633908E-03	6.820296E-05
7.587427E+03	1.610188E-03	6.732558E-05
7.597371E+03	1.588264E-03	6.651964E-05
7.607315E+03	1.568026E-03	6.578093E-05
7.617260E+03	1.549379E-03	6.510579E-05
7.627204E+03	1.532268E-03	6.449230E-05
7.637148E+03	1.516575E-03	6.393577E-05
7.647092E+03	1.502198E-03	6.343226E-05
7.657036E+03	1.489038E-03	6.297783E-05
7.666981E+03	1.477018E-03	6.256942E-05
7.676925E+03	1.466019E-03	6.220231E-05
7.686869E+03	1.455943E-03	6.187254E-05
7.696813E+03	1.446718E-03	6.157718E-05
7.706757E+03	1.438231E-03	6.131167E-05
7.716702E+03	1.430394E-03	6.107235E-05
