#wls	flux	fluxerr
1.591072E+03	3.708581E-06	1.133746E-07
1.630849E+03	3.921041E-06	1.195438E-07
1.670626E+03	4.085446E-06	1.242080E-07
1.710403E+03	4.194114E-06	1.271455E-07
1.750180E+03	4.236962E-06	1.280652E-07
1.789957E+03	4.198358E-06	1.265134E-07
1.829733E+03	4.060054E-06	1.219643E-07
1.869510E+03	3.810229E-06	1.140928E-07
1.909287E+03	3.448487E-06	1.029210E-07
1.949064E+03	2.996661E-06	8.913366E-08
1.988841E+03	2.503138E-06	7.419550E-08
2.028617E+03	2.039622E-06	6.024065E-08
2.068394E+03	1.677847E-06	4.937388E-08
2.108171E+03	1.467048E-06	4.300816E-08
2.147948E+03	1.429749E-06	4.175262E-08
2.187725E+03	1.578079E-06	4.590125E-08
2.227501E+03	1.928180E-06	5.585586E-08
2.267278E+03	2.495279E-06	7.198101E-08
2.307055E+03	3.285194E-06	9.436019E-08
2.346832E+03	4.286459E-06	1.225760E-07
2.386609E+03	5.472683E-06	1.557883E-07
2.426386E+03	6.817269E-06	1.931615E-07
2.466162E+03	8.292098E-06	2.338282E-07
2.505939E+03	9.877323E-06	2.771655E-07
2.545716E+03	1.156262E-05	3.228252E-07
2.585493E+03	1.334543E-05	3.706792E-07
2.625270E+03	1.522221E-05	4.205710E-07
2.665046E+03	1.719949E-05	4.726214E-07
2.704823E+03	1.928773E-05	5.270529E-07
2.744600E+03	2.149723E-05	5.840752E-07
2.784377E+03	2.383613E-05	6.438305E-07
2.824154E+03	2.632802E-05	7.068686E-07
2.863930E+03	2.898816E-05	7.734988E-07
2.903707E+03	3.183224E-05	8.440289E-07
2.943484E+03	3.489080E-05	9.191442E-07
2.983261E+03	3.818800E-05	9.993374E-07
2.993205E+03	3.905043E-05	1.020183E-06
3.003149E+03	3.993561E-05	1.041538E-06
3.013094E+03	4.083329E-05	1.063133E-06
3.023038E+03	4.175755E-05	1.085330E-06
3.032982E+03	4.271417E-05	1.108276E-06
3.042926E+03	4.371538E-05	1.132282E-06
3.052870E+03	4.475926E-05	1.157293E-06
3.062815E+03	4.584991E-05	1.183407E-06
3.072759E+03	4.697396E-05	1.210274E-06
3.082703E+03	4.814784E-05	1.238310E-06
3.092647E+03	4.935201E-05	1.267007E-06
3.102591E+03	5.059736E-05	1.296639E-06
3.112536E+03	5.188286E-05	1.327172E-06
3.122480E+03	5.320098E-05	1.358409E-06
3.132424E+03	5.455716E-05	1.390482E-06
3.142368E+03	5.595052E-05	1.423364E-06
3.152312E+03	5.737338E-05	1.456852E-06
3.162257E+03	5.883864E-05	1.491270E-06
3.172201E+03	6.033174E-05	1.526242E-06
3.182145E+03	6.185887E-05	1.561919E-06
3.192089E+03	6.342682E-05	1.598467E-06
3.202033E+03	6.502785E-05	1.635685E-06
3.211978E+03	6.665382E-05	1.673362E-06
3.221922E+03	6.832707E-05	1.712053E-06
3.231866E+03	7.003211E-05	1.751364E-06
3.241810E+03	7.176855E-05	1.791279E-06
3.251754E+03	7.354400E-05	1.831983E-06
3.261699E+03	7.535846E-05	1.873468E-06
3.271643E+03	7.720360E-05	1.915522E-06
3.281587E+03	7.908746E-05	1.958337E-06
3.291531E+03	8.101858E-05	2.002118E-06
3.301475E+03	8.298873E-05	2.046654E-06
3.311420E+03	8.498910E-05	2.091722E-06
3.321364E+03	8.704604E-05	2.137963E-06
3.331308E+03	8.914224E-05	2.184942E-06
3.341252E+03	9.127776E-05	2.232655E-06
3.351196E+03	9.346173E-05	2.281318E-06
3.361141E+03	9.569448E-05	2.330930E-06
3.371085E+03	9.797631E-05	2.381489E-06
3.381029E+03	1.003075E-04	2.432993E-06
3.390973E+03	1.026882E-04	2.485439E-06
3.400917E+03	1.051283E-04	2.539055E-06
3.410862E+03	1.076184E-04	2.593607E-06
3.420806E+03	1.101686E-04	2.649325E-06
3.430750E+03	1.127692E-04	2.705967E-06
3.440694E+03	1.154403E-04	2.764005E-06
3.450638E+03	1.181721E-04	2.823195E-06
3.460583E+03	1.209545E-04	2.883284E-06
3.470527E+03	1.238184E-04	2.944997E-06
3.480471E+03	1.267433E-04	3.007832E-06
3.490415E+03	1.297291E-04	3.071778E-06
3.500359E+03	1.327861E-04	3.137067E-06
3.510304E+03	1.359247E-04	3.203932E-06
3.520248E+03	1.391237E-04	3.271858E-06
3.530192E+03	1.424039E-04	3.341324E-06
3.540136E+03	1.457542E-04	3.412056E-06
3.550080E+03	1.491850E-04	3.484282E-06
3.560025E+03	1.526957E-04	3.557974E-06
3.569969E+03	1.562744E-04	3.632844E-06
3.579913E+03	1.599425E-04	3.709370E-06
3.589857E+03	1.636877E-04	3.787258E-06
3.599802E+03	1.675201E-04	3.866725E-06
3.609746E+03	1.714273E-04	3.947467E-06
3.619690E+03	1.754189E-04	4.029693E-06
3.629634E+03	1.794820E-04	4.113092E-06
3.639578E+03	1.836373E-04	4.198126E-06
3.649523E+03	1.878717E-04	4.284475E-06
3.659467E+03	1.921943E-04	4.372336E-06
3.669411E+03	1.965912E-04	4.461375E-06
3.679355E+03	2.010714E-04	4.551783E-06
3.689299E+03	2.056205E-04	4.643219E-06
3.699244E+03	2.102587E-04	4.736124E-06
3.709188E+03	2.149711E-04	4.830151E-06
3.719132E+03	2.197543E-04	4.925207E-06
3.729076E+03	2.246046E-04	5.021197E-06
3.739020E+03	2.295300E-04	5.118286E-06
3.748965E+03	2.345264E-04	5.216370E-06
3.758909E+03	2.395777E-04	5.315079E-06
3.768853E+03	2.447033E-04	5.414830E-06
3.778797E+03	2.498748E-04	5.514985E-06
3.788741E+03	2.551111E-04	5.615951E-06
3.798686E+03	2.603956E-04	5.717349E-06
3.808630E+03	2.657350E-04	5.819321E-06
3.818574E+03	2.711124E-04	5.921485E-06
3.828518E+03	2.765226E-04	6.023720E-06
3.838462E+03	2.819721E-04	6.126163E-06
3.848407E+03	2.874558E-04	6.228696E-06
3.858351E+03	2.929683E-04	6.331194E-06
3.868295E+03	2.984927E-04	6.433289E-06
3.878239E+03	3.040356E-04	6.535120E-06
3.888183E+03	3.096036E-04	6.636829E-06
3.898128E+03	3.151687E-04	6.737806E-06
3.908072E+03	3.207378E-04	6.838204E-06
3.918016E+03	3.263181E-04	6.938176E-06
3.927960E+03	3.318825E-04	7.037141E-06
3.937904E+03	3.374388E-04	7.135273E-06
3.947849E+03	3.429839E-04	7.232503E-06
3.957793E+03	3.485264E-04	7.329019E-06
3.967737E+03	3.540411E-04	7.424291E-06
3.977681E+03	3.595267E-04	7.518299E-06
3.987625E+03	3.650049E-04	7.611501E-06
3.997570E+03	3.704528E-04	7.703425E-06
4.007514E+03	3.758714E-04	7.794095E-06
4.017458E+03	3.812732E-04	7.883779E-06
4.027402E+03	3.866606E-04	7.972529E-06
4.037346E+03	3.920150E-04	8.059966E-06
4.047291E+03	3.973516E-04	8.146415E-06
4.057235E+03	4.026760E-04	8.231987E-06
4.067179E+03	4.079833E-04	8.316593E-06
4.077123E+03	4.132810E-04	8.400387E-06
4.087067E+03	4.185878E-04	8.483754E-06
4.097012E+03	4.238913E-04	8.566443E-06
4.106956E+03	4.292013E-04	8.648656E-06
4.116900E+03	4.345284E-04	8.730605E-06
4.126844E+03	4.398939E-04	8.812720E-06
4.136788E+03	4.452785E-04	8.894609E-06
4.146733E+03	4.507048E-04	8.976724E-06
4.156677E+03	4.561858E-04	9.059317E-06
4.166621E+03	4.617237E-04	9.142428E-06
4.176565E+03	4.673323E-04	9.226322E-06
4.186509E+03	4.730052E-04	9.310863E-06
4.196454E+03	4.787666E-04	9.396522E-06
4.206398E+03	4.846308E-04	9.483565E-06
4.216342E+03	4.905912E-04	9.571851E-06
4.226286E+03	4.966533E-04	9.661475E-06
4.236231E+03	5.028409E-04	9.752887E-06
4.246175E+03	5.091579E-04	9.846142E-06
4.256119E+03	5.156084E-04	9.941307E-06
4.266063E+03	5.221965E-04	1.003844E-05
4.276007E+03	5.289256E-04	1.013759E-05
4.285952E+03	5.358171E-04	1.023915E-05
4.295896E+03	5.428640E-04	1.034296E-05
4.305840E+03	5.500677E-04	1.044903E-05
4.315784E+03	5.574290E-04	1.055735E-05
4.325728E+03	5.649660E-04	1.066825E-05
4.335673E+03	5.726579E-04	1.078132E-05
4.345617E+03	5.805120E-04	1.089666E-05
4.355561E+03	5.885338E-04	1.101438E-05
4.365505E+03	5.966975E-04	1.113396E-05
4.375449E+03	6.050244E-04	1.125579E-05
4.385394E+03	6.134862E-04	1.137932E-05
4.395338E+03	6.220705E-04	1.150431E-05
4.405282E+03	6.307831E-04	1.163087E-05
4.415226E+03	6.396075E-04	1.175867E-05
4.425170E+03	6.485258E-04	1.188737E-05
4.435115E+03	6.575260E-04	1.201677E-05
4.445059E+03	6.665869E-04	1.214647E-05
4.455003E+03	6.756834E-04	1.227600E-05
4.464947E+03	6.848190E-04	1.240545E-05
4.474891E+03	6.939662E-04	1.253431E-05
4.484836E+03	7.030956E-04	1.266205E-05
4.494780E+03	7.121969E-04	1.278852E-05
4.504724E+03	7.212477E-04	1.291331E-05
4.514668E+03	7.302269E-04	1.303608E-05
4.524612E+03	7.391104E-04	1.315640E-05
4.534557E+03	7.478760E-04	1.327392E-05
4.544501E+03	7.565097E-04	1.338840E-05
4.554445E+03	7.649787E-04	1.349931E-05
4.564389E+03	7.732817E-04	1.360664E-05
4.574333E+03	7.813856E-04	1.370987E-05
4.584278E+03	7.892619E-04	1.380851E-05
4.594222E+03	7.969213E-04	1.390282E-05
4.604166E+03	8.043278E-04	1.399219E-05
4.614110E+03	8.114765E-04	1.407660E-05
4.624054E+03	8.183561E-04	1.415589E-05
4.633999E+03	8.249571E-04	1.422995E-05
4.643943E+03	8.312820E-04	1.429887E-05
4.653887E+03	8.373172E-04	1.436246E-05
4.663831E+03	8.430610E-04	1.442075E-05
4.673775E+03	8.485237E-04	1.447396E-05
4.683720E+03	8.536985E-04	1.452203E-05
4.693664E+03	8.586005E-04	1.456526E-05
4.703608E+03	8.632258E-04	1.460362E-05
4.713552E+03	8.675721E-04	1.463714E-05
4.723496E+03	8.716707E-04	1.466637E-05
4.733441E+03	8.755119E-04	1.469120E-05
4.743385E+03	8.791173E-04	1.471203E-05
4.753329E+03	8.825029E-04	1.472917E-05
4.763273E+03	8.856838E-04	1.474290E-05
4.773217E+03	8.886911E-04	1.475378E-05
4.783162E+03	8.915362E-04	1.476202E-05
4.793106E+03	8.942663E-04	1.476844E-05
4.803050E+03	8.969205E-04	1.477369E-05
4.812994E+03	8.995168E-04	1.477810E-05
4.822938E+03	9.021055E-04	1.478248E-05
4.832883E+03	9.047242E-04	1.478748E-05
4.842827E+03	9.073894E-04	1.479335E-05
4.852771E+03	9.101368E-04	1.480066E-05
4.862715E+03	9.129992E-04	1.480993E-05
4.872660E+03	9.159984E-04	1.482152E-05
4.882604E+03	9.191635E-04	1.483585E-05
4.892548E+03	9.225123E-04	1.485321E-05
4.902492E+03	9.260703E-04	1.487398E-05
4.912436E+03	9.298305E-04	1.489803E-05
4.922381E+03	9.338356E-04	1.492601E-05
4.932325E+03	9.380874E-04	1.495792E-05
4.942269E+03	9.425945E-04	1.499387E-05
4.952213E+03	9.473771E-04	1.503416E-05
4.962157E+03	9.524434E-04	1.507889E-05
4.972102E+03	9.577901E-04	1.512797E-05
4.982046E+03	9.634456E-04	1.518182E-05
4.991990E+03	9.694060E-04	1.524035E-05
5.001934E+03	9.756789E-04	1.530365E-05
5.011878E+03	9.822815E-04	1.537196E-05
5.021823E+03	9.892099E-04	1.544518E-05
5.031767E+03	9.964927E-04	1.552372E-05
5.041711E+03	1.004102E-03	1.560713E-05
5.051655E+03	1.012078E-03	1.569598E-05
5.061599E+03	1.020413E-03	1.579014E-05
5.071544E+03	1.029101E-03	1.588947E-05
5.081488E+03	1.038167E-03	1.599434E-05
5.091432E+03	1.047590E-03	1.610438E-05
5.101376E+03	1.057391E-03	1.621990E-05
5.111320E+03	1.067559E-03	1.634066E-05
5.121265E+03	1.078087E-03	1.646657E-05
5.131209E+03	1.088968E-03	1.659748E-05
5.141153E+03	1.100194E-03	1.673323E-05
5.151097E+03	1.111750E-03	1.687359E-05
5.161041E+03	1.123634E-03	1.701847E-05
5.170986E+03	1.135815E-03	1.716741E-05
5.180930E+03	1.148270E-03	1.732003E-05
5.190874E+03	1.160974E-03	1.747596E-05
5.200818E+03	1.173898E-03	1.763472E-05
5.210762E+03	1.187012E-03	1.779585E-05
5.220707E+03	1.200278E-03	1.795881E-05
5.230651E+03	1.213672E-03	1.812321E-05
5.240595E+03	1.227126E-03	1.828804E-05
5.250539E+03	1.240620E-03	1.845301E-05
5.260483E+03	1.254083E-03	1.861707E-05
5.270428E+03	1.267476E-03	1.877966E-05
5.280372E+03	1.280746E-03	1.894002E-05
5.290316E+03	1.293839E-03	1.909736E-05
5.300260E+03	1.306698E-03	1.925087E-05
5.310204E+03	1.319265E-03	1.939973E-05
5.320149E+03	1.331466E-03	1.954290E-05
5.330093E+03	1.343243E-03	1.967955E-05
5.340037E+03	1.354563E-03	1.980926E-05
5.349981E+03	1.365326E-03	1.993061E-05
5.359925E+03	1.375506E-03	2.004328E-05
5.369870E+03	1.385049E-03	2.014652E-05
5.379814E+03	1.393893E-03	2.023953E-05
5.389758E+03	1.401997E-03	2.032173E-05
5.399702E+03	1.409324E-03	2.039266E-05
5.409646E+03	1.415847E-03	2.045198E-05
5.419591E+03	1.421546E-03	2.049946E-05
5.429535E+03	1.426409E-03	2.053497E-05
5.439479E+03	1.430437E-03	2.055858E-05
5.449423E+03	1.433626E-03	2.057028E-05
5.459367E+03	1.436013E-03	2.057065E-05
5.469312E+03	1.437617E-03	2.056003E-05
5.479256E+03	1.438501E-03	2.053934E-05
5.489200E+03	1.438710E-03	2.050927E-05
5.499144E+03	1.438316E-03	2.047087E-05
5.509089E+03	1.437416E-03	2.042557E-05
5.519033E+03	1.436091E-03	2.037454E-05
5.528977E+03	1.434474E-03	2.031965E-05
5.538921E+03	1.432633E-03	2.026191E-05
5.548865E+03	1.430731E-03	2.020360E-05
5.558810E+03	1.428877E-03	2.014627E-05
5.568754E+03	1.427200E-03	2.009171E-05
5.578698E+03	1.425840E-03	2.004187E-05
5.588642E+03	1.424899E-03	1.999814E-05
5.598586E+03	1.424515E-03	1.996244E-05
5.608531E+03	1.424821E-03	1.993658E-05
5.618475E+03	1.425906E-03	1.992175E-05
5.628419E+03	1.427905E-03	1.991976E-05
5.638363E+03	1.430889E-03	1.993156E-05
5.648307E+03	1.434973E-03	1.995867E-05
5.658252E+03	1.440209E-03	2.000173E-05
5.668196E+03	1.446673E-03	2.006174E-05
5.678140E+03	1.454421E-03	2.013937E-05
5.688084E+03	1.463473E-03	2.023484E-05
5.698028E+03	1.473854E-03	2.034839E-05
5.707973E+03	1.485581E-03	2.048018E-05
5.717917E+03	1.498631E-03	2.062979E-05
5.727861E+03	1.512985E-03	2.079691E-05
5.737805E+03	1.528566E-03	2.098036E-05
5.747749E+03	1.545316E-03	2.117931E-05
5.757694E+03	1.563144E-03	2.139240E-05
5.767638E+03	1.581936E-03	2.161806E-05
5.777582E+03	1.601545E-03	2.185418E-05
5.787526E+03	1.621830E-03	2.209881E-05
5.797470E+03	1.642588E-03	2.234913E-05
5.807415E+03	1.663660E-03	2.260297E-05
5.817359E+03	1.684827E-03	2.285734E-05
5.827303E+03	1.705859E-03	2.310911E-05
5.837247E+03	1.726552E-03	2.335554E-05
5.847191E+03	1.746667E-03	2.359339E-05
5.857136E+03	1.766000E-03	2.381998E-05
5.867080E+03	1.784326E-03	2.403232E-05
5.877024E+03	1.801430E-03	2.422756E-05
5.886968E+03	1.817167E-03	2.440384E-05
5.896912E+03	1.831348E-03	2.455870E-05
5.906857E+03	1.843861E-03	2.469074E-05
5.916801E+03	1.854592E-03	2.479854E-05
5.926745E+03	1.863477E-03	2.488134E-05
5.936689E+03	1.870503E-03	2.493908E-05
5.946633E+03	1.875640E-03	2.497146E-05
5.956578E+03	1.878962E-03	2.497959E-05
5.966522E+03	1.880502E-03	2.496403E-05
5.976466E+03	1.880396E-03	2.492665E-05
5.986410E+03	1.878728E-03	2.486869E-05
5.996354E+03	1.875644E-03	2.479216E-05
6.006299E+03	1.871338E-03	2.469972E-05
6.016243E+03	1.865945E-03	2.459320E-05
6.026187E+03	1.859660E-03	2.447524E-05
6.036131E+03	1.852663E-03	2.434827E-05
6.046075E+03	1.845130E-03	2.421465E-05
6.056020E+03	1.837220E-03	2.407646E-05
6.065964E+03	1.829129E-03	2.393634E-05
6.075908E+03	1.820980E-03	2.379588E-05
6.085852E+03	1.812949E-03	2.365740E-05
6.095796E+03	1.805131E-03	2.352212E-05
6.105741E+03	1.797641E-03	2.339155E-05
6.115685E+03	1.790599E-03	2.326723E-05
6.125629E+03	1.784053E-03	2.314975E-05
6.135573E+03	1.778042E-03	2.303961E-05
6.145518E+03	1.772604E-03	2.293728E-05
6.155462E+03	1.767800E-03	2.284352E-05
6.165406E+03	1.763656E-03	2.275862E-05
6.175350E+03	1.760220E-03	2.268320E-05
6.185294E+03	1.757525E-03	2.261765E-05
6.195239E+03	1.755537E-03	2.256145E-05
6.205183E+03	1.754244E-03	2.251443E-05
6.215127E+03	1.753619E-03	2.247617E-05
6.225071E+03	1.753607E-03	2.244591E-05
6.235015E+03	1.754126E-03	2.242257E-05
6.244960E+03	1.755120E-03	2.240539E-05
6.254904E+03	1.756529E-03	2.239356E-05
6.264848E+03	1.758242E-03	2.238564E-05
6.274792E+03	1.760215E-03	2.238103E-05
6.284736E+03	1.762374E-03	2.237879E-05
6.294681E+03	1.764635E-03	2.237779E-05
6.304625E+03	1.766969E-03	2.237768E-05
6.314569E+03	1.769283E-03	2.237725E-05
6.324513E+03	1.771564E-03	2.237634E-05
6.334457E+03	1.773768E-03	2.237435E-05
6.344402E+03	1.775836E-03	2.237057E-05
6.354346E+03	1.777773E-03	2.236504E-05
6.364290E+03	1.779533E-03	2.235717E-05
6.374234E+03	1.781107E-03	2.234687E-05
6.384178E+03	1.782459E-03	2.233366E-05
6.394123E+03	1.783571E-03	2.231733E-05
6.404067E+03	1.784463E-03	2.229813E-05
6.414011E+03	1.785070E-03	2.227526E-05
6.423955E+03	1.785398E-03	2.224880E-05
6.433899E+03	1.785422E-03	2.221843E-05
6.443844E+03	1.785132E-03	2.218405E-05
6.453788E+03	1.784505E-03	2.214538E-05
6.463732E+03	1.783517E-03	2.210212E-05
6.473676E+03	1.782201E-03	2.205472E-05
6.483620E+03	1.780572E-03	2.200335E-05
6.493565E+03	1.778664E-03	2.194848E-05
6.503509E+03	1.776456E-03	2.188982E-05
6.513453E+03	1.773983E-03	2.182784E-05
6.523397E+03	1.771262E-03	2.176274E-05
6.533341E+03	1.768287E-03	2.169449E-05
6.543286E+03	1.765059E-03	2.162309E-05
6.553230E+03	1.761592E-03	2.154873E-05
6.563174E+03	1.757885E-03	2.147142E-05
6.573118E+03	1.753957E-03	2.139140E-05
6.583062E+03	1.749772E-03	2.130826E-05
6.593007E+03	1.745374E-03	2.122253E-05
6.602951E+03	1.740752E-03	2.113410E-05
6.612895E+03	1.735936E-03	2.104336E-05
6.622839E+03	1.730946E-03	2.095056E-05
6.632783E+03	1.725806E-03	2.085601E-05
6.642728E+03	1.720525E-03	2.075982E-05
6.652672E+03	1.715178E-03	2.066293E-05
6.662616E+03	1.709791E-03	2.056565E-05
6.672560E+03	1.704396E-03	2.046837E-05
6.682504E+03	1.699087E-03	2.037225E-05
6.692449E+03	1.693911E-03	2.027784E-05
6.702393E+03	1.688957E-03	2.018622E-05
6.712337E+03	1.684285E-03	2.009808E-05
6.722281E+03	1.679975E-03	2.001438E-05
6.732225E+03	1.676130E-03	1.993635E-05
6.742170E+03	1.672818E-03	1.986478E-05
6.752114E+03	1.670150E-03	1.980095E-05
6.762058E+03	1.668195E-03	1.974568E-05
6.772002E+03	1.667061E-03	1.970021E-05
6.781946E+03	1.666817E-03	1.966530E-05
6.791891E+03	1.667583E-03	1.964236E-05
6.801835E+03	1.669382E-03	1.963161E-05
6.811779E+03	1.672343E-03	1.963452E-05
6.821723E+03	1.676498E-03	1.965141E-05
6.831668E+03	1.681921E-03	1.968312E-05
6.841612E+03	1.688666E-03	1.973022E-05
6.851556E+03	1.696772E-03	1.979312E-05
6.861500E+03	1.706250E-03	1.987190E-05
6.871444E+03	1.717142E-03	1.996697E-05
6.881389E+03	1.729455E-03	2.007839E-05
6.891333E+03	1.743166E-03	2.020585E-05
6.901277E+03	1.758281E-03	2.034935E-05
6.911221E+03	1.774750E-03	2.050830E-05
6.921165E+03	1.792577E-03	2.068271E-05
6.931110E+03	1.811647E-03	2.087120E-05
6.941054E+03	1.831935E-03	2.107350E-05
6.950998E+03	1.853366E-03	2.128870E-05
6.960942E+03	1.875828E-03	2.151553E-05
6.970886E+03	1.899218E-03	2.175282E-05
6.980831E+03	1.923449E-03	2.199957E-05
6.990775E+03	1.948375E-03	2.225414E-05
7.000719E+03	1.973862E-03	2.251504E-05
7.010663E+03	1.999767E-03	2.278068E-05
7.020607E+03	2.025944E-03	2.304946E-05
7.030552E+03	2.052210E-03	2.331937E-05
7.040496E+03	2.078455E-03	2.358922E-05
7.050440E+03	2.104464E-03	2.385667E-05
7.060384E+03	2.130092E-03	2.412018E-05
7.070328E+03	2.155150E-03	2.437771E-05
7.080273E+03	2.179465E-03	2.462741E-05
7.090217E+03	2.202895E-03	2.486781E-05
7.100161E+03	2.225251E-03	2.509691E-05
7.110105E+03	2.246367E-03	2.531295E-05
7.120049E+03	2.266088E-03	2.551434E-05
7.129994E+03	2.284231E-03	2.569914E-05
7.139938E+03	2.300676E-03	2.586616E-05
7.149882E+03	2.315282E-03	2.601394E-05
7.159826E+03	2.327892E-03	2.614085E-05
7.169770E+03	2.338382E-03	2.624564E-05
7.179715E+03	2.346640E-03	2.632718E-05
7.189659E+03	2.352600E-03	2.638484E-05
7.199603E+03	2.356122E-03	2.641715E-05
7.209547E+03	2.357167E-03	2.642380E-05
7.219491E+03	2.355660E-03	2.640401E-05
7.229436E+03	2.351632E-03	2.635823E-05
7.239380E+03	2.344992E-03	2.628546E-05
7.249324E+03	2.335813E-03	2.618658E-05
7.259268E+03	2.324107E-03	2.606177E-05
7.269212E+03	2.309964E-03	2.591203E-05
7.279157E+03	2.293415E-03	2.573769E-05
7.289101E+03	2.274623E-03	2.554058E-05
7.299045E+03	2.253655E-03	2.532141E-05
7.308989E+03	2.230714E-03	2.508240E-05
7.318933E+03	2.205897E-03	2.482458E-05
7.328878E+03	2.179433E-03	2.455043E-05
7.338822E+03	2.151442E-03	2.426123E-05
7.348766E+03	2.122158E-03	2.395952E-05
7.358710E+03	2.091741E-03	2.364698E-05
7.368654E+03	2.060346E-03	2.332528E-05
7.378599E+03	2.028206E-03	2.299691E-05
7.388543E+03	1.995495E-03	2.266375E-05
7.398487E+03	1.962332E-03	2.232702E-05
7.408431E+03	1.928904E-03	2.198873E-05
7.418375E+03	1.895359E-03	2.165047E-05
7.428320E+03	1.861870E-03	2.131409E-05
7.438264E+03	1.828519E-03	2.098044E-05
7.448208E+03	1.795455E-03	2.065111E-05
7.458152E+03	1.762769E-03	2.032700E-05
7.468097E+03	1.730611E-03	2.000968E-05
7.478041E+03	1.699030E-03	1.969958E-05
7.487985E+03	1.668115E-03	1.939763E-05
7.497929E+03	1.637962E-03	1.910482E-05
7.507873E+03	1.608618E-03	1.882164E-05
7.517818E+03	1.580145E-03	1.854872E-05
7.527762E+03	1.552593E-03	1.828661E-05
7.537706E+03	1.526028E-03	1.803602E-05
7.547650E+03	1.500462E-03	1.779710E-05
7.557594E+03	1.475944E-03	1.757040E-05
7.567539E+03	1.452452E-03	1.735567E-05
7.577483E+03	1.430031E-03	1.715346E-05
7.587427E+03	1.408660E-03	1.696355E-05
7.597371E+03	1.388345E-03	1.678603E-05
7.607315E+03	1.369045E-03	1.662047E-05
7.617260E+03	1.350729E-03	1.646652E-05
7.627204E+03	1.333377E-03	1.632399E-05
7.637148E+03	1.316927E-03	1.619220E-05
7.647092E+03	1.301352E-03	1.607083E-05
7.657036E+03	1.286585E-03	1.595915E-05
7.666981E+03	1.272597E-03	1.585682E-05
7.676925E+03	1.259322E-03	1.576309E-05
7.686869E+03	1.246747E-03	1.567783E-05
7.696813E+03	1.234794E-03	1.560013E-05
7.706757E+03	1.223419E-03	1.552946E-05
7.716702E+03	1.212615E-03	1.546577E-05
