#wls	flux	fluxerr
1.591072E+03	4.758173E-06	1.467831E-07
1.630849E+03	5.081721E-06	1.566220E-07
1.670626E+03	5.349708E-06	1.647280E-07
1.710403E+03	5.548115E-06	1.706741E-07
1.750180E+03	5.664375E-06	1.740796E-07
1.789957E+03	5.670331E-06	1.740873E-07
1.829733E+03	5.540820E-06	1.699354E-07
1.869510E+03	5.254088E-06	1.609706E-07
1.909287E+03	4.804652E-06	1.470411E-07
1.949064E+03	4.216666E-06	1.289026E-07
1.988841E+03	3.557646E-06	1.086321E-07
2.028617E+03	2.927175E-06	8.927598E-08
2.068394E+03	2.431182E-06	7.405951E-08
2.108171E+03	2.145493E-06	6.527622E-08
2.147948E+03	2.109611E-06	6.410342E-08
2.187725E+03	2.349198E-06	7.129119E-08
2.227501E+03	2.894671E-06	8.772813E-08
2.267278E+03	3.776716E-06	1.143045E-07
2.307055E+03	5.012265E-06	1.514878E-07
2.346832E+03	6.588932E-06	1.988561E-07
2.386609E+03	8.476380E-06	2.554462E-07
2.426386E+03	1.063424E-05	3.199967E-07
2.466162E+03	1.302466E-05	3.913273E-07
2.505939E+03	1.562095E-05	4.685976E-07
2.545716E+03	1.840813E-05	5.513221E-07
2.585493E+03	2.137866E-05	6.392386E-07
2.625270E+03	2.453947E-05	7.325179E-07
2.665046E+03	2.789736E-05	8.313232E-07
2.704823E+03	3.146668E-05	9.360402E-07
2.744600E+03	3.526986E-05	1.047290E-06
2.784377E+03	3.932205E-05	1.165472E-06
2.824154E+03	4.364916E-05	1.291298E-06
2.863930E+03	4.827878E-05	1.425523E-06
2.903707E+03	5.323226E-05	1.568708E-06
2.943484E+03	5.853613E-05	1.721561E-06
2.983261E+03	6.423080E-05	1.885188E-06
2.993205E+03	6.571550E-05	1.927766E-06
3.003149E+03	6.722868E-05	1.971130E-06
3.013094E+03	6.876252E-05	2.015049E-06
3.023038E+03	7.032994E-05	2.059899E-06
3.032982E+03	7.194920E-05	2.106213E-06
3.042926E+03	7.364038E-05	2.154576E-06
3.052870E+03	7.539975E-05	2.204876E-06
3.062815E+03	7.721509E-05	2.256751E-06
3.072759E+03	7.909999E-05	2.310595E-06
3.082703E+03	8.104261E-05	2.366060E-06
3.092647E+03	8.303968E-05	2.423046E-06
3.102591E+03	8.508801E-05	2.481458E-06
3.112536E+03	8.718443E-05	2.541200E-06
3.122480E+03	8.932589E-05	2.602180E-06
3.132424E+03	9.151885E-05	2.664585E-06
3.142368E+03	9.375113E-05	2.728056E-06
3.152312E+03	9.602949E-05	2.792788E-06
3.162257E+03	9.834160E-05	2.858420E-06
3.172201E+03	1.006946E-04	2.925157E-06
3.182145E+03	1.030760E-04	2.992633E-06
3.192089E+03	1.054931E-04	3.061061E-06
3.202033E+03	1.079437E-04	3.130372E-06
3.211978E+03	1.104255E-04	3.200496E-06
3.221922E+03	1.129254E-04	3.271057E-06
3.231866E+03	1.154624E-04	3.342596E-06
3.241810E+03	1.180128E-04	3.414432E-06
3.251754E+03	1.205960E-04	3.487121E-06
3.261699E+03	1.231991E-04	3.560286E-06
3.271643E+03	1.258198E-04	3.633864E-06
3.281587E+03	1.284672E-04	3.708114E-06
3.291531E+03	1.311282E-04	3.782655E-06
3.301475E+03	1.338119E-04	3.857751E-06
3.311420E+03	1.365051E-04	3.933017E-06
3.321364E+03	1.392287E-04	4.009055E-06
3.331308E+03	1.419579E-04	4.085149E-06
3.341252E+03	1.446905E-04	4.161236E-06
3.351196E+03	1.474480E-04	4.237932E-06
3.361141E+03	1.502286E-04	4.315183E-06
3.371085E+03	1.530069E-04	4.392259E-06
3.381029E+03	1.558045E-04	4.469780E-06
3.390973E+03	1.586078E-04	4.547352E-06
3.400917E+03	1.614147E-04	4.624916E-06
3.410862E+03	1.642473E-04	4.703103E-06
3.420806E+03	1.670795E-04	4.781168E-06
3.430750E+03	1.699215E-04	4.859396E-06
3.440694E+03	1.727713E-04	4.937731E-06
3.450638E+03	1.756266E-04	5.016110E-06
3.460583E+03	1.784855E-04	5.094474E-06
3.470527E+03	1.813579E-04	5.173105E-06
3.480471E+03	1.842295E-04	5.251595E-06
3.490415E+03	1.871101E-04	5.330222E-06
3.500359E+03	1.899974E-04	5.408921E-06
3.510304E+03	1.928769E-04	5.487279E-06
3.520248E+03	1.957704E-04	5.565912E-06
3.530192E+03	1.986513E-04	5.644064E-06
3.540136E+03	2.015410E-04	5.722347E-06
3.550080E+03	2.044368E-04	5.800681E-06
3.560025E+03	2.073242E-04	5.878651E-06
3.569969E+03	2.102002E-04	5.956176E-06
3.579913E+03	2.130740E-04	6.033515E-06
3.589857E+03	2.159546E-04	6.110924E-06
3.599802E+03	2.188151E-04	6.187639E-06
3.609746E+03	2.216762E-04	6.264247E-06
3.619690E+03	2.245229E-04	6.340324E-06
3.629634E+03	2.273521E-04	6.415779E-06
3.639578E+03	2.301837E-04	6.491181E-06
3.649523E+03	2.329910E-04	6.565775E-06
3.659467E+03	2.357824E-04	6.639794E-06
3.669411E+03	2.385543E-04	6.713141E-06
3.679355E+03	2.413031E-04	6.785716E-06
3.689299E+03	2.440367E-04	6.857740E-06
3.699244E+03	2.467401E-04	6.928793E-06
3.709188E+03	2.494209E-04	6.999088E-06
3.719132E+03	2.520751E-04	7.068520E-06
3.729076E+03	2.546883E-04	7.136678E-06
3.739020E+03	2.572784E-04	7.204074E-06
3.748965E+03	2.598308E-04	7.270295E-06
3.758909E+03	2.623417E-04	7.335237E-06
3.768853E+03	2.648074E-04	7.398801E-06
3.778797E+03	2.672347E-04	7.461180E-06
3.788741E+03	2.696095E-04	7.521978E-06
3.798686E+03	2.719486E-04	7.581674E-06
3.808630E+03	2.742278E-04	7.639586E-06
3.818574E+03	2.764435E-04	7.695627E-06
3.828518E+03	2.786125E-04	7.750263E-06
3.838462E+03	2.807211E-04	7.803116E-06
3.848407E+03	2.827658E-04	7.854094E-06
3.858351E+03	2.847434E-04	7.903109E-06
3.868295E+03	2.866505E-04	7.950075E-06
3.878239E+03	2.884840E-04	7.994909E-06
3.888183E+03	2.902501E-04	8.037786E-06
3.898128E+03	2.919361E-04	8.078358E-06
3.908072E+03	2.935389E-04	8.116546E-06
3.918016E+03	2.950558E-04	8.152282E-06
3.927960E+03	2.964849E-04	8.185517E-06
3.937904E+03	2.978249E-04	8.216221E-06
3.947849E+03	2.990757E-04	8.244396E-06
3.957793E+03	3.002385E-04	8.270083E-06
3.967737E+03	3.013159E-04	8.293359E-06
3.977681E+03	3.023041E-04	8.314121E-06
3.987625E+03	3.032173E-04	8.332773E-06
3.997570E+03	3.040555E-04	8.349311E-06
4.007514E+03	3.048364E-04	8.364232E-06
4.017458E+03	3.055563E-04	8.377436E-06
4.027402E+03	3.062371E-04	8.389529E-06
4.037346E+03	3.068872E-04	8.400740E-06
4.047291E+03	3.075246E-04	8.411565E-06
4.057235E+03	3.081686E-04	8.422535E-06
4.067179E+03	3.088326E-04	8.434013E-06
4.077123E+03	3.095450E-04	8.446776E-06
4.087067E+03	3.103137E-04	8.461032E-06
4.097012E+03	3.111610E-04	8.477388E-06
4.106956E+03	3.121159E-04	8.496629E-06
4.116900E+03	3.131804E-04	8.518801E-06
4.126844E+03	3.143900E-04	8.544862E-06
4.136788E+03	3.157466E-04	8.574857E-06
4.146733E+03	3.172850E-04	8.609717E-06
4.156677E+03	3.190131E-04	8.649649E-06
4.166621E+03	3.209519E-04	8.695207E-06
4.176565E+03	3.231158E-04	8.746766E-06
4.186509E+03	3.255253E-04	8.804870E-06
4.196454E+03	3.281953E-04	8.869902E-06
4.206398E+03	3.311409E-04	8.942255E-06
4.216342E+03	3.343905E-04	9.022678E-06
4.226286E+03	3.379551E-04	9.111445E-06
4.236231E+03	3.418529E-04	9.209027E-06
4.246175E+03	3.461211E-04	9.316406E-06
4.256119E+03	3.507676E-04	9.433770E-06
4.266063E+03	3.558194E-04	9.561817E-06
4.276007E+03	3.613103E-04	9.701430E-06
4.285952E+03	3.672630E-04	9.853188E-06
4.295896E+03	3.737014E-04	1.001770E-05
4.305840E+03	3.806632E-04	1.019596E-05
4.315784E+03	3.881761E-04	1.038865E-05
4.325728E+03	3.962759E-04	1.059671E-05
4.335673E+03	4.050008E-04	1.082111E-05
4.345617E+03	4.143906E-04	1.106289E-05
4.355561E+03	4.244934E-04	1.132326E-05
4.365505E+03	4.353436E-04	1.160313E-05
4.375449E+03	4.469805E-04	1.190346E-05
4.385394E+03	4.594469E-04	1.222537E-05
4.395338E+03	4.727676E-04	1.256944E-05
4.405282E+03	4.869735E-04	1.293645E-05
4.415226E+03	5.020658E-04	1.332637E-05
4.425170E+03	5.180616E-04	1.373960E-05
4.435115E+03	5.349341E-04	1.417538E-05
4.445059E+03	5.526681E-04	1.463323E-05
4.455003E+03	5.711981E-04	1.511138E-05
4.464947E+03	5.904567E-04	1.560799E-05
4.474891E+03	6.103411E-04	1.612030E-05
4.484836E+03	6.307034E-04	1.664437E-05
4.494780E+03	6.513746E-04	1.717571E-05
4.504724E+03	6.721458E-04	1.770881E-05
4.514668E+03	6.927826E-04	1.823748E-05
4.524612E+03	7.130247E-04	1.875489E-05
4.534557E+03	7.325670E-04	1.925305E-05
4.544501E+03	7.511117E-04	1.972419E-05
4.554445E+03	7.683558E-04	2.016042E-05
4.564389E+03	7.840076E-04	2.055418E-05
4.574333E+03	7.977831E-04	2.089815E-05
4.584278E+03	8.094720E-04	2.118693E-05
4.594222E+03	8.189072E-04	2.141629E-05
4.604166E+03	8.259708E-04	2.158330E-05
4.614110E+03	8.306335E-04	2.168735E-05
4.624054E+03	8.328986E-04	2.172868E-05
4.633999E+03	8.328652E-04	2.171003E-05
4.643943E+03	8.306437E-04	2.163442E-05
4.653887E+03	8.264186E-04	2.150679E-05
4.663831E+03	8.203764E-04	2.133213E-05
4.673775E+03	8.127744E-04	2.111723E-05
4.683720E+03	8.038407E-04	2.086811E-05
4.693664E+03	7.938543E-04	2.059210E-05
4.703608E+03	7.830732E-04	2.029595E-05
4.713552E+03	7.717639E-04	1.998660E-05
4.723496E+03	7.601815E-04	1.967070E-05
4.733441E+03	7.485655E-04	1.935445E-05
4.743385E+03	7.371172E-04	1.904306E-05
4.753329E+03	7.260366E-04	1.874167E-05
4.763273E+03	7.154768E-04	1.845421E-05
4.773217E+03	7.056019E-04	1.818488E-05
4.783162E+03	6.965280E-04	1.793662E-05
4.793106E+03	6.883697E-04	1.771234E-05
4.803050E+03	6.812006E-04	1.751386E-05
4.812994E+03	6.751099E-04	1.734342E-05
4.822938E+03	6.701380E-04	1.720199E-05
4.832883E+03	6.663524E-04	1.709122E-05
4.842827E+03	6.637765E-04	1.701166E-05
4.852771E+03	6.624463E-04	1.696415E-05
4.862715E+03	6.623807E-04	1.694908E-05
4.872660E+03	6.635757E-04	1.696630E-05
4.882604E+03	6.660142E-04	1.701527E-05
4.892548E+03	6.696576E-04	1.709495E-05
4.902492E+03	6.744438E-04	1.720368E-05
4.912436E+03	6.802617E-04	1.733855E-05
4.922381E+03	6.870137E-04	1.749703E-05
4.932325E+03	6.945520E-04	1.767530E-05
4.942269E+03	7.027486E-04	1.787006E-05
4.952213E+03	7.114587E-04	1.807759E-05
4.962157E+03	7.205390E-04	1.829423E-05
4.972102E+03	7.298871E-04	1.851735E-05
4.982046E+03	7.393913E-04	1.874413E-05
4.991990E+03	7.489967E-04	1.897314E-05
5.001934E+03	7.586493E-04	1.920304E-05
5.011878E+03	7.683564E-04	1.943399E-05
5.021823E+03	7.781386E-04	1.966653E-05
5.031767E+03	7.880372E-04	1.990169E-05
5.041711E+03	7.981314E-04	2.014147E-05
5.051655E+03	8.085036E-04	2.038793E-05
5.061599E+03	8.192322E-04	2.064305E-05
5.071544E+03	8.304104E-04	2.090914E-05
5.081488E+03	8.421200E-04	2.118826E-05
5.091432E+03	8.544022E-04	2.148139E-05
5.101376E+03	8.673051E-04	2.178974E-05
5.111320E+03	8.808514E-04	2.211382E-05
5.121265E+03	8.950579E-04	2.245405E-05
5.131209E+03	9.099061E-04	2.280991E-05
5.141153E+03	9.253739E-04	2.318083E-05
5.151097E+03	9.414355E-04	2.356613E-05
5.161041E+03	9.580367E-04	2.396443E-05
5.170986E+03	9.751335E-04	2.437460E-05
5.180930E+03	9.926555E-04	2.479487E-05
5.190874E+03	1.010557E-03	2.522408E-05
5.200818E+03	1.028747E-03	2.565993E-05
5.210762E+03	1.047148E-03	2.610049E-05
5.220707E+03	1.065694E-03	2.654413E-05
5.230651E+03	1.084285E-03	2.698833E-05
5.240595E+03	1.102817E-03	2.743054E-05
5.250539E+03	1.121191E-03	2.786827E-05
5.260483E+03	1.139271E-03	2.829820E-05
5.270428E+03	1.156924E-03	2.871699E-05
5.280372E+03	1.174017E-03	2.912144E-05
5.290316E+03	1.190408E-03	2.950805E-05
5.300260E+03	1.205961E-03	2.987345E-05
5.310204E+03	1.220548E-03	3.021453E-05
5.320149E+03	1.234050E-03	3.052844E-05
5.330093E+03	1.246372E-03	3.081288E-05
5.340037E+03	1.257445E-03	3.106619E-05
5.349981E+03	1.267192E-03	3.128653E-05
5.359925E+03	1.275573E-03	3.147301E-05
5.369870E+03	1.282551E-03	3.162476E-05
5.379814E+03	1.288096E-03	3.174115E-05
5.389758E+03	1.292192E-03	3.182181E-05
5.399702E+03	1.294825E-03	3.186649E-05
5.409646E+03	1.295971E-03	3.187465E-05
5.419591E+03	1.295594E-03	3.184551E-05
5.429535E+03	1.293643E-03	3.177784E-05
5.439479E+03	1.290007E-03	3.166902E-05
5.449423E+03	1.284552E-03	3.151582E-05
5.459367E+03	1.277089E-03	3.131370E-05
5.469312E+03	1.267427E-03	3.105805E-05
5.479256E+03	1.255393E-03	3.074475E-05
5.489200E+03	1.240828E-03	3.036998E-05
5.499144E+03	1.223669E-03	2.993233E-05
5.509089E+03	1.203965E-03	2.943308E-05
5.519033E+03	1.181891E-03	2.887663E-05
5.528977E+03	1.157692E-03	2.826905E-05
5.538921E+03	1.131766E-03	2.762013E-05
5.548865E+03	1.104548E-03	2.694054E-05
5.558810E+03	1.076516E-03	2.624198E-05
5.568754E+03	1.048189E-03	2.553713E-05
5.578698E+03	1.020069E-03	2.483822E-05
5.588642E+03	9.926191E-04	2.415648E-05
5.598586E+03	9.662674E-04	2.350230E-05
5.608531E+03	9.413930E-04	2.288484E-05
5.618475E+03	9.183172E-04	2.231183E-05
5.628419E+03	8.973036E-04	2.178962E-05
5.638363E+03	8.785582E-04	2.132310E-05
5.648307E+03	8.622550E-04	2.091640E-05
5.658252E+03	8.485404E-04	2.057298E-05
5.668196E+03	8.375081E-04	2.029499E-05
5.678140E+03	8.292624E-04	2.008488E-05
5.688084E+03	8.238521E-04	1.994370E-05
5.698028E+03	8.213254E-04	1.987252E-05
5.707973E+03	8.217210E-04	1.987216E-05
5.717917E+03	8.250394E-04	1.994255E-05
5.727861E+03	8.312611E-04	2.008310E-05
5.737805E+03	8.403598E-04	2.029307E-05
5.747749E+03	8.522688E-04	2.057076E-05
5.757694E+03	8.668868E-04	2.091363E-05
5.767638E+03	8.840525E-04	2.131771E-05
5.777582E+03	9.035845E-04	2.177854E-05
5.787526E+03	9.252150E-04	2.228961E-05
5.797470E+03	9.486581E-04	2.284395E-05
5.807415E+03	9.735772E-04	2.343343E-05
5.817359E+03	9.995898E-04	2.404881E-05
5.827303E+03	1.026306E-03	2.468068E-05
5.837247E+03	1.053305E-03	2.531890E-05
5.847191E+03	1.080154E-03	2.595310E-05
5.857136E+03	1.106460E-03	2.657385E-05
5.867080E+03	1.131808E-03	2.717119E-05
5.877024E+03	1.155822E-03	2.773619E-05
5.886968E+03	1.178173E-03	2.826096E-05
5.896912E+03	1.198551E-03	2.873815E-05
5.906857E+03	1.216681E-03	2.916124E-05
5.916801E+03	1.232336E-03	2.952484E-05
5.926745E+03	1.245387E-03	2.982598E-05
5.936689E+03	1.255743E-03	3.006251E-05
5.946633E+03	1.263399E-03	3.023443E-05
5.956578E+03	1.268445E-03	3.034396E-05
5.966522E+03	1.271042E-03	3.039501E-05
5.976466E+03	1.271462E-03	3.039419E-05
5.986410E+03	1.269999E-03	3.034852E-05
5.996354E+03	1.267038E-03	3.026730E-05
6.006299E+03	1.262985E-03	3.016023E-05
6.016243E+03	1.258288E-03	3.003805E-05
6.026187E+03	1.253379E-03	2.991110E-05
6.036131E+03	1.248700E-03	2.978990E-05
6.046075E+03	1.244698E-03	2.968511E-05
6.056020E+03	1.241798E-03	2.960684E-05
6.065964E+03	1.240376E-03	2.956406E-05
6.075908E+03	1.240809E-03	2.956569E-05
6.085852E+03	1.243429E-03	2.961963E-05
6.095796E+03	1.248504E-03	2.973221E-05
6.105741E+03	1.256319E-03	2.991017E-05
6.115685E+03	1.267065E-03	3.015801E-05
6.125629E+03	1.280920E-03	3.047989E-05
6.135573E+03	1.297980E-03	3.087810E-05
6.145518E+03	1.318243E-03	3.135251E-05
6.155462E+03	1.341604E-03	3.190060E-05
6.165406E+03	1.367771E-03	3.251538E-05
6.175350E+03	1.396386E-03	3.318831E-05
6.185294E+03	1.426920E-03	3.390680E-05
6.195239E+03	1.458810E-03	3.465748E-05
6.205183E+03	1.491346E-03	3.542351E-05
6.215127E+03	1.523808E-03	3.618773E-05
6.225071E+03	1.555495E-03	3.693356E-05
6.235015E+03	1.585693E-03	3.764405E-05
6.244960E+03	1.613726E-03	3.830321E-05
6.254904E+03	1.639061E-03	3.889842E-05
6.264848E+03	1.661253E-03	3.941916E-05
6.274792E+03	1.679971E-03	3.985761E-05
6.284736E+03	1.695000E-03	4.020873E-05
6.294681E+03	1.706276E-03	4.047102E-05
6.304625E+03	1.713829E-03	4.064526E-05
6.314569E+03	1.717770E-03	4.073408E-05
6.324513E+03	1.718344E-03	4.074335E-05
6.334457E+03	1.715783E-03	4.067859E-05
6.344402E+03	1.710435E-03	4.054804E-05
6.354346E+03	1.702628E-03	4.035949E-05
6.364290E+03	1.692704E-03	4.012109E-05
6.374234E+03	1.680952E-03	3.983965E-05
6.384178E+03	1.667679E-03	3.952248E-05
6.394123E+03	1.653111E-03	3.917493E-05
6.404067E+03	1.637482E-03	3.880254E-05
6.414011E+03	1.620962E-03	3.840933E-05
6.423955E+03	1.603708E-03	3.799899E-05
6.433899E+03	1.585833E-03	3.757423E-05
6.443844E+03	1.567455E-03	3.713781E-05
6.453788E+03	1.548676E-03	3.669214E-05
6.463732E+03	1.529556E-03	3.623865E-05
6.473676E+03	1.510189E-03	3.577952E-05
6.483620E+03	1.490645E-03	3.531645E-05
6.493565E+03	1.470980E-03	3.485072E-05
6.503509E+03	1.451282E-03	3.438439E-05
6.513453E+03	1.431603E-03	3.391872E-05
6.523397E+03	1.411993E-03	3.345488E-05
6.533341E+03	1.392528E-03	3.299466E-05
6.543286E+03	1.373251E-03	3.253903E-05
6.553230E+03	1.354196E-03	3.208884E-05
6.563174E+03	1.335420E-03	3.164541E-05
6.573118E+03	1.316963E-03	3.120966E-05
6.583062E+03	1.298842E-03	3.078205E-05
6.593007E+03	1.281091E-03	3.036330E-05
6.602951E+03	1.263738E-03	2.995411E-05
6.612895E+03	1.246828E-03	2.955552E-05
6.622839E+03	1.230362E-03	2.916758E-05
6.632783E+03	1.214400E-03	2.879169E-05
6.642728E+03	1.198976E-03	2.842864E-05
6.652672E+03	1.184111E-03	2.807895E-05
6.662616E+03	1.169856E-03	2.774380E-05
6.672560E+03	1.156249E-03	2.742412E-05
6.682504E+03	1.143332E-03	2.712087E-05
6.692449E+03	1.131134E-03	2.683477E-05
6.702393E+03	1.119738E-03	2.656778E-05
6.712337E+03	1.109153E-03	2.632011E-05
6.722281E+03	1.099453E-03	2.609353E-05
6.732225E+03	1.090689E-03	2.588924E-05
6.742170E+03	1.082925E-03	2.570877E-05
6.752114E+03	1.076188E-03	2.555278E-05
6.762058E+03	1.070544E-03	2.542284E-05
6.772002E+03	1.066057E-03	2.532049E-05
6.781946E+03	1.062766E-03	2.524666E-05
6.791891E+03	1.060747E-03	2.520314E-05
6.801835E+03	1.060009E-03	2.519020E-05
6.811779E+03	1.060635E-03	2.520982E-05
6.821723E+03	1.062655E-03	2.526273E-05
6.831668E+03	1.066120E-03	2.535017E-05
6.841612E+03	1.071041E-03	2.547241E-05
6.851556E+03	1.077474E-03	2.563079E-05
6.861500E+03	1.085430E-03	2.582565E-05
6.871444E+03	1.094943E-03	2.605778E-05
6.881389E+03	1.106023E-03	2.632748E-05
6.891333E+03	1.118662E-03	2.663457E-05
6.901277E+03	1.132882E-03	2.697959E-05
6.911221E+03	1.148639E-03	2.736157E-05
6.921165E+03	1.165922E-03	2.778024E-05
6.931110E+03	1.184694E-03	2.823479E-05
6.941054E+03	1.204893E-03	2.872374E-05
6.950998E+03	1.226487E-03	2.924642E-05
6.960942E+03	1.249408E-03	2.980118E-05
6.970886E+03	1.273542E-03	3.038538E-05
6.980831E+03	1.298809E-03	3.099714E-05
6.990775E+03	1.325117E-03	3.163430E-05
7.000719E+03	1.352312E-03	3.229319E-05
7.010663E+03	1.380290E-03	3.297138E-05
7.020607E+03	1.408897E-03	3.366526E-05
7.030552E+03	1.437931E-03	3.436996E-05
7.040496E+03	1.467238E-03	3.508188E-05
7.050440E+03	1.496598E-03	3.579574E-05
7.060384E+03	1.525790E-03	3.650628E-05
7.070328E+03	1.554596E-03	3.720833E-05
7.080273E+03	1.582750E-03	3.789547E-05
7.090217E+03	1.610008E-03	3.856191E-05
7.100161E+03	1.636061E-03	3.920020E-05
7.110105E+03	1.660686E-03	3.980499E-05
7.120049E+03	1.683534E-03	4.036789E-05
7.129994E+03	1.704352E-03	4.088281E-05
7.139938E+03	1.722845E-03	4.134260E-05
7.149882E+03	1.738690E-03	4.173949E-05
7.159826E+03	1.751611E-03	4.206675E-05
7.169770E+03	1.761295E-03	4.231679E-05
7.179715E+03	1.767484E-03	4.248337E-05
7.189659E+03	1.769919E-03	4.256008E-05
7.199603E+03	1.768339E-03	4.254060E-05
7.209547E+03	1.762597E-03	4.242123E-05
7.219491E+03	1.752492E-03	4.219702E-05
7.229436E+03	1.737972E-03	4.186657E-05
7.239380E+03	1.718987E-03	4.142849E-05
7.249324E+03	1.695578E-03	4.088365E-05
7.259268E+03	1.667891E-03	4.023541E-05
7.269212E+03	1.636115E-03	3.948816E-05
7.279157E+03	1.600567E-03	3.864939E-05
7.289101E+03	1.561625E-03	3.772807E-05
7.299045E+03	1.519722E-03	3.673456E-05
7.308989E+03	1.475420E-03	3.568226E-05
7.318933E+03	1.429248E-03	3.458392E-05
7.328878E+03	1.381820E-03	3.345427E-05
7.338822E+03	1.333802E-03	3.230939E-05
7.348766E+03	1.285772E-03	3.116320E-05
7.358710E+03	1.238369E-03	3.003119E-05
7.368654E+03	1.192180E-03	2.892762E-05
7.378599E+03	1.147733E-03	2.786530E-05
7.388543E+03	1.105499E-03	2.685576E-05
7.398487E+03	1.065917E-03	2.590969E-05
7.408431E+03	1.029313E-03	2.503512E-05
7.418375E+03	9.959672E-04	2.423903E-05
7.428320E+03	9.660266E-04	2.352506E-05
7.438264E+03	9.395469E-04	2.289474E-05
7.448208E+03	9.164494E-04	2.234629E-05
7.458152E+03	8.965490E-04	2.187534E-05
7.468097E+03	8.796786E-04	2.147794E-05
7.478041E+03	8.655865E-04	2.114808E-05
7.487985E+03	8.540428E-04	2.088027E-05
7.497929E+03	8.448347E-04	2.066941E-05
7.507873E+03	8.377722E-04	2.051097E-05
7.517818E+03	8.326882E-04	2.040095E-05
7.527762E+03	8.294230E-04	2.033552E-05
7.537706E+03	8.278529E-04	2.031176E-05
7.547650E+03	8.278420E-04	2.032640E-05
7.557594E+03	8.292719E-04	2.037661E-05
7.567539E+03	8.320258E-04	2.045962E-05
7.577483E+03	8.359994E-04	2.057290E-05
7.587427E+03	8.410536E-04	2.071312E-05
7.597371E+03	8.470819E-04	2.087770E-05
7.607315E+03	8.539529E-04	2.106347E-05
7.617260E+03	8.615572E-04	2.126776E-05
7.627204E+03	8.697711E-04	2.148757E-05
7.637148E+03	8.784575E-04	2.171954E-05
7.647092E+03	8.875010E-04	2.196086E-05
7.657036E+03	8.967625E-04	2.220809E-05
7.666981E+03	9.061270E-04	2.245840E-05
7.676925E+03	9.154700E-04	2.270871E-05
7.686869E+03	9.246578E-04	2.295571E-05
7.696813E+03	9.335739E-04	2.319648E-05
7.706757E+03	9.421212E-04	2.342861E-05
7.716702E+03	9.501981E-04	2.364953E-05
