#wls	flux	fluxerr
1.591072E+03	4.696871E-06	1.850517E-07
1.630849E+03	5.012897E-06	1.974576E-07
1.670626E+03	5.273775E-06	2.076847E-07
1.710403E+03	5.465809E-06	2.151953E-07
1.750180E+03	5.576789E-06	2.195105E-07
1.789957E+03	5.579163E-06	2.195483E-07
1.829733E+03	5.449445E-06	2.143880E-07
1.869510E+03	5.163409E-06	2.030808E-07
1.909287E+03	4.719032E-06	1.855524E-07
1.949064E+03	4.139239E-06	1.627094E-07
1.988841E+03	3.490480E-06	1.371679E-07
2.028617E+03	2.870473E-06	1.127699E-07
2.068394E+03	2.382523E-06	9.357199E-08
2.108171E+03	2.101629E-06	8.251459E-08
2.147948E+03	2.065266E-06	8.106125E-08
2.187725E+03	2.298976E-06	9.020512E-08
2.227501E+03	2.830853E-06	1.110376E-07
2.267278E+03	3.692410E-06	1.447823E-07
2.307055E+03	4.898383E-06	1.920027E-07
2.346832E+03	6.436938E-06	2.522201E-07
2.386609E+03	8.276975E-06	3.242008E-07
2.426386E+03	1.038165E-05	4.064878E-07
2.466162E+03	1.271103E-05	4.975042E-07
2.505939E+03	1.524083E-05	5.962875E-07
2.545716E+03	1.795692E-05	7.022736E-07
2.585493E+03	2.084923E-05	8.150576E-07
2.625270E+03	2.392781E-05	9.350203E-07
2.665046E+03	2.719599E-05	1.062280E-06
2.704823E+03	3.067202E-05	1.197536E-06
2.744600E+03	3.437407E-05	1.341483E-06
2.784377E+03	3.832220E-05	1.494888E-06
2.824154E+03	4.253746E-05	1.658556E-06
2.863930E+03	4.704716E-05	1.833530E-06
2.903707E+03	5.187948E-05	2.020888E-06
2.943484E+03	5.706246E-05	2.221698E-06
2.983261E+03	6.262301E-05	2.436982E-06
2.993205E+03	6.408030E-05	2.493379E-06
3.003149E+03	6.555853E-05	2.550574E-06
3.013094E+03	6.705763E-05	2.608566E-06
3.023038E+03	6.859847E-05	2.668164E-06
3.032982E+03	7.018283E-05	2.729438E-06
3.042926E+03	7.183834E-05	2.793462E-06
3.052870E+03	7.355296E-05	2.859765E-06
3.062815E+03	7.533999E-05	2.928864E-06
3.072759E+03	7.718779E-05	3.000306E-06
3.082703E+03	7.908429E-05	3.073620E-06
3.092647E+03	8.104386E-05	3.149363E-06
3.102591E+03	8.305475E-05	3.227079E-06
3.112536E+03	8.511395E-05	3.306649E-06
3.122480E+03	8.721852E-05	3.387958E-06
3.132424E+03	8.937503E-05	3.471260E-06
3.142368E+03	9.156182E-05	3.555714E-06
3.152312E+03	9.380489E-05	3.642328E-06
3.162257E+03	9.607265E-05	3.729875E-06
3.172201E+03	9.839195E-05	3.819396E-06
3.182145E+03	1.007305E-04	3.909637E-06
3.192089E+03	1.031160E-04	4.001674E-06
3.202033E+03	1.055258E-04	4.094626E-06
3.211978E+03	1.079678E-04	4.188799E-06
3.221922E+03	1.104398E-04	4.284107E-06
3.231866E+03	1.129397E-04	4.380464E-06
3.241810E+03	1.154651E-04	4.477786E-06
3.251754E+03	1.180141E-04	4.575988E-06
3.261699E+03	1.205844E-04	4.674986E-06
3.271643E+03	1.231850E-04	4.775131E-06
3.281587E+03	1.258030E-04	4.875915E-06
3.291531E+03	1.284361E-04	4.977257E-06
3.301475E+03	1.310938E-04	5.079517E-06
3.311420E+03	1.337628E-04	5.182179E-06
3.321364E+03	1.364524E-04	5.285611E-06
3.331308E+03	1.391609E-04	5.389739E-06
3.341252E+03	1.418864E-04	5.494493E-06
3.351196E+03	1.446271E-04	5.599798E-06
3.361141E+03	1.473928E-04	5.706039E-06
3.371085E+03	1.501580E-04	5.812227E-06
3.381029E+03	1.529325E-04	5.918740E-06
3.390973E+03	1.557385E-04	6.026431E-06
3.400917E+03	1.585379E-04	6.133836E-06
3.410862E+03	1.613649E-04	6.242270E-06
3.420806E+03	1.641933E-04	6.350724E-06
3.430750E+03	1.670332E-04	6.459586E-06
3.440694E+03	1.698825E-04	6.568774E-06
3.450638E+03	1.727391E-04	6.678206E-06
3.460583E+03	1.756008E-04	6.787796E-06
3.470527E+03	1.784774E-04	6.897930E-06
3.480471E+03	1.813546E-04	7.008044E-06
3.490415E+03	1.842422E-04	7.118522E-06
3.500359E+03	1.871255E-04	7.228796E-06
3.510304E+03	1.900264E-04	7.339713E-06
3.520248E+03	1.929302E-04	7.450700E-06
3.530192E+03	1.958221E-04	7.561187E-06
3.540136E+03	1.987236E-04	7.672008E-06
3.550080E+03	2.016319E-04	7.783054E-06
3.560025E+03	2.045320E-04	7.893741E-06
3.569969E+03	2.074331E-04	8.004426E-06
3.579913E+03	2.103320E-04	8.114989E-06
3.589857E+03	2.132137E-04	8.224845E-06
3.599802E+03	2.160989E-04	8.334798E-06
3.609746E+03	2.189723E-04	8.444257E-06
3.619690E+03	2.218425E-04	8.553550E-06
3.629634E+03	2.246941E-04	8.662086E-06
3.639578E+03	2.275354E-04	8.770185E-06
3.649523E+03	2.303628E-04	8.877709E-06
3.659467E+03	2.331725E-04	8.984511E-06
3.669411E+03	2.359609E-04	9.090451E-06
3.679355E+03	2.387357E-04	9.195828E-06
3.689299E+03	2.414700E-04	9.299605E-06
3.699244E+03	2.441943E-04	9.402955E-06
3.709188E+03	2.468817E-04	9.504850E-06
3.719132E+03	2.495509E-04	9.606001E-06
3.729076E+03	2.521753E-04	9.705393E-06
3.739020E+03	2.547623E-04	9.803301E-06
3.748965E+03	2.573185E-04	9.899993E-06
3.758909E+03	2.598291E-04	9.994889E-06
3.768853E+03	2.623009E-04	1.008825E-05
3.778797E+03	2.647190E-04	1.017952E-05
3.788741E+03	2.670901E-04	1.026894E-05
3.798686E+03	2.694103E-04	1.035637E-05
3.808630E+03	2.716756E-04	1.044166E-05
3.818574E+03	2.738823E-04	1.052465E-05
3.828518E+03	2.760266E-04	1.060522E-05
3.838462E+03	2.781050E-04	1.068322E-05
3.848407E+03	2.801241E-04	1.075891E-05
3.858351E+03	2.820705E-04	1.083178E-05
3.868295E+03	2.839414E-04	1.090173E-05
3.878239E+03	2.857438E-04	1.096901E-05
3.888183E+03	2.874658E-04	1.103317E-05
3.898128E+03	2.891148E-04	1.109451E-05
3.908072E+03	2.906806E-04	1.115263E-05
3.918016E+03	2.921627E-04	1.120752E-05
3.927960E+03	2.935693E-04	1.125948E-05
3.937904E+03	2.948917E-04	1.130819E-05
3.947849E+03	2.961400E-04	1.135404E-05
3.957793E+03	2.972989E-04	1.139644E-05
3.967737E+03	2.983890E-04	1.143618E-05
3.977681E+03	2.994069E-04	1.147314E-05
3.987625E+03	3.003506E-04	1.150724E-05
3.997570E+03	3.012366E-04	1.153911E-05
4.007514E+03	3.020667E-04	1.156883E-05
4.017458E+03	3.028527E-04	1.159683E-05
4.027402E+03	3.036154E-04	1.162394E-05
4.037346E+03	3.043546E-04	1.165013E-05
4.047291E+03	3.050868E-04	1.167604E-05
4.057235E+03	3.058372E-04	1.170263E-05
4.067179E+03	3.066103E-04	1.173008E-05
4.077123E+03	3.074257E-04	1.175913E-05
4.087067E+03	3.083109E-04	1.179083E-05
4.097012E+03	3.092728E-04	1.182546E-05
4.106956E+03	3.103322E-04	1.186379E-05
4.116900E+03	3.115035E-04	1.190639E-05
4.126844E+03	3.128151E-04	1.195432E-05
4.136788E+03	3.142744E-04	1.200788E-05
4.146733E+03	3.159026E-04	1.206786E-05
4.156677E+03	3.177214E-04	1.213511E-05
4.166621E+03	3.197384E-04	1.220989E-05
4.176565E+03	3.219749E-04	1.229302E-05
4.186509E+03	3.244524E-04	1.238532E-05
4.196454E+03	3.271858E-04	1.248735E-05
4.206398E+03	3.301908E-04	1.259970E-05
4.216342E+03	3.334842E-04	1.272301E-05
4.226286E+03	3.370889E-04	1.285814E-05
4.236231E+03	3.410285E-04	1.300600E-05
4.246175E+03	3.453159E-04	1.316706E-05
4.256119E+03	3.499700E-04	1.334203E-05
4.266063E+03	3.550230E-04	1.353215E-05
4.276007E+03	3.604964E-04	1.373821E-05
4.285952E+03	3.664117E-04	1.396103E-05
4.295896E+03	3.727915E-04	1.420146E-05
4.305840E+03	3.796726E-04	1.446089E-05
4.315784E+03	3.870793E-04	1.474024E-05
4.325728E+03	3.950436E-04	1.504072E-05
4.335673E+03	4.035990E-04	1.536357E-05
4.345617E+03	4.127777E-04	1.571004E-05
4.355561E+03	4.226127E-04	1.608134E-05
4.365505E+03	4.331425E-04	1.647894E-05
4.375449E+03	4.444019E-04	1.690414E-05
4.385394E+03	4.564165E-04	1.735789E-05
4.395338E+03	4.692144E-04	1.784127E-05
4.405282E+03	4.828225E-04	1.835526E-05
4.415226E+03	4.972391E-04	1.889979E-05
4.425170E+03	5.124736E-04	1.947520E-05
4.435115E+03	5.284973E-04	2.008039E-05
4.445059E+03	5.452659E-04	2.071364E-05
4.455003E+03	5.627175E-04	2.137260E-05
4.464947E+03	5.807739E-04	2.205428E-05
4.474891E+03	5.993032E-04	2.275366E-05
4.484836E+03	6.181968E-04	2.346660E-05
4.494780E+03	6.372696E-04	2.418609E-05
4.504724E+03	6.563525E-04	2.490570E-05
4.514668E+03	6.752215E-04	2.561692E-05
4.524612E+03	6.936627E-04	2.631165E-05
4.534557E+03	7.114250E-04	2.698038E-05
4.544501E+03	7.282761E-04	2.761431E-05
4.554445E+03	7.439586E-04	2.820371E-05
4.564389E+03	7.582432E-04	2.873990E-05
4.574333E+03	7.709233E-04	2.921510E-05
4.584278E+03	7.818227E-04	2.962266E-05
4.594222E+03	7.908036E-04	2.995739E-05
4.604166E+03	7.977634E-04	3.021545E-05
4.614110E+03	8.026662E-04	3.039553E-05
4.624054E+03	8.055153E-04	3.049779E-05
4.633999E+03	8.063532E-04	3.052388E-05
4.643943E+03	8.052742E-04	3.047742E-05
4.653887E+03	8.024201E-04	3.036381E-05
4.663831E+03	7.979492E-04	3.018909E-05
4.673775E+03	7.920627E-04	2.996089E-05
4.683720E+03	7.849726E-04	2.968725E-05
4.693664E+03	7.768947E-04	2.937637E-05
4.703608E+03	7.680573E-04	2.903690E-05
4.713552E+03	7.586982E-04	2.867785E-05
4.723496E+03	7.490318E-04	2.830731E-05
4.733441E+03	7.392669E-04	2.793320E-05
4.743385E+03	7.296140E-04	2.756347E-05
4.753329E+03	7.202329E-04	2.720414E-05
4.763273E+03	7.112941E-04	2.686165E-05
4.773217E+03	7.029235E-04	2.654075E-05
4.783162E+03	6.952462E-04	2.624614E-05
4.793106E+03	6.883585E-04	2.598145E-05
4.803050E+03	6.823414E-04	2.574973E-05
4.812994E+03	6.772700E-04	2.555377E-05
4.822938E+03	6.732031E-04	2.539579E-05
4.832883E+03	6.701884E-04	2.527756E-05
4.842827E+03	6.682481E-04	2.519990E-05
4.852771E+03	6.674197E-04	2.516419E-05
4.862715E+03	6.676927E-04	2.517004E-05
4.872660E+03	6.690735E-04	2.521764E-05
4.882604E+03	6.715365E-04	2.530602E-05
4.892548E+03	6.750495E-04	2.543394E-05
4.902492E+03	6.795588E-04	2.559936E-05
4.912436E+03	6.850004E-04	2.579984E-05
4.922381E+03	6.912840E-04	2.603197E-05
4.932325E+03	6.983255E-04	2.629258E-05
4.942269E+03	7.060344E-04	2.657822E-05
4.952213E+03	7.143040E-04	2.688489E-05
4.962157E+03	7.230482E-04	2.720931E-05
4.972102E+03	7.321824E-04	2.754832E-05
4.982046E+03	7.416354E-04	2.789922E-05
4.991990E+03	7.513603E-04	2.826023E-05
5.001934E+03	7.613145E-04	2.862976E-05
5.011878E+03	7.714829E-04	2.900724E-05
5.021823E+03	7.818772E-04	2.939309E-05
5.031767E+03	7.925280E-04	2.978847E-05
5.041711E+03	8.034552E-04	3.019412E-05
5.051655E+03	8.147056E-04	3.061179E-05
5.061599E+03	8.263468E-04	3.104403E-05
5.071544E+03	8.384338E-04	3.149288E-05
5.081488E+03	8.509979E-04	3.195952E-05
5.091432E+03	8.640991E-04	3.244619E-05
5.101376E+03	8.777604E-04	3.295375E-05
5.111320E+03	8.920148E-04	3.348342E-05
5.121265E+03	9.068605E-04	3.403513E-05
5.131209E+03	9.222958E-04	3.460881E-05
5.141153E+03	9.383247E-04	3.520460E-05
5.151097E+03	9.549027E-04	3.582081E-05
5.161041E+03	9.720045E-04	3.645650E-05
5.170986E+03	9.895832E-04	3.710989E-05
5.180930E+03	1.007576E-03	3.777862E-05
5.190874E+03	1.025941E-03	3.846111E-05
5.200818E+03	1.044598E-03	3.915437E-05
5.210762E+03	1.063468E-03	3.985542E-05
5.220707E+03	1.082465E-03	4.056104E-05
5.230651E+03	1.101507E-03	4.126815E-05
5.240595E+03	1.120480E-03	4.197249E-05
5.250539E+03	1.139286E-03	4.267039E-05
5.260483E+03	1.157796E-03	4.335703E-05
5.270428E+03	1.175899E-03	4.402825E-05
5.280372E+03	1.193456E-03	4.467888E-05
5.290316E+03	1.210367E-03	4.530513E-05
5.300260E+03	1.226479E-03	4.590135E-05
5.310204E+03	1.241688E-03	4.646365E-05
5.320149E+03	1.255880E-03	4.698776E-05
5.330093E+03	1.268968E-03	4.747046E-05
5.340037E+03	1.280835E-03	4.790737E-05
5.349981E+03	1.291425E-03	4.829647E-05
5.359925E+03	1.300671E-03	4.863523E-05
5.369870E+03	1.308484E-03	4.892036E-05
5.379814E+03	1.314830E-03	4.915060E-05
5.389758E+03	1.319638E-03	4.932336E-05
5.399702E+03	1.322866E-03	4.943705E-05
5.409646E+03	1.324439E-03	4.948895E-05
5.419591E+03	1.324301E-03	4.947692E-05
5.429535E+03	1.322360E-03	4.939760E-05
5.439479E+03	1.318527E-03	4.924770E-05
5.449423E+03	1.312716E-03	4.902400E-05
5.459367E+03	1.304817E-03	4.872241E-05
5.469312E+03	1.294755E-03	4.834022E-05
5.479256E+03	1.282442E-03	4.787414E-05
5.489200E+03	1.267880E-03	4.732431E-05
5.499144E+03	1.251091E-03	4.669152E-05
5.509089E+03	1.232189E-03	4.598011E-05
5.519033E+03	1.211323E-03	4.519564E-05
5.528977E+03	1.188759E-03	4.434805E-05
5.538921E+03	1.164797E-03	4.344859E-05
5.548865E+03	1.139799E-03	4.251078E-05
5.558810E+03	1.114161E-03	4.154936E-05
5.568754E+03	1.088298E-03	4.057984E-05
5.578698E+03	1.062629E-03	3.961779E-05
5.588642E+03	1.037551E-03	3.867810E-05
5.598586E+03	1.013443E-03	3.777481E-05
5.608531E+03	9.906448E-04	3.692059E-05
5.618475E+03	9.694485E-04	3.612630E-05
5.628419E+03	9.501131E-04	3.540158E-05
5.638363E+03	9.328688E-04	3.475497E-05
5.648307E+03	9.178906E-04	3.419296E-05
5.658252E+03	9.053364E-04	3.372140E-05
5.668196E+03	8.953102E-04	3.334414E-05
5.678140E+03	8.879184E-04	3.306510E-05
5.688084E+03	8.832324E-04	3.288690E-05
5.698028E+03	8.812962E-04	3.281115E-05
5.707973E+03	8.821437E-04	3.283908E-05
5.717917E+03	8.857900E-04	3.297122E-05
5.727861E+03	8.922047E-04	3.320640E-05
5.737805E+03	9.013695E-04	3.354390E-05
5.747749E+03	9.131914E-04	3.398024E-05
5.757694E+03	9.275741E-04	3.451181E-05
5.767638E+03	9.443705E-04	3.513309E-05
5.777582E+03	9.634034E-04	3.583748E-05
5.787526E+03	9.844276E-04	3.661583E-05
5.797470E+03	1.007199E-03	3.745904E-05
5.807415E+03	1.031395E-03	3.835513E-05
5.817359E+03	1.056690E-03	3.929191E-05
5.827303E+03	1.082708E-03	4.025547E-05
5.837247E+03	1.109085E-03	4.123218E-05
5.847191E+03	1.135418E-03	4.220716E-05
5.857136E+03	1.161313E-03	4.316572E-05
5.867080E+03	1.186398E-03	4.409406E-05
5.877024E+03	1.210311E-03	4.497869E-05
5.886968E+03	1.232706E-03	4.580681E-05
5.896912E+03	1.253300E-03	4.656794E-05
5.906857E+03	1.271847E-03	4.725295E-05
5.916801E+03	1.288132E-03	4.785384E-05
5.926745E+03	1.302026E-03	4.836587E-05
5.936689E+03	1.313475E-03	4.878706E-05
5.946633E+03	1.322477E-03	4.911739E-05
5.956578E+03	1.329098E-03	4.935927E-05
5.966522E+03	1.333517E-03	4.951939E-05
5.976466E+03	1.335950E-03	4.960583E-05
5.986410E+03	1.336668E-03	4.962863E-05
5.996354E+03	1.336011E-03	4.960049E-05
6.006299E+03	1.334342E-03	4.953481E-05
6.016243E+03	1.332048E-03	4.944601E-05
6.026187E+03	1.329541E-03	4.934940E-05
6.036131E+03	1.327218E-03	4.925970E-05
6.046075E+03	1.325459E-03	4.919100E-05
6.056020E+03	1.324677E-03	4.915865E-05
6.065964E+03	1.325194E-03	4.917456E-05
6.075908E+03	1.327353E-03	4.925151E-05
6.085852E+03	1.331424E-03	4.939940E-05
6.095796E+03	1.337661E-03	4.962777E-05
6.105741E+03	1.346258E-03	4.994370E-05
6.115685E+03	1.357356E-03	5.035242E-05
6.125629E+03	1.371027E-03	5.085665E-05
6.135573E+03	1.387287E-03	5.145692E-05
6.145518E+03	1.406048E-03	5.214998E-05
6.155462E+03	1.427220E-03	5.293246E-05
6.165406E+03	1.450549E-03	5.379493E-05
6.175350E+03	1.475757E-03	5.472706E-05
6.185294E+03	1.502455E-03	5.571449E-05
6.195239E+03	1.530172E-03	5.673968E-05
6.205183E+03	1.558404E-03	5.778396E-05
6.215127E+03	1.586581E-03	5.882622E-05
6.225071E+03	1.614117E-03	5.984472E-05
6.235015E+03	1.640446E-03	6.081847E-05
6.244960E+03	1.665050E-03	6.172833E-05
6.254904E+03	1.687413E-03	6.255509E-05
6.264848E+03	1.707170E-03	6.328531E-05
6.274792E+03	1.723986E-03	6.390656E-05
6.284736E+03	1.737635E-03	6.441048E-05
6.294681E+03	1.748013E-03	6.479321E-05
6.304625E+03	1.755089E-03	6.505363E-05
6.314569E+03	1.758902E-03	6.519319E-05
6.324513E+03	1.759579E-03	6.521664E-05
6.334457E+03	1.757339E-03	6.513204E-05
6.344402E+03	1.752372E-03	6.494646E-05
6.354346E+03	1.744944E-03	6.466980E-05
6.364290E+03	1.735339E-03	6.431255E-05
6.374234E+03	1.723793E-03	6.388349E-05
6.384178E+03	1.710592E-03	6.339322E-05
6.394123E+03	1.695965E-03	6.285017E-05
6.404067E+03	1.680132E-03	6.226256E-05
6.414011E+03	1.663259E-03	6.163649E-05
6.423955E+03	1.645556E-03	6.097979E-05
6.433899E+03	1.627162E-03	6.029756E-05
6.443844E+03	1.608212E-03	5.959482E-05
6.453788E+03	1.588830E-03	5.887619E-05
6.463732E+03	1.569132E-03	5.814591E-05
6.473676E+03	1.549167E-03	5.740585E-05
6.483620E+03	1.529054E-03	5.666036E-05
6.493565E+03	1.508818E-03	5.591042E-05
6.503509E+03	1.488569E-03	5.516006E-05
6.513453E+03	1.468327E-03	5.441004E-05
6.523397E+03	1.448176E-03	5.366344E-05
6.533341E+03	1.428145E-03	5.292138E-05
6.543286E+03	1.408324E-03	5.218712E-05
6.553230E+03	1.388731E-03	5.146142E-05
6.563174E+03	1.369431E-03	5.074662E-05
6.573118E+03	1.350450E-03	5.004367E-05
6.583062E+03	1.331826E-03	4.935402E-05
6.593007E+03	1.313595E-03	4.867899E-05
6.602951E+03	1.295806E-03	4.802038E-05
6.612895E+03	1.278478E-03	4.737890E-05
6.622839E+03	1.261645E-03	4.675580E-05
6.632783E+03	1.245355E-03	4.615285E-05
6.642728E+03	1.229642E-03	4.557135E-05
6.652672E+03	1.214530E-03	4.501214E-05
6.662616E+03	1.200083E-03	4.447761E-05
6.672560E+03	1.186313E-03	4.396820E-05
6.682504E+03	1.173273E-03	4.348591E-05
6.692449E+03	1.161019E-03	4.303277E-05
6.702393E+03	1.149582E-03	4.260993E-05
6.712337E+03	1.139020E-03	4.221956E-05
6.722281E+03	1.129380E-03	4.186338E-05
6.732225E+03	1.120697E-03	4.154275E-05
6.742170E+03	1.113048E-03	4.126047E-05
6.752114E+03	1.106471E-03	4.101794E-05
6.762058E+03	1.101015E-03	4.081701E-05
6.772002E+03	1.096731E-03	4.065959E-05
6.781946E+03	1.093683E-03	4.054799E-05
6.791891E+03	1.091916E-03	4.048398E-05
6.801835E+03	1.091466E-03	4.046880E-05
6.811779E+03	1.092402E-03	4.050509E-05
6.821723E+03	1.094739E-03	4.059337E-05
6.831668E+03	1.098527E-03	4.073553E-05
6.841612E+03	1.103816E-03	4.093339E-05
6.851556E+03	1.110606E-03	4.118701E-05
6.861500E+03	1.118949E-03	4.149829E-05
6.871444E+03	1.128866E-03	4.186802E-05
6.881389E+03	1.140352E-03	4.229604E-05
6.891333E+03	1.153411E-03	4.278250E-05
6.901277E+03	1.168054E-03	4.332781E-05
6.911221E+03	1.184263E-03	4.393136E-05
6.921165E+03	1.202000E-03	4.459168E-05
6.931110E+03	1.221245E-03	4.530808E-05
6.941054E+03	1.241949E-03	4.607877E-05
6.950998E+03	1.264038E-03	4.690097E-05
6.960942E+03	1.287473E-03	4.777328E-05
6.970886E+03	1.312139E-03	4.869142E-05
6.980831E+03	1.337954E-03	4.965240E-05
6.990775E+03	1.364827E-03	5.065281E-05
7.000719E+03	1.392599E-03	5.168679E-05
7.010663E+03	1.421164E-03	5.275042E-05
7.020607E+03	1.450333E-03	5.383667E-05
7.030552E+03	1.479967E-03	5.494040E-05
7.040496E+03	1.509859E-03	5.605391E-05
7.050440E+03	1.539800E-03	5.716949E-05
7.060384E+03	1.569566E-03	5.827882E-05
7.070328E+03	1.598937E-03	5.937373E-05
7.080273E+03	1.627639E-03	6.044401E-05
7.090217E+03	1.655406E-03	6.147984E-05
7.100161E+03	1.681981E-03	6.247162E-05
7.110105E+03	1.707056E-03	6.340792E-05
7.120049E+03	1.730357E-03	6.427858E-05
7.129994E+03	1.751590E-03	6.507263E-05
7.139938E+03	1.770428E-03	6.577795E-05
7.149882E+03	1.786595E-03	6.638420E-05
7.159826E+03	1.799768E-03	6.687946E-05
7.169770E+03	1.809712E-03	6.725483E-05
7.179715E+03	1.816105E-03	6.749844E-05
7.189659E+03	1.818745E-03	6.760266E-05
7.199603E+03	1.817392E-03	6.755859E-05
7.209547E+03	1.811868E-03	6.735954E-05
7.219491E+03	1.802039E-03	6.700053E-05
7.229436E+03	1.787858E-03	6.647970E-05
7.239380E+03	1.769294E-03	6.579588E-05
7.249324E+03	1.746417E-03	6.495164E-05
7.259268E+03	1.719410E-03	6.395367E-05
7.269212E+03	1.688458E-03	6.280890E-05
7.279157E+03	1.653869E-03	6.152868E-05
7.289101E+03	1.616061E-03	6.012851E-05
7.299045E+03	1.575448E-03	5.862374E-05
7.308989E+03	1.532536E-03	5.703323E-05
7.318933E+03	1.487892E-03	5.537797E-05
7.328878E+03	1.442082E-03	5.367903E-05
7.338822E+03	1.395716E-03	5.195913E-05
7.348766E+03	1.349342E-03	5.023858E-05
7.358710E+03	1.303530E-03	4.853866E-05
7.368654E+03	1.258832E-03	4.687990E-05
7.378599E+03	1.215694E-03	4.527892E-05
7.388543E+03	1.174559E-03	4.375225E-05
7.398487E+03	1.135753E-03	4.231205E-05
7.408431E+03	1.099604E-03	4.097055E-05
7.418375E+03	1.066283E-03	3.973414E-05
7.428320E+03	1.035929E-03	3.860810E-05
7.438264E+03	1.008594E-03	3.759436E-05
7.448208E+03	9.842737E-04	3.669278E-05
7.458152E+03	9.628950E-04	3.590071E-05
7.468097E+03	9.443334E-04	3.521354E-05
7.478041E+03	9.284609E-04	3.462653E-05
7.487985E+03	9.151093E-04	3.413346E-05
7.497929E+03	9.041182E-04	3.372836E-05
7.507873E+03	8.953415E-04	3.340582E-05
7.517818E+03	8.886145E-04	3.315974E-05
7.527762E+03	8.838039E-04	3.298517E-05
7.537706E+03	8.807484E-04	3.287611E-05
7.547650E+03	8.793297E-04	3.282818E-05
7.557594E+03	8.794216E-04	3.283670E-05
7.567539E+03	8.808985E-04	3.289700E-05
7.577483E+03	8.836233E-04	3.300397E-05
7.587427E+03	8.874704E-04	3.315296E-05
7.597371E+03	8.923232E-04	3.333963E-05
7.607315E+03	8.980510E-04	3.355910E-05
7.617260E+03	9.045385E-04	3.380709E-05
7.627204E+03	9.116774E-04	3.407956E-05
7.637148E+03	9.193193E-04	3.437097E-05
7.647092E+03	9.273511E-04	3.467711E-05
7.657036E+03	9.356599E-04	3.499376E-05
7.666981E+03	9.440934E-04	3.531524E-05
7.676925E+03	9.525388E-04	3.563731E-05
7.686869E+03	9.608764E-04	3.595551E-05
7.696813E+03	9.689895E-04	3.626546E-05
7.706757E+03	9.767790E-04	3.656345E-05
7.716702E+03	9.841178E-04	3.684472E-05
