#wls	flux	fluxerr
1.591072E+03	4.586352E-06	8.606115E-08
1.630849E+03	4.906116E-06	9.205601E-08
1.670626E+03	5.172059E-06	9.704023E-08
1.710403E+03	5.372223E-06	1.007896E-07
1.750180E+03	5.493123E-06	1.030513E-07
1.789957E+03	5.507051E-06	1.033060E-07
1.829733E+03	5.389995E-06	1.011035E-07
1.869510E+03	5.118151E-06	9.599782E-08
1.909287E+03	4.685719E-06	8.788088E-08
1.949064E+03	4.118286E-06	7.723317E-08
1.988841E+03	3.479471E-06	6.524827E-08
2.028617E+03	2.866114E-06	5.374238E-08
2.068394E+03	2.383416E-06	4.468794E-08
2.108171E+03	2.105770E-06	3.947913E-08
2.147948E+03	2.072751E-06	3.885698E-08
2.187725E+03	2.310371E-06	4.330803E-08
2.227501E+03	2.849259E-06	5.340505E-08
2.267278E+03	3.720874E-06	6.973620E-08
2.307055E+03	4.941196E-06	9.259928E-08
2.346832E+03	6.500865E-06	1.218170E-07
2.386609E+03	8.367374E-06	1.567785E-07
2.426386E+03	1.050300E-05	1.967752E-07
2.466162E+03	1.286865E-05	2.410729E-07
2.505939E+03	1.543931E-05	2.892020E-07
2.545716E+03	1.819723E-05	3.408283E-07
2.585493E+03	2.113980E-05	3.959017E-07
2.625270E+03	2.426359E-05	4.543565E-07
2.665046E+03	2.758007E-05	5.164061E-07
2.704823E+03	3.110227E-05	5.822929E-07
2.744600E+03	3.484601E-05	6.523113E-07
2.784377E+03	3.883384E-05	7.268816E-07
2.824154E+03	4.307918E-05	8.062531E-07
2.863930E+03	4.761148E-05	8.909745E-07
2.903707E+03	5.244921E-05	9.813893E-07
2.943484E+03	5.762222E-05	1.078053E-06
2.983261E+03	6.314581E-05	1.181249E-06
2.993205E+03	6.458202E-05	1.208079E-06
3.003149E+03	6.604407E-05	1.235390E-06
3.013094E+03	6.753209E-05	1.263184E-06
3.023038E+03	6.905102E-05	1.291555E-06
3.032982E+03	7.061096E-05	1.320691E-06
3.042926E+03	7.223907E-05	1.351101E-06
3.052870E+03	7.393955E-05	1.382861E-06
3.062815E+03	7.569286E-05	1.415607E-06
3.072759E+03	7.751159E-05	1.449575E-06
3.082703E+03	7.937604E-05	1.484395E-06
3.092647E+03	8.129941E-05	1.520314E-06
3.102591E+03	8.326175E-05	1.556960E-06
3.112536E+03	8.527686E-05	1.594590E-06
3.122480E+03	8.734201E-05	1.633153E-06
3.132424E+03	8.944565E-05	1.672433E-06
3.142368E+03	9.158481E-05	1.712374E-06
3.152312E+03	9.375657E-05	1.752921E-06
3.162257E+03	9.596732E-05	1.794195E-06
3.172201E+03	9.821460E-05	1.836149E-06
3.182145E+03	1.004960E-04	1.878737E-06
3.192089E+03	1.027995E-04	1.921736E-06
3.202033E+03	1.051323E-04	1.965278E-06
3.211978E+03	1.074919E-04	2.009320E-06
3.221922E+03	1.098663E-04	2.053635E-06
3.231866E+03	1.122730E-04	2.098549E-06
3.241810E+03	1.147000E-04	2.143839E-06
3.251754E+03	1.171451E-04	2.189465E-06
3.261699E+03	1.196064E-04	2.235389E-06
3.271643E+03	1.220920E-04	2.281766E-06
3.281587E+03	1.245898E-04	2.328366E-06
3.291531E+03	1.270979E-04	2.375155E-06
3.301475E+03	1.296248E-04	2.422292E-06
3.311420E+03	1.321689E-04	2.469746E-06
3.321364E+03	1.347178E-04	2.517287E-06
3.331308E+03	1.372804E-04	2.565079E-06
3.341252E+03	1.398550E-04	2.613092E-06
3.351196E+03	1.424508E-04	2.661499E-06
3.361141E+03	1.450446E-04	2.709863E-06
3.371085E+03	1.476455E-04	2.758356E-06
3.381029E+03	1.502629E-04	2.807154E-06
3.390973E+03	1.528843E-04	2.856022E-06
3.400917E+03	1.555190E-04	2.905135E-06
3.410862E+03	1.581544E-04	2.954258E-06
3.420806E+03	1.608001E-04	3.003568E-06
3.430750E+03	1.634544E-04	3.053035E-06
3.440694E+03	1.661157E-04	3.102630E-06
3.450638E+03	1.687712E-04	3.152112E-06
3.460583E+03	1.714416E-04	3.201868E-06
3.470527E+03	1.741141E-04	3.251658E-06
3.480471E+03	1.767980E-04	3.301659E-06
3.490415E+03	1.794806E-04	3.351629E-06
3.500359E+03	1.821711E-04	3.401745E-06
3.510304E+03	1.848678E-04	3.451972E-06
3.520248E+03	1.875577E-04	3.502065E-06
3.530192E+03	1.902611E-04	3.552409E-06
3.540136E+03	1.929538E-04	3.602549E-06
3.550080E+03	1.956561E-04	3.652863E-06
3.560025E+03	1.983549E-04	3.703106E-06
3.569969E+03	2.010590E-04	3.753445E-06
3.579913E+03	2.037663E-04	3.803839E-06
3.589857E+03	2.064635E-04	3.854042E-06
3.599802E+03	2.091595E-04	3.904216E-06
3.609746E+03	2.118628E-04	3.954523E-06
3.619690E+03	2.145491E-04	4.004509E-06
3.629634E+03	2.172379E-04	4.054536E-06
3.639578E+03	2.199266E-04	4.104557E-06
3.649523E+03	2.226017E-04	4.154320E-06
3.659467E+03	2.252608E-04	4.203781E-06
3.669411E+03	2.279227E-04	4.253288E-06
3.679355E+03	2.305737E-04	4.302590E-06
3.689299E+03	2.332113E-04	4.351634E-06
3.699244E+03	2.358325E-04	4.400371E-06
3.709188E+03	2.384450E-04	4.448940E-06
3.719132E+03	2.410356E-04	4.497094E-06
3.729076E+03	2.436114E-04	4.544971E-06
3.739020E+03	2.461697E-04	4.592514E-06
3.748965E+03	2.487072E-04	4.639667E-06
3.758909E+03	2.512109E-04	4.686186E-06
3.768853E+03	2.537079E-04	4.732575E-06
3.778797E+03	2.561652E-04	4.778217E-06
3.788741E+03	2.585993E-04	4.823424E-06
3.798686E+03	2.609975E-04	4.867957E-06
3.808630E+03	2.633664E-04	4.911941E-06
3.818574E+03	2.657029E-04	4.955315E-06
3.828518E+03	2.679945E-04	4.997847E-06
3.838462E+03	2.702570E-04	5.039834E-06
3.848407E+03	2.724690E-04	5.080874E-06
3.858351E+03	2.746461E-04	5.121260E-06
3.868295E+03	2.767674E-04	5.160603E-06
3.878239E+03	2.788489E-04	5.199198E-06
3.888183E+03	2.808794E-04	5.236840E-06
3.898128E+03	2.828572E-04	5.273495E-06
3.908072E+03	2.847898E-04	5.309306E-06
3.918016E+03	2.866679E-04	5.344096E-06
3.927960E+03	2.884915E-04	5.377867E-06
3.937904E+03	2.902615E-04	5.410635E-06
3.947849E+03	2.919879E-04	5.442587E-06
3.957793E+03	2.936648E-04	5.473616E-06
3.967737E+03	2.952963E-04	5.503793E-06
3.977681E+03	2.968871E-04	5.533209E-06
3.987625E+03	2.984434E-04	5.561980E-06
3.997570E+03	2.999726E-04	5.590243E-06
4.007514E+03	3.014832E-04	5.618156E-06
4.017458E+03	3.029852E-04	5.645906E-06
4.027402E+03	3.044820E-04	5.673557E-06
4.037346E+03	3.059861E-04	5.701342E-06
4.047291E+03	3.075186E-04	5.729651E-06
4.057235E+03	3.090791E-04	5.758482E-06
4.067179E+03	3.106906E-04	5.788259E-06
4.077123E+03	3.123693E-04	5.819286E-06
4.087067E+03	3.141254E-04	5.851750E-06
4.097012E+03	3.159764E-04	5.885981E-06
4.106956E+03	3.179341E-04	5.922194E-06
4.116900E+03	3.200239E-04	5.960865E-06
4.126844E+03	3.222582E-04	6.002225E-06
4.136788E+03	3.246501E-04	6.046516E-06
4.146733E+03	3.272260E-04	6.094229E-06
4.156677E+03	3.299931E-04	6.145498E-06
4.166621E+03	3.329784E-04	6.200828E-06
4.176565E+03	3.361900E-04	6.260365E-06
4.186509E+03	3.396557E-04	6.324629E-06
4.196454E+03	3.433907E-04	6.393901E-06
4.206398E+03	3.474109E-04	6.468480E-06
4.216342E+03	3.517393E-04	6.548788E-06
4.226286E+03	3.563928E-04	6.635141E-06
4.236231E+03	3.613952E-04	6.727983E-06
4.246175E+03	3.667650E-04	6.827655E-06
4.256119E+03	3.725270E-04	6.934621E-06
4.266063E+03	3.786945E-04	7.049125E-06
4.276007E+03	3.853000E-04	7.171772E-06
4.285952E+03	3.923573E-04	7.302818E-06
4.295896E+03	3.998935E-04	7.442765E-06
4.305840E+03	4.079354E-04	7.592113E-06
4.315784E+03	4.164906E-04	7.750998E-06
4.325728E+03	4.255979E-04	7.920145E-06
4.335673E+03	4.352629E-04	8.099657E-06
4.345617E+03	4.455154E-04	8.290085E-06
4.355561E+03	4.563698E-04	8.491695E-06
4.365505E+03	4.678368E-04	8.704686E-06
4.375449E+03	4.799226E-04	8.929175E-06
4.385394E+03	4.926421E-04	9.165432E-06
4.395338E+03	5.059750E-04	9.413080E-06
4.405282E+03	5.199282E-04	9.672247E-06
4.415226E+03	5.344703E-04	9.942349E-06
4.425170E+03	5.495732E-04	1.022286E-05
4.435115E+03	5.651880E-04	1.051286E-05
4.445059E+03	5.812669E-04	1.081148E-05
4.455003E+03	5.977244E-04	1.111711E-05
4.464947E+03	6.144719E-04	1.142811E-05
4.474891E+03	6.313969E-04	1.174238E-05
4.484836E+03	6.483862E-04	1.205783E-05
4.494780E+03	6.652945E-04	1.237174E-05
4.504724E+03	6.819606E-04	1.268112E-05
4.514668E+03	6.982291E-04	1.298308E-05
4.524612E+03	7.139176E-04	1.327424E-05
4.534557E+03	7.288589E-04	1.355147E-05
4.544501E+03	7.428572E-04	1.381116E-05
4.554445E+03	7.557514E-04	1.405029E-05
4.564389E+03	7.673741E-04	1.426577E-05
4.574333E+03	7.775924E-04	1.445512E-05
4.584278E+03	7.862905E-04	1.461620E-05
4.594222E+03	7.933679E-04	1.474714E-05
4.604166E+03	7.987760E-04	1.484705E-05
4.614110E+03	8.024901E-04	1.491546E-05
4.624054E+03	8.045087E-04	1.495235E-05
4.633999E+03	8.048846E-04	1.495871E-05
4.643943E+03	8.037010E-04	1.493610E-05
4.653887E+03	8.010505E-04	1.488622E-05
4.663831E+03	7.970699E-04	1.481163E-05
4.673775E+03	7.919249E-04	1.471542E-05
4.683720E+03	7.857668E-04	1.460038E-05
4.693664E+03	7.787861E-04	1.447008E-05
4.703608E+03	7.711757E-04	1.432809E-05
4.713552E+03	7.631124E-04	1.417769E-05
4.723496E+03	7.547936E-04	1.402257E-05
4.733441E+03	7.463919E-04	1.386591E-05
4.743385E+03	7.380702E-04	1.371076E-05
4.753329E+03	7.299629E-04	1.355960E-05
4.763273E+03	7.222148E-04	1.341513E-05
4.773217E+03	7.149256E-04	1.327920E-05
4.783162E+03	7.081956E-04	1.315366E-05
4.793106E+03	7.020976E-04	1.303988E-05
4.803050E+03	6.966890E-04	1.293891E-05
4.812994E+03	6.920396E-04	1.285204E-05
4.822938E+03	6.881750E-04	1.277976E-05
4.832883E+03	6.851319E-04	1.272274E-05
4.842827E+03	6.829354E-04	1.268145E-05
4.852771E+03	6.815915E-04	1.265600E-05
4.862715E+03	6.811030E-04	1.264643E-05
4.872660E+03	6.814690E-04	1.265273E-05
4.882604E+03	6.826638E-04	1.267441E-05
4.892548E+03	6.846591E-04	1.271096E-05
4.902492E+03	6.874321E-04	1.276195E-05
4.912436E+03	6.909233E-04	1.282626E-05
4.922381E+03	6.950957E-04	1.290322E-05
4.932325E+03	6.998934E-04	1.299178E-05
4.942269E+03	7.052577E-04	1.309085E-05
4.952213E+03	7.111371E-04	1.319948E-05
4.962157E+03	7.174744E-04	1.331660E-05
4.972102E+03	7.242167E-04	1.344123E-05
4.982046E+03	7.313242E-04	1.357263E-05
4.991990E+03	7.387571E-04	1.371006E-05
5.001934E+03	7.464919E-04	1.385308E-05
5.011878E+03	7.544983E-04	1.400113E-05
5.021823E+03	7.627701E-04	1.415410E-05
5.031767E+03	7.713020E-04	1.431189E-05
5.041711E+03	7.801030E-04	1.447466E-05
5.051655E+03	7.891720E-04	1.464239E-05
5.061599E+03	7.985271E-04	1.481542E-05
5.071544E+03	8.081888E-04	1.499413E-05
5.081488E+03	8.181604E-04	1.517858E-05
5.091432E+03	8.284518E-04	1.536894E-05
5.101376E+03	8.390775E-04	1.556550E-05
5.111320E+03	8.500396E-04	1.576829E-05
5.121265E+03	8.613326E-04	1.597720E-05
5.131209E+03	8.729383E-04	1.619190E-05
5.141153E+03	8.848574E-04	1.641240E-05
5.151097E+03	8.970652E-04	1.663825E-05
5.161041E+03	9.095126E-04	1.686852E-05
5.170986E+03	9.221896E-04	1.710304E-05
5.180930E+03	9.350235E-04	1.734045E-05
5.190874E+03	9.479936E-04	1.758037E-05
5.200818E+03	9.610233E-04	1.782139E-05
5.210762E+03	9.740521E-04	1.806238E-05
5.220707E+03	9.870324E-04	1.830245E-05
5.230651E+03	9.998735E-04	1.853993E-05
5.240595E+03	1.012521E-03	1.877382E-05
5.250539E+03	1.024876E-03	1.900226E-05
5.260483E+03	1.036880E-03	1.922418E-05
5.270428E+03	1.048442E-03	1.943788E-05
5.280372E+03	1.059480E-03	1.964189E-05
5.290316E+03	1.069926E-03	1.983489E-05
5.300260E+03	1.079692E-03	2.001528E-05
5.310204E+03	1.088716E-03	2.018191E-05
5.320149E+03	1.096939E-03	2.033368E-05
5.330093E+03	1.104276E-03	2.046902E-05
5.340037E+03	1.110687E-03	2.058722E-05
5.349981E+03	1.116119E-03	2.068724E-05
5.359925E+03	1.120529E-03	2.076832E-05
5.369870E+03	1.123854E-03	2.082930E-05
5.379814E+03	1.126055E-03	2.086944E-05
5.389758E+03	1.127082E-03	2.088783E-05
5.399702E+03	1.126896E-03	2.088375E-05
5.409646E+03	1.125459E-03	2.085647E-05
5.419591E+03	1.122713E-03	2.080497E-05
5.429535E+03	1.118627E-03	2.072862E-05
5.439479E+03	1.113170E-03	2.062689E-05
5.449423E+03	1.106306E-03	2.049909E-05
5.459367E+03	1.098026E-03	2.034506E-05
5.469312E+03	1.088331E-03	2.016485E-05
5.479256E+03	1.077230E-03	1.995859E-05
5.489200E+03	1.064794E-03	1.972760E-05
5.499144E+03	1.051074E-03	1.947285E-05
5.509089E+03	1.036177E-03	1.919633E-05
5.519033E+03	1.020244E-03	1.890060E-05
5.528977E+03	1.003439E-03	1.858876E-05
5.538921E+03	9.859548E-04	1.826437E-05
5.548865E+03	9.679869E-04	1.793102E-05
5.558810E+03	9.497730E-04	1.759315E-05
5.568754E+03	9.315494E-04	1.725512E-05
5.578698E+03	9.135348E-04	1.692098E-05
5.588642E+03	8.959711E-04	1.659521E-05
5.598586E+03	8.790793E-04	1.628191E-05
5.608531E+03	8.630571E-04	1.598473E-05
5.618475E+03	8.480927E-04	1.570717E-05
5.628419E+03	8.343453E-04	1.545216E-05
5.638363E+03	8.219700E-04	1.522258E-05
5.648307E+03	8.110914E-04	1.502073E-05
5.658252E+03	8.017970E-04	1.484823E-05
5.668196E+03	7.941864E-04	1.470692E-05
5.678140E+03	7.883153E-04	1.459784E-05
5.688084E+03	7.842290E-04	1.452181E-05
5.698028E+03	7.819553E-04	1.447936E-05
5.707973E+03	7.814963E-04	1.447051E-05
5.717917E+03	7.828529E-04	1.449529E-05
5.727861E+03	7.860010E-04	1.455323E-05
5.737805E+03	7.908985E-04	1.464357E-05
5.747749E+03	7.974779E-04	1.476504E-05
5.757694E+03	8.056602E-04	1.491620E-05
5.767638E+03	8.153559E-04	1.509536E-05
5.777582E+03	8.264400E-04	1.530023E-05
5.787526E+03	8.387852E-04	1.552843E-05
5.797470E+03	8.522292E-04	1.577697E-05
5.807415E+03	8.666020E-04	1.604270E-05
5.817359E+03	8.817271E-04	1.632235E-05
5.827303E+03	8.973910E-04	1.661196E-05
5.837247E+03	9.134071E-04	1.690809E-05
5.847191E+03	9.295584E-04	1.720671E-05
5.857136E+03	9.456370E-04	1.750397E-05
5.867080E+03	9.614313E-04	1.779597E-05
5.877024E+03	9.767684E-04	1.807949E-05
5.886968E+03	9.914625E-04	1.835111E-05
5.896912E+03	1.005348E-03	1.860775E-05
5.906857E+03	1.018303E-03	1.884717E-05
5.916801E+03	1.030226E-03	1.906748E-05
5.926745E+03	1.041036E-03	1.926720E-05
5.936689E+03	1.050709E-03	1.944586E-05
5.946633E+03	1.059246E-03	1.960350E-05
5.956578E+03	1.066673E-03	1.974061E-05
5.966522E+03	1.073076E-03	1.985875E-05
5.976466E+03	1.078548E-03	1.995968E-05
5.986410E+03	1.083239E-03	2.004615E-05
5.996354E+03	1.087310E-03	2.012114E-05
6.006299E+03	1.090935E-03	2.018788E-05
6.016243E+03	1.094312E-03	2.025006E-05
6.026187E+03	1.097674E-03	2.031194E-05
6.036131E+03	1.101202E-03	2.037691E-05
6.046075E+03	1.105143E-03	2.044952E-05
6.056020E+03	1.109682E-03	2.053320E-05
6.065964E+03	1.115016E-03	2.063160E-05
6.075908E+03	1.121338E-03	2.074827E-05
6.085852E+03	1.128797E-03	2.088600E-05
6.095796E+03	1.137521E-03	2.104711E-05
6.105741E+03	1.147629E-03	2.123386E-05
6.115685E+03	1.159178E-03	2.144727E-05
6.125629E+03	1.172211E-03	2.168812E-05
6.135573E+03	1.186720E-03	2.195628E-05
6.145518E+03	1.202668E-03	2.225109E-05
6.155462E+03	1.219967E-03	2.257087E-05
6.165406E+03	1.238506E-03	2.291359E-05
6.175350E+03	1.258145E-03	2.327668E-05
6.185294E+03	1.278683E-03	2.365640E-05
6.195239E+03	1.299883E-03	2.404835E-05
6.205183E+03	1.321486E-03	2.444778E-05
6.215127E+03	1.343203E-03	2.484930E-05
6.225071E+03	1.364723E-03	2.524719E-05
6.235015E+03	1.385748E-03	2.563592E-05
6.244960E+03	1.405958E-03	2.600956E-05
6.254904E+03	1.425074E-03	2.636299E-05
6.264848E+03	1.442823E-03	2.669111E-05
6.274792E+03	1.458971E-03	2.698964E-05
6.284736E+03	1.473347E-03	2.725538E-05
6.294681E+03	1.485775E-03	2.748510E-05
6.304625E+03	1.496188E-03	2.767753E-05
6.314569E+03	1.504517E-03	2.783143E-05
6.324513E+03	1.510765E-03	2.794684E-05
6.334457E+03	1.514929E-03	2.802372E-05
6.344402E+03	1.517097E-03	2.806366E-05
6.354346E+03	1.517324E-03	2.806773E-05
6.364290E+03	1.515745E-03	2.803839E-05
6.374234E+03	1.512478E-03	2.797783E-05
6.384178E+03	1.507619E-03	2.788783E-05
6.394123E+03	1.501328E-03	2.777136E-05
6.404067E+03	1.493707E-03	2.763028E-05
6.414011E+03	1.484912E-03	2.746751E-05
6.423955E+03	1.475051E-03	2.728503E-05
6.433899E+03	1.464240E-03	2.708498E-05
6.443844E+03	1.452590E-03	2.686943E-05
6.453788E+03	1.440190E-03	2.664000E-05
6.463732E+03	1.427151E-03	2.639878E-05
6.473676E+03	1.413552E-03	2.614719E-05
6.483620E+03	1.399491E-03	2.588707E-05
6.493565E+03	1.385037E-03	2.561969E-05
6.503509E+03	1.370295E-03	2.534698E-05
6.513453E+03	1.355334E-03	2.507024E-05
6.523397E+03	1.340225E-03	2.479076E-05
6.533341E+03	1.325043E-03	2.450994E-05
6.543286E+03	1.309833E-03	2.422862E-05
6.553230E+03	1.294680E-03	2.394836E-05
6.563174E+03	1.279622E-03	2.366985E-05
6.573118E+03	1.264709E-03	2.339403E-05
6.583062E+03	1.250015E-03	2.312227E-05
6.593007E+03	1.235570E-03	2.285512E-05
6.602951E+03	1.221417E-03	2.259338E-05
6.612895E+03	1.207611E-03	2.233805E-05
6.622839E+03	1.194190E-03	2.208987E-05
6.632783E+03	1.181194E-03	2.184954E-05
6.642728E+03	1.168660E-03	2.161777E-05
6.652672E+03	1.156627E-03	2.139527E-05
6.662616E+03	1.145157E-03	2.118318E-05
6.672560E+03	1.134262E-03	2.098174E-05
6.682504E+03	1.123992E-03	2.079186E-05
6.692449E+03	1.114384E-03	2.061422E-05
6.702393E+03	1.105487E-03	2.044975E-05
6.712337E+03	1.097325E-03	2.029888E-05
6.722281E+03	1.089961E-03	2.016277E-05
6.732225E+03	1.083404E-03	2.004161E-05
6.742170E+03	1.077692E-03	1.993606E-05
6.752114E+03	1.072895E-03	1.984746E-05
6.762058E+03	1.069012E-03	1.977575E-05
6.772002E+03	1.066098E-03	1.972200E-05
6.781946E+03	1.064174E-03	1.968655E-05
6.791891E+03	1.063281E-03	1.967017E-05
6.801835E+03	1.063445E-03	1.967338E-05
6.811779E+03	1.064681E-03	1.969640E-05
6.821723E+03	1.067035E-03	1.974011E-05
6.831668E+03	1.070500E-03	1.980440E-05
6.841612E+03	1.075118E-03	1.989001E-05
6.851556E+03	1.080888E-03	1.999694E-05
6.861500E+03	1.087816E-03	2.012532E-05
6.871444E+03	1.095906E-03	2.027518E-05
6.881389E+03	1.105166E-03	2.044670E-05
6.891333E+03	1.115574E-03	2.063949E-05
6.901277E+03	1.127115E-03	2.085324E-05
6.911221E+03	1.139780E-03	2.108779E-05
6.921165E+03	1.153525E-03	2.134234E-05
6.931110E+03	1.168326E-03	2.161643E-05
6.941054E+03	1.184121E-03	2.190895E-05
6.950998E+03	1.200870E-03	2.221911E-05
6.960942E+03	1.218493E-03	2.254545E-05
6.970886E+03	1.236928E-03	2.288685E-05
6.980831E+03	1.256075E-03	2.324143E-05
6.990775E+03	1.275852E-03	2.360770E-05
7.000719E+03	1.296136E-03	2.398335E-05
7.010663E+03	1.316807E-03	2.436618E-05
7.020607E+03	1.337750E-03	2.475406E-05
7.030552E+03	1.358806E-03	2.514405E-05
7.040496E+03	1.379820E-03	2.553330E-05
7.050440E+03	1.400629E-03	2.591875E-05
7.060384E+03	1.421073E-03	2.629749E-05
7.070328E+03	1.440934E-03	2.666545E-05
7.080273E+03	1.460037E-03	2.701939E-05
7.090217E+03	1.478181E-03	2.735561E-05
7.100161E+03	1.495162E-03	2.767034E-05
7.110105E+03	1.510773E-03	2.795972E-05
7.120049E+03	1.524786E-03	2.821956E-05
7.129994E+03	1.536995E-03	2.844603E-05
7.139938E+03	1.547220E-03	2.863578E-05
7.149882E+03	1.555267E-03	2.878525E-05
7.159826E+03	1.560919E-03	2.889040E-05
7.169770E+03	1.564050E-03	2.894892E-05
7.179715E+03	1.564481E-03	2.895746E-05
7.189659E+03	1.562114E-03	2.891421E-05
7.199603E+03	1.556861E-03	2.881757E-05
7.209547E+03	1.548670E-03	2.866654E-05
7.219491E+03	1.537504E-03	2.846046E-05
7.229436E+03	1.523410E-03	2.820015E-05
7.239380E+03	1.506434E-03	2.788652E-05
7.249324E+03	1.486691E-03	2.752165E-05
7.259268E+03	1.464357E-03	2.710880E-05
7.269212E+03	1.439612E-03	2.665133E-05
7.279157E+03	1.412717E-03	2.615403E-05
7.289101E+03	1.383931E-03	2.562169E-05
7.299045E+03	1.353578E-03	2.506035E-05
7.308989E+03	1.321974E-03	2.447582E-05
7.318933E+03	1.289502E-03	2.387520E-05
7.328878E+03	1.256519E-03	2.326510E-05
7.338822E+03	1.223381E-03	2.265211E-05
7.348766E+03	1.190453E-03	2.204299E-05
7.358710E+03	1.158069E-03	2.144390E-05
7.368654E+03	1.126567E-03	2.086113E-05
7.378599E+03	1.096227E-03	2.029987E-05
7.388543E+03	1.067296E-03	1.976467E-05
7.398487E+03	1.039969E-03	1.925916E-05
7.408431E+03	1.014433E-03	1.878678E-05
7.418375E+03	9.907782E-04	1.834923E-05
7.428320E+03	9.690996E-04	1.794826E-05
7.438264E+03	9.494296E-04	1.758448E-05
7.448208E+03	9.318039E-04	1.725855E-05
7.458152E+03	9.161906E-04	1.696988E-05
7.468097E+03	9.025684E-04	1.671808E-05
7.478041E+03	8.908575E-04	1.650168E-05
7.487985E+03	8.810089E-04	1.631977E-05
7.497929E+03	8.729004E-04	1.617008E-05
7.507873E+03	8.664699E-04	1.605148E-05
7.517818E+03	8.615776E-04	1.596138E-05
7.527762E+03	8.581361E-04	1.589815E-05
7.537706E+03	8.560308E-04	1.585968E-05
7.547650E+03	8.551331E-04	1.584359E-05
7.557594E+03	8.553239E-04	1.584767E-05
7.567539E+03	8.564844E-04	1.586973E-05
7.577483E+03	8.585200E-04	1.590801E-05
7.587427E+03	8.612950E-04	1.596000E-05
7.597371E+03	8.647023E-04	1.602372E-05
7.607315E+03	8.686540E-04	1.609753E-05
7.617260E+03	8.730697E-04	1.617996E-05
7.627204E+03	8.778396E-04	1.626896E-05
7.637148E+03	8.828937E-04	1.636324E-05
7.647092E+03	8.881529E-04	1.646133E-05
7.657036E+03	8.935397E-04	1.656180E-05
7.666981E+03	8.989914E-04	1.666349E-05
7.676925E+03	9.044220E-04	1.676480E-05
7.686869E+03	9.097601E-04	1.686441E-05
7.696813E+03	9.149491E-04	1.696127E-05
7.706757E+03	9.199112E-04	1.705394E-05
7.716702E+03	9.245974E-04	1.714150E-05
