#wls	flux	fluxerr
1.591072E+03	3.021750E-06	7.336955E-07
1.630849E+03	3.200914E-06	7.770319E-07
1.670626E+03	3.339513E-06	8.104987E-07
1.710403E+03	3.430755E-06	8.324539E-07
1.750180E+03	3.466760E-06	8.409932E-07
1.789957E+03	3.433275E-06	8.326687E-07
1.829733E+03	3.315631E-06	8.039362E-07
1.869510E+03	3.105251E-06	7.527320E-07
1.909287E+03	2.802288E-06	6.791121E-07
1.949064E+03	2.425092E-06	5.875411E-07
1.988841E+03	2.015944E-06	4.882772E-07
2.028617E+03	1.632996E-06	3.954097E-07
2.068394E+03	1.334039E-06	3.229247E-07
2.108171E+03	1.156910E-06	2.799620E-07
2.147948E+03	1.116907E-06	2.701963E-07
2.187725E+03	1.219937E-06	2.950249E-07
2.227501E+03	1.473238E-06	3.561632E-07
2.267278E+03	1.882455E-06	4.549374E-07
2.307055E+03	2.444165E-06	5.904788E-07
2.346832E+03	3.140933E-06	7.585340E-07
2.386609E+03	3.946553E-06	9.527357E-07
2.426386E+03	4.831308E-06	1.165878E-06
2.466162E+03	5.769093E-06	1.391635E-06
2.505939E+03	6.740782E-06	1.625373E-06
2.545716E+03	7.732844E-06	1.863814E-06
2.585493E+03	8.737028E-06	2.104955E-06
2.625270E+03	9.747571E-06	2.347397E-06
2.665046E+03	1.076426E-05	2.591078E-06
2.704823E+03	1.178756E-05	2.836102E-06
2.744600E+03	1.281919E-05	3.082871E-06
2.784377E+03	1.385960E-05	3.331481E-06
2.824154E+03	1.491585E-05	3.583616E-06
2.863930E+03	1.598703E-05	3.839045E-06
2.903707E+03	1.708139E-05	4.099729E-06
2.943484E+03	1.819792E-05	4.365414E-06
2.983261E+03	1.934585E-05	4.638294E-06
2.993205E+03	1.963768E-05	4.707620E-06
3.003149E+03	1.993128E-05	4.777350E-06
3.013094E+03	2.022674E-05	4.847500E-06
3.023038E+03	2.052553E-05	4.918427E-06
3.032982E+03	2.083592E-05	4.992110E-06
3.042926E+03	2.116068E-05	5.069210E-06
3.052870E+03	2.149545E-05	5.148683E-06
3.062815E+03	2.184507E-05	5.231686E-06
3.072759E+03	2.220541E-05	5.317227E-06
3.082703E+03	2.257542E-05	5.405057E-06
3.092647E+03	2.295413E-05	5.494940E-06
3.102591E+03	2.334390E-05	5.587440E-06
3.112536E+03	2.373742E-05	5.680803E-06
3.122480E+03	2.414046E-05	5.776416E-06
3.132424E+03	2.454905E-05	5.873323E-06
3.142368E+03	2.496252E-05	5.971365E-06
3.152312E+03	2.538026E-05	6.070396E-06
3.162257E+03	2.580171E-05	6.170279E-06
3.172201E+03	2.622638E-05	6.270895E-06
3.182145E+03	2.665742E-05	6.373003E-06
3.192089E+03	2.708721E-05	6.474774E-06
3.202033E+03	2.752271E-05	6.577873E-06
3.211978E+03	2.795995E-05	6.681355E-06
3.221922E+03	2.839482E-05	6.784230E-06
3.231866E+03	2.883862E-05	6.889203E-06
3.241810E+03	2.927962E-05	6.993468E-06
3.251754E+03	2.972150E-05	7.097909E-06
3.261699E+03	3.016821E-05	7.203463E-06
3.271643E+03	3.061163E-05	7.308192E-06
3.281587E+03	3.105985E-05	7.414030E-06
3.291531E+03	3.150883E-05	7.520009E-06
3.301475E+03	3.195859E-05	7.626133E-06
3.311420E+03	3.240918E-05	7.732418E-06
3.321364E+03	3.286069E-05	7.838883E-06
3.331308E+03	3.331325E-05	7.945556E-06
3.341252E+03	3.377143E-05	8.053527E-06
3.351196E+03	3.422657E-05	8.160735E-06
3.361141E+03	3.468779E-05	8.269351E-06
3.371085E+03	3.515088E-05	8.378368E-06
3.381029E+03	3.561607E-05	8.487845E-06
3.390973E+03	3.608361E-05	8.597840E-06
3.400917E+03	3.655379E-05	8.708421E-06
3.410862E+03	3.702692E-05	8.819659E-06
3.420806E+03	3.750812E-05	8.932775E-06
3.430750E+03	3.798814E-05	9.045565E-06
3.440694E+03	3.847700E-05	9.160417E-06
3.450638E+03	3.897026E-05	9.276270E-06
3.460583E+03	3.946830E-05	9.393212E-06
3.470527E+03	3.997150E-05	9.511336E-06
3.480471E+03	4.048027E-05	9.630737E-06
3.490415E+03	4.099502E-05	9.751512E-06
3.500359E+03	4.152140E-05	9.875003E-06
3.510304E+03	4.204946E-05	9.998844E-06
3.520248E+03	4.259014E-05	1.012563E-05
3.530192E+03	4.313331E-05	1.025296E-05
3.540136E+03	4.369013E-05	1.038348E-05
3.550080E+03	4.425575E-05	1.051604E-05
3.560025E+03	4.483067E-05	1.065076E-05
3.569969E+03	4.541538E-05	1.078774E-05
3.579913E+03	4.601038E-05	1.092711E-05
3.589857E+03	4.662191E-05	1.107035E-05
3.599802E+03	4.723909E-05	1.121487E-05
3.609746E+03	4.786815E-05	1.136215E-05
3.619690E+03	4.851551E-05	1.151370E-05
3.629634E+03	4.917587E-05	1.166829E-05
3.639578E+03	4.984985E-05	1.182603E-05
3.649523E+03	5.053187E-05	1.198562E-05
3.659467E+03	5.123460E-05	1.215005E-05
3.669411E+03	5.195256E-05	1.231802E-05
3.679355E+03	5.269256E-05	1.249115E-05
3.689299E+03	5.344266E-05	1.266660E-05
3.699244E+03	5.420958E-05	1.284596E-05
3.709188E+03	5.500035E-05	1.303089E-05
3.719132E+03	5.580254E-05	1.321845E-05
3.729076E+03	5.662961E-05	1.341182E-05
3.739020E+03	5.746876E-05	1.360797E-05
3.748965E+03	5.833375E-05	1.381016E-05
3.758909E+03	5.921823E-05	1.401687E-05
3.768853E+03	6.011529E-05	1.422647E-05
3.778797E+03	6.103892E-05	1.444226E-05
3.788741E+03	6.198217E-05	1.466261E-05
3.798686E+03	6.294469E-05	1.488742E-05
3.808630E+03	6.392608E-05	1.511659E-05
3.818574E+03	6.493300E-05	1.535171E-05
3.828518E+03	6.594964E-05	1.558901E-05
3.838462E+03	6.698200E-05	1.582993E-05
3.848407E+03	6.802828E-05	1.607404E-05
3.858351E+03	6.909421E-05	1.632268E-05
3.868295E+03	7.016171E-05	1.657159E-05
3.878239E+03	7.124343E-05	1.682374E-05
3.888183E+03	7.232001E-05	1.707457E-05
3.898128E+03	7.340372E-05	1.732698E-05
3.908072E+03	7.447397E-05	1.757609E-05
3.918016E+03	7.554267E-05	1.782474E-05
3.927960E+03	7.658829E-05	1.806783E-05
3.937904E+03	7.762292E-05	1.830821E-05
3.947849E+03	7.863311E-05	1.854273E-05
3.957793E+03	7.961416E-05	1.877028E-05
3.967737E+03	8.055288E-05	1.898774E-05
3.977681E+03	8.146283E-05	1.919832E-05
3.987625E+03	8.233203E-05	1.939921E-05
3.997570E+03	8.315805E-05	1.958984E-05
4.007514E+03	8.393023E-05	1.976770E-05
4.017458E+03	8.466627E-05	1.993696E-05
4.027402E+03	8.535774E-05	2.009565E-05
4.037346E+03	8.600638E-05	2.024419E-05
4.047291E+03	8.661513E-05	2.038327E-05
4.057235E+03	8.718784E-05	2.051380E-05
4.067179E+03	8.772013E-05	2.063477E-05
4.077123E+03	8.823648E-05	2.075192E-05
4.087067E+03	8.873415E-05	2.086463E-05
4.097012E+03	8.922041E-05	2.097460E-05
4.106956E+03	8.969341E-05	2.108139E-05
4.116900E+03	9.018015E-05	2.119137E-05
4.126844E+03	9.067947E-05	2.130424E-05
4.136788E+03	9.119975E-05	2.142199E-05
4.146733E+03	9.173988E-05	2.154434E-05
4.156677E+03	9.232735E-05	2.167774E-05
4.166621E+03	9.296091E-05	2.182190E-05
4.176565E+03	9.363898E-05	2.197644E-05
4.186509E+03	9.438885E-05	2.214776E-05
4.196454E+03	9.519898E-05	2.233314E-05
4.206398E+03	9.609671E-05	2.253898E-05
4.216342E+03	9.707014E-05	2.276247E-05
4.226286E+03	9.813693E-05	2.300775E-05
4.236231E+03	9.931521E-05	2.327906E-05
4.246175E+03	1.005930E-04	2.357357E-05
4.256119E+03	1.019890E-04	2.389563E-05
4.266063E+03	1.035122E-04	2.424736E-05
4.276007E+03	1.051722E-04	2.463098E-05
4.285952E+03	1.069793E-04	2.504886E-05
4.295896E+03	1.089444E-04	2.550355E-05
4.305840E+03	1.110793E-04	2.599779E-05
4.315784E+03	1.133851E-04	2.653182E-05
4.325728E+03	1.158978E-04	2.711400E-05
4.335673E+03	1.186201E-04	2.774497E-05
4.345617E+03	1.215548E-04	2.842532E-05
4.355561E+03	1.247405E-04	2.916407E-05
4.365505E+03	1.281679E-04	2.995901E-05
4.375449E+03	1.318636E-04	3.081630E-05
4.385394E+03	1.358412E-04	3.173910E-05
4.395338E+03	1.401128E-04	3.273017E-05
4.405282E+03	1.446877E-04	3.379168E-05
4.415226E+03	1.495720E-04	3.492497E-05
4.425170E+03	1.547668E-04	3.613027E-05
4.435115E+03	1.602519E-04	3.740280E-05
4.445059E+03	1.660460E-04	3.874690E-05
4.455003E+03	1.720968E-04	4.015034E-05
4.464947E+03	1.783897E-04	4.160966E-05
4.474891E+03	1.849019E-04	4.311948E-05
4.484836E+03	1.915466E-04	4.465960E-05
4.494780E+03	1.982594E-04	4.621491E-05
4.504724E+03	2.050044E-04	4.777711E-05
4.514668E+03	2.116815E-04	4.932282E-05
4.524612E+03	2.181812E-04	5.082656E-05
4.534557E+03	2.244523E-04	5.227642E-05
4.544501E+03	2.303601E-04	5.364112E-05
4.554445E+03	2.358373E-04	5.490499E-05
4.564389E+03	2.408039E-04	5.604948E-05
4.574333E+03	2.451922E-04	5.705893E-05
4.584278E+03	2.489269E-04	5.791591E-05
4.594222E+03	2.520212E-04	5.862359E-05
4.604166E+03	2.544145E-04	5.916796E-05
4.614110E+03	2.561371E-04	5.955616E-05
4.624054E+03	2.572146E-04	5.979424E-05
4.633999E+03	2.576896E-04	5.989221E-05
4.643943E+03	2.576188E-04	5.986333E-05
4.653887E+03	2.570696E-04	5.972334E-05
4.663831E+03	2.560926E-04	5.948406E-05
4.673775E+03	2.547899E-04	5.916926E-05
4.683720E+03	2.532638E-04	5.880272E-05
4.693664E+03	2.515205E-04	5.838596E-05
4.703608E+03	2.497030E-04	5.795215E-05
4.713552E+03	2.478549E-04	5.751146E-05
4.723496E+03	2.460145E-04	5.707273E-05
4.733441E+03	2.442807E-04	5.665895E-05
4.743385E+03	2.426554E-04	5.627050E-05
4.753329E+03	2.412008E-04	5.592184E-05
4.763273E+03	2.399286E-04	5.561560E-05
4.773217E+03	2.389100E-04	5.536827E-05
4.783162E+03	2.381233E-04	5.517482E-05
4.793106E+03	2.376075E-04	5.504421E-05
4.803050E+03	2.373754E-04	5.497939E-05
4.812994E+03	2.374360E-04	5.498242E-05
4.822938E+03	2.377952E-04	5.505459E-05
4.832883E+03	2.384345E-04	5.519160E-05
4.842827E+03	2.393973E-04	5.540345E-05
4.852771E+03	2.406387E-04	5.567973E-05
4.862715E+03	2.421766E-04	5.602450E-05
4.872660E+03	2.439838E-04	5.643145E-05
4.882604E+03	2.460967E-04	5.690898E-05
4.892548E+03	2.484633E-04	5.744501E-05
4.902492E+03	2.511182E-04	5.804749E-05
4.912436E+03	2.540065E-04	5.870371E-05
4.922381E+03	2.571161E-04	5.941087E-05
4.932325E+03	2.604806E-04	6.017665E-05
4.942269E+03	2.640423E-04	6.098772E-05
4.952213E+03	2.678356E-04	6.185202E-05
4.962157E+03	2.718030E-04	6.275622E-05
4.972102E+03	2.759336E-04	6.369776E-05
4.982046E+03	2.802675E-04	6.468592E-05
4.991990E+03	2.847499E-04	6.570801E-05
5.001934E+03	2.894266E-04	6.677458E-05
5.011878E+03	2.942456E-04	6.787361E-05
5.021823E+03	2.992323E-04	6.901093E-05
5.031767E+03	3.043620E-04	7.018085E-05
5.041711E+03	3.096901E-04	7.139613E-05
5.051655E+03	3.151654E-04	7.264492E-05
5.061599E+03	3.208159E-04	7.393368E-05
5.071544E+03	3.266401E-04	7.526203E-05
5.081488E+03	3.326335E-04	7.662889E-05
5.091432E+03	3.387566E-04	7.802521E-05
5.101376E+03	3.450523E-04	7.946079E-05
5.111320E+03	3.514389E-04	8.091685E-05
5.121265E+03	3.579161E-04	8.239329E-05
5.131209E+03	3.644155E-04	8.387434E-05
5.141153E+03	3.709548E-04	8.536412E-05
5.151097E+03	3.774194E-04	8.683622E-05
5.161041E+03	3.837840E-04	8.828486E-05
5.170986E+03	3.899874E-04	8.969598E-05
5.180930E+03	3.959658E-04	9.105492E-05
5.190874E+03	4.016552E-04	9.234700E-05
5.200818E+03	4.069578E-04	9.354978E-05
5.210762E+03	4.118486E-04	9.465758E-05
5.220707E+03	4.162743E-04	9.565816E-05
5.230651E+03	4.201882E-04	9.654089E-05
5.240595E+03	4.235526E-04	9.729714E-05
5.250539E+03	4.263021E-04	9.791202E-05
5.260483E+03	4.284543E-04	9.838957E-05
5.270428E+03	4.300008E-04	9.872799E-05
5.280372E+03	4.309431E-04	9.892766E-05
5.290316E+03	4.312922E-04	9.899120E-05
5.300260E+03	4.310309E-04	9.891473E-05
5.310204E+03	4.302606E-04	9.872156E-05
5.320149E+03	4.289420E-04	9.840278E-05
5.330093E+03	4.271517E-04	9.797601E-05
5.340037E+03	4.249334E-04	9.745130E-05
5.349981E+03	4.222973E-04	9.683102E-05
5.359925E+03	4.193623E-04	9.614253E-05
5.369870E+03	4.161028E-04	9.537996E-05
5.379814E+03	4.125979E-04	9.456149E-05
5.389758E+03	4.088868E-04	9.369608E-05
5.399702E+03	4.049686E-04	9.278361E-05
5.409646E+03	4.009385E-04	9.184585E-05
5.419591E+03	3.967471E-04	9.087155E-05
5.429535E+03	3.924724E-04	8.987851E-05
5.439479E+03	3.880498E-04	8.885202E-05
5.449423E+03	3.834755E-04	8.779119E-05
5.459367E+03	3.788041E-04	8.670851E-05
5.469312E+03	3.739872E-04	8.559296E-05
5.479256E+03	3.689772E-04	8.443361E-05
5.489200E+03	3.637903E-04	8.323421E-05
5.499144E+03	3.584143E-04	8.199199E-05
5.509089E+03	3.528433E-04	8.070560E-05
5.519033E+03	3.470799E-04	7.937565E-05
5.528977E+03	3.411078E-04	7.799842E-05
5.538921E+03	3.350076E-04	7.659240E-05
5.548865E+03	3.287568E-04	7.515240E-05
5.558810E+03	3.224282E-04	7.369512E-05
5.568754E+03	3.160754E-04	7.223278E-05
5.578698E+03	3.097596E-04	7.077935E-05
5.588642E+03	3.035220E-04	6.934428E-05
5.598586E+03	2.974845E-04	6.795537E-05
5.608531E+03	2.916685E-04	6.661750E-05
5.618475E+03	2.861712E-04	6.535283E-05
5.628419E+03	2.810622E-04	6.417724E-05
5.638363E+03	2.764080E-04	6.310584E-05
5.648307E+03	2.722477E-04	6.214756E-05
5.658252E+03	2.686845E-04	6.132587E-05
5.668196E+03	2.657245E-04	6.064210E-05
5.678140E+03	2.634582E-04	6.011687E-05
5.688084E+03	2.618808E-04	5.974900E-05
5.698028E+03	2.610477E-04	5.955107E-05
5.707973E+03	2.609856E-04	5.952910E-05
5.717917E+03	2.616918E-04	5.968242E-05
5.727861E+03	2.632220E-04	6.002364E-05
5.737805E+03	2.655352E-04	6.054337E-05
5.747749E+03	2.686698E-04	6.125027E-05
5.757694E+03	2.725643E-04	6.213028E-05
5.767638E+03	2.772130E-04	6.318200E-05
5.777582E+03	2.825750E-04	6.439607E-05
5.787526E+03	2.885956E-04	6.575998E-05
5.797470E+03	2.951815E-04	6.725239E-05
5.807415E+03	3.022978E-04	6.886535E-05
5.817359E+03	3.097965E-04	7.056507E-05
5.827303E+03	3.176176E-04	7.233790E-05
5.837247E+03	3.255860E-04	7.414389E-05
5.847191E+03	3.335959E-04	7.595902E-05
5.857136E+03	3.415112E-04	7.775222E-05
5.867080E+03	3.491944E-04	7.949228E-05
5.877024E+03	3.565131E-04	8.114904E-05
5.886968E+03	3.633138E-04	8.268760E-05
5.896912E+03	3.695487E-04	8.409717E-05
5.906857E+03	3.750695E-04	8.534400E-05
5.916801E+03	3.798445E-04	8.642098E-05
5.926745E+03	3.838725E-04	8.732789E-05
5.936689E+03	3.870880E-04	8.804987E-05
5.946633E+03	3.895533E-04	8.860118E-05
5.956578E+03	3.912987E-04	8.898876E-05
5.966522E+03	3.924828E-04	8.924872E-05
5.976466E+03	3.931924E-04	8.940085E-05
5.986410E+03	3.935364E-04	8.946991E-05
5.996354E+03	3.937386E-04	8.950685E-05
6.006299E+03	3.939018E-04	8.953504E-05
6.016243E+03	3.942653E-04	8.960885E-05
6.026187E+03	3.949350E-04	8.975236E-05
6.036131E+03	3.961104E-04	9.001089E-05
6.046075E+03	3.979479E-04	9.041989E-05
6.056020E+03	4.005905E-04	9.101188E-05
6.065964E+03	4.041661E-04	9.181584E-05
6.075908E+03	4.087517E-04	9.284919E-05
6.085852E+03	4.145087E-04	9.414855E-05
6.095796E+03	4.214782E-04	9.572321E-05
6.105741E+03	4.296806E-04	9.757770E-05
6.115685E+03	4.392240E-04	9.973655E-05
6.125629E+03	4.500525E-04	1.021870E-04
6.135573E+03	4.621980E-04	1.049362E-04
6.145518E+03	4.756339E-04	1.079780E-04
6.155462E+03	4.903101E-04	1.113011E-04
6.165406E+03	5.061943E-04	1.148981E-04
6.175350E+03	5.230570E-04	1.187168E-04
6.185294E+03	5.408974E-04	1.227570E-04
6.195239E+03	5.595164E-04	1.269735E-04
6.205183E+03	5.787309E-04	1.313248E-04
6.215127E+03	5.983320E-04	1.357635E-04
6.225071E+03	6.180366E-04	1.402253E-04
6.235015E+03	6.376975E-04	1.446768E-04
6.244960E+03	6.569457E-04	1.490344E-04
6.254904E+03	6.756207E-04	1.532618E-04
6.264848E+03	6.933399E-04	1.572720E-04
6.274792E+03	7.098969E-04	1.610185E-04
6.284736E+03	7.250446E-04	1.644452E-04
6.294681E+03	7.386214E-04	1.675155E-04
6.304625E+03	7.503093E-04	1.701575E-04
6.314569E+03	7.600101E-04	1.723488E-04
6.324513E+03	7.676047E-04	1.740626E-04
6.334457E+03	7.730164E-04	1.752816E-04
6.344402E+03	7.761470E-04	1.759835E-04
6.354346E+03	7.771384E-04	1.762006E-04
6.364290E+03	7.759773E-04	1.759300E-04
6.374234E+03	7.727529E-04	1.751920E-04
6.384178E+03	7.675218E-04	1.739993E-04
6.394123E+03	7.605619E-04	1.724152E-04
6.404067E+03	7.519113E-04	1.704482E-04
6.414011E+03	7.418778E-04	1.681681E-04
6.423955E+03	7.305204E-04	1.655883E-04
6.433899E+03	7.181488E-04	1.627791E-04
6.443844E+03	7.048198E-04	1.597533E-04
6.453788E+03	6.907646E-04	1.565634E-04
6.463732E+03	6.761970E-04	1.532577E-04
6.473676E+03	6.611417E-04	1.498420E-04
6.483620E+03	6.457821E-04	1.463577E-04
6.493565E+03	6.302268E-04	1.428293E-04
6.503509E+03	6.145692E-04	1.392782E-04
6.513453E+03	5.988879E-04	1.357221E-04
6.523397E+03	5.832498E-04	1.321761E-04
6.533341E+03	5.677103E-04	1.286527E-04
6.543286E+03	5.523166E-04	1.251627E-04
6.553230E+03	5.371082E-04	1.217150E-04
6.563174E+03	5.221192E-04	1.183173E-04
6.573118E+03	5.073793E-04	1.149762E-04
6.583062E+03	4.928728E-04	1.116883E-04
6.593007E+03	4.787096E-04	1.084784E-04
6.602951E+03	4.648691E-04	1.053418E-04
6.612895E+03	4.513347E-04	1.022748E-04
6.622839E+03	4.382060E-04	9.929984E-05
6.632783E+03	4.254646E-04	9.641283E-05
6.642728E+03	4.130963E-04	9.361052E-05
6.652672E+03	4.011947E-04	9.091407E-05
6.662616E+03	3.897116E-04	8.831260E-05
6.672560E+03	3.787046E-04	8.581909E-05
6.682504E+03	3.682274E-04	8.344577E-05
6.692449E+03	3.582384E-04	8.118317E-05
6.702393E+03	3.487926E-04	7.904373E-05
6.712337E+03	3.399411E-04	7.703906E-05
6.722281E+03	3.316467E-04	7.516070E-05
6.732225E+03	3.239604E-04	7.342024E-05
6.742170E+03	3.169031E-04	7.182237E-05
6.752114E+03	3.105213E-04	7.037765E-05
6.762058E+03	3.047802E-04	6.907821E-05
6.772002E+03	2.997259E-04	6.793452E-05
6.781946E+03	2.953765E-04	6.695064E-05
6.791891E+03	2.917498E-04	6.613063E-05
6.801835E+03	2.888635E-04	6.547854E-05
6.811779E+03	2.867355E-04	6.499842E-05
6.821723E+03	2.853839E-04	6.469438E-05
6.831668E+03	2.848272E-04	6.457067E-05
6.841612E+03	2.850604E-04	6.462613E-05
6.851556E+03	2.861530E-04	6.487659E-05
6.861500E+03	2.881024E-04	6.532145E-05
6.871444E+03	2.909317E-04	6.596599E-05
6.881389E+03	2.946662E-04	6.681597E-05
6.891333E+03	2.993072E-04	6.787174E-05
6.901277E+03	3.049359E-04	6.915174E-05
6.911221E+03	3.115328E-04	7.065158E-05
6.921165E+03	3.191881E-04	7.239179E-05
6.931110E+03	3.279162E-04	7.437569E-05
6.941054E+03	3.377344E-04	7.660723E-05
6.950998E+03	3.487523E-04	7.911138E-05
6.960942E+03	3.609692E-04	8.188800E-05
6.970886E+03	3.744804E-04	8.495881E-05
6.980831E+03	3.893934E-04	8.834828E-05
6.990775E+03	4.057234E-04	9.205995E-05
7.000719E+03	4.235925E-04	9.612165E-05
7.010663E+03	4.431362E-04	1.005642E-04
7.020607E+03	4.643820E-04	1.053939E-04
7.030552E+03	4.874746E-04	1.106439E-04
7.040496E+03	5.125246E-04	1.163393E-04
7.050440E+03	5.396422E-04	1.225053E-04
7.060384E+03	5.689836E-04	1.291776E-04
7.070328E+03	6.005496E-04	1.363565E-04
7.080273E+03	6.344702E-04	1.440717E-04
7.090217E+03	6.708061E-04	1.523372E-04
7.100161E+03	7.095243E-04	1.611458E-04
7.110105E+03	7.507318E-04	1.705220E-04
7.120049E+03	7.943013E-04	1.804371E-04
7.129994E+03	8.400943E-04	1.908599E-04
7.139938E+03	8.878873E-04	2.017399E-04
7.149882E+03	9.372740E-04	2.129850E-04
7.159826E+03	9.879769E-04	2.245323E-04
7.169770E+03	1.039354E-03	2.362362E-04
7.179715E+03	1.090612E-03	2.479165E-04
7.189659E+03	1.141113E-03	2.594280E-04
7.199603E+03	1.189708E-03	2.705101E-04
7.209547E+03	1.235556E-03	2.809709E-04
7.219491E+03	1.277325E-03	2.905074E-04
7.229436E+03	1.313981E-03	2.988844E-04
7.239380E+03	1.344535E-03	3.058764E-04
7.249324E+03	1.367739E-03	3.111987E-04
7.259268E+03	1.382851E-03	3.146823E-04
7.269212E+03	1.389234E-03	3.161812E-04
7.279157E+03	1.386513E-03	3.156092E-04
7.289101E+03	1.374620E-03	3.129498E-04
7.299045E+03	1.353799E-03	3.082575E-04
7.308989E+03	1.324601E-03	3.016572E-04
7.318933E+03	1.287857E-03	2.933370E-04
7.328878E+03	1.244620E-03	2.835359E-04
7.338822E+03	1.196109E-03	2.725307E-04
7.348766E+03	1.143529E-03	2.605953E-04
7.358710E+03	1.088413E-03	2.480787E-04
7.368654E+03	1.031934E-03	2.352477E-04
7.378599E+03	9.751788E-04	2.223500E-04
7.388543E+03	9.193612E-04	2.096620E-04
7.398487E+03	8.651790E-04	1.973431E-04
7.408431E+03	8.134103E-04	1.855707E-04
7.418375E+03	7.646428E-04	1.744792E-04
7.428320E+03	7.190934E-04	1.641184E-04
7.438264E+03	6.770524E-04	1.545549E-04
7.448208E+03	6.386182E-04	1.458116E-04
7.458152E+03	6.037941E-04	1.378895E-04
7.468097E+03	5.725103E-04	1.307733E-04
7.478041E+03	5.446445E-04	1.244353E-04
7.487985E+03	5.200393E-04	1.188400E-04
7.497929E+03	4.985162E-04	1.139471E-04
7.507873E+03	4.798438E-04	1.097041E-04
7.517818E+03	4.639210E-04	1.060883E-04
7.527762E+03	4.504774E-04	1.030382E-04
7.537706E+03	4.394198E-04	1.005329E-04
7.547650E+03	4.305018E-04	9.851629E-05
7.557594E+03	4.236487E-04	9.697164E-05
7.567539E+03	4.186399E-04	9.584878E-05
7.577483E+03	4.153814E-04	9.512646E-05
7.587427E+03	4.137481E-04	9.477633E-05
7.597371E+03	4.136210E-04	9.477139E-05
7.607315E+03	4.148837E-04	9.508522E-05
7.617260E+03	4.174206E-04	9.569157E-05
7.627204E+03	4.211136E-04	9.656357E-05
7.637148E+03	4.258390E-04	9.767308E-05
7.647092E+03	4.314666E-04	9.899041E-05
7.657036E+03	4.378163E-04	1.004744E-04
7.666981E+03	4.448176E-04	1.021090E-04
7.676925E+03	4.522295E-04	1.038390E-04
7.686869E+03	4.599638E-04	1.056443E-04
7.696813E+03	4.677589E-04	1.074647E-04
7.706757E+03	4.754730E-04	1.092678E-04
7.716702E+03	4.829213E-04	1.110110E-04
