#wls	flux	fluxerr
1.583061E+03	1.669536E-01	9.791926E-03
1.622638E+03	1.706046E-01	9.363534E-03
1.662214E+03	1.740379E-01	8.899405E-03
1.701791E+03	1.771925E-01	8.401141E-03
1.741367E+03	1.800146E-01	7.871991E-03
1.780944E+03	1.824109E-01	7.314938E-03
1.820520E+03	1.842962E-01	6.735224E-03
1.860097E+03	1.855819E-01	6.139923E-03
1.899673E+03	1.861792E-01	5.538217E-03
1.939250E+03	1.860693E-01	4.943423E-03
1.978827E+03	1.853622E-01	4.373467E-03
2.018403E+03	1.844299E-01	3.852170E-03
2.057980E+03	1.840585E-01	3.409293E-03
2.097556E+03	1.851140E-01	3.071667E-03
2.137133E+03	1.874456E-01	2.844260E-03
2.176709E+03	1.907132E-01	2.716432E-03
2.216286E+03	1.947687E-01	2.675317E-03
2.255862E+03	1.997059E-01	2.710017E-03
2.295439E+03	2.051154E-01	2.797737E-03
2.335015E+03	2.102745E-01	2.904249E-03
2.374592E+03	2.147704E-01	3.003284E-03
2.414168E+03	2.184359E-01	3.078794E-03
2.453745E+03	2.212946E-01	3.125143E-03
2.493321E+03	2.236010E-01	3.147807E-03
2.532898E+03	2.259346E-01	3.164334E-03
2.572475E+03	2.295135E-01	3.208011E-03
2.612051E+03	2.361179E-01	3.326141E-03
2.651628E+03	2.455583E-01	3.543950E-03
2.691204E+03	2.562514E-01	3.854337E-03
2.730781E+03	2.671007E-01	4.228295E-03
2.770357E+03	2.774236E-01	4.634416E-03
2.809934E+03	2.867575E-01	5.041884E-03
2.849510E+03	2.947777E-01	5.422163E-03
2.889087E+03	3.012942E-01	5.750996E-03
2.928663E+03	3.062512E-01	6.009811E-03
2.968240E+03	3.096391E-01	6.184854E-03
2.978134E+03	3.102378E-01	6.214276E-03
2.988028E+03	3.107488E-01	6.237962E-03
2.997922E+03	3.111550E-01	6.255481E-03
3.007816E+03	3.114619E-01	6.266880E-03
3.017710E+03	3.116836E-01	6.272386E-03
3.027605E+03	3.118062E-01	6.271689E-03
3.037499E+03	3.118399E-01	6.264976E-03
3.047393E+03	3.117810E-01	6.252174E-03
3.057287E+03	3.116262E-01	6.233234E-03
3.067181E+03	3.113724E-01	6.208131E-03
3.077075E+03	3.110292E-01	6.177113E-03
3.086969E+03	3.105872E-01	6.140064E-03
3.096864E+03	3.100498E-01	6.097144E-03
3.106758E+03	3.094143E-01	6.048408E-03
3.116652E+03	3.086782E-01	5.993939E-03
3.126546E+03	3.078453E-01	5.933963E-03
3.136440E+03	3.069196E-01	5.868722E-03
3.146334E+03	3.058879E-01	5.798152E-03
3.156228E+03	3.047659E-01	5.722763E-03
3.166122E+03	3.035472E-01	5.642660E-03
3.176017E+03	3.022369E-01	5.558185E-03
3.185911E+03	3.008350E-01	5.469607E-03
3.195805E+03	2.993372E-01	5.377136E-03
3.205699E+03	2.977604E-01	5.281386E-03
3.215593E+03	2.960916E-01	5.182452E-03
3.225487E+03	2.943491E-01	5.081004E-03
3.235381E+03	2.925364E-01	4.977466E-03
3.245276E+03	2.906491E-01	4.872148E-03
3.255170E+03	2.887077E-01	4.765797E-03
3.265064E+03	2.867098E-01	4.658794E-03
3.274958E+03	2.846693E-01	4.551798E-03
3.284852E+03	2.825958E-01	4.445417E-03
3.294746E+03	2.805051E-01	4.340366E-03
3.304640E+03	2.784064E-01	4.237260E-03
3.314534E+03	2.763143E-01	4.136816E-03
3.324429E+03	2.742461E-01	4.039790E-03
3.334323E+03	2.722243E-01	3.947017E-03
3.344217E+03	2.702658E-01	3.859255E-03
3.354111E+03	2.683945E-01	3.777351E-03
3.364005E+03	2.666359E-01	3.702176E-03
3.373899E+03	2.650156E-01	3.634584E-03
3.383793E+03	2.635647E-01	3.575497E-03
3.393688E+03	2.623169E-01	3.525848E-03
3.403582E+03	2.613037E-01	3.486524E-03
3.413476E+03	2.605595E-01	3.458428E-03
3.423370E+03	2.601097E-01	3.442318E-03
3.433264E+03	2.599626E-01	3.438707E-03
3.443158E+03	2.600827E-01	3.447237E-03
3.453052E+03	2.603642E-01	3.466142E-03
3.462946E+03	2.607043E-01	3.493580E-03
3.472841E+03	2.610459E-01	3.528231E-03
3.482735E+03	2.613637E-01	3.569148E-03
3.492629E+03	2.616499E-01	3.615577E-03
3.502523E+03	2.619191E-01	3.667062E-03
3.512417E+03	2.621874E-01	3.723176E-03
3.522311E+03	2.624719E-01	3.783525E-03
3.532205E+03	2.628015E-01	3.847929E-03
3.542100E+03	2.632049E-01	3.916254E-03
3.551994E+03	2.637074E-01	3.988372E-03
3.561888E+03	2.643309E-01	4.064167E-03
3.571782E+03	2.651062E-01	4.143713E-03
3.581676E+03	2.660552E-01	4.227012E-03
3.591570E+03	2.671967E-01	4.314063E-03
3.601464E+03	2.685573E-01	4.405049E-03
3.611358E+03	2.701502E-01	4.499971E-03
3.621253E+03	2.719850E-01	4.598810E-03
3.631147E+03	2.740671E-01	4.701495E-03
3.641041E+03	2.763932E-01	4.807821E-03
3.650935E+03	2.789493E-01	4.917398E-03
3.660829E+03	2.817208E-01	5.029818E-03
3.670723E+03	2.846729E-01	5.144298E-03
3.680617E+03	2.877715E-01	5.260038E-03
3.690512E+03	2.909819E-01	5.376200E-03
3.700406E+03	2.942568E-01	5.491684E-03
3.710300E+03	2.975673E-01	5.605710E-03
3.720194E+03	3.008698E-01	5.717196E-03
3.730088E+03	3.041399E-01	5.825416E-03
3.739982E+03	3.073510E-01	5.929592E-03
3.749876E+03	3.104823E-01	6.029053E-03
3.759770E+03	3.135206E-01	6.123283E-03
3.769665E+03	3.164565E-01	6.211849E-03
3.779559E+03	3.192858E-01	6.294434E-03
3.789453E+03	3.220060E-01	6.370767E-03
3.799347E+03	3.246146E-01	6.440594E-03
3.809241E+03	3.271123E-01	6.503742E-03
3.819135E+03	3.294988E-01	6.560039E-03
3.829029E+03	3.317715E-01	6.609280E-03
3.838924E+03	3.339290E-01	6.651307E-03
3.848818E+03	3.359664E-01	6.685907E-03
3.858712E+03	3.378742E-01	6.712800E-03
3.868606E+03	3.396452E-01	6.731766E-03
3.878500E+03	3.412655E-01	6.742488E-03
3.888394E+03	3.427272E-01	6.744779E-03
3.898288E+03	3.440164E-01	6.738374E-03
3.908182E+03	3.451214E-01	6.723069E-03
3.918077E+03	3.460256E-01	6.698610E-03
3.927971E+03	3.467263E-01	6.665039E-03
3.937865E+03	3.472121E-01	6.622261E-03
3.947759E+03	3.474806E-01	6.570400E-03
3.957653E+03	3.475309E-01	6.509627E-03
3.967547E+03	3.473686E-01	6.440277E-03
3.977441E+03	3.469952E-01	6.362634E-03
3.987336E+03	3.464224E-01	6.277197E-03
3.997230E+03	3.456538E-01	6.184342E-03
4.007124E+03	3.447026E-01	6.084648E-03
4.017018E+03	3.435769E-01	5.978619E-03
4.026912E+03	3.422901E-01	5.866879E-03
4.036806E+03	3.408572E-01	5.750095E-03
4.046700E+03	3.392927E-01	5.628942E-03
4.056594E+03	3.376013E-01	5.503957E-03
4.066489E+03	3.357917E-01	5.375763E-03
4.076383E+03	3.338692E-01	5.244962E-03
4.086277E+03	3.318390E-01	5.112184E-03
4.096171E+03	3.297083E-01	4.978121E-03
4.106065E+03	3.274847E-01	4.843501E-03
4.115959E+03	3.251911E-01	4.709313E-03
4.125853E+03	3.228498E-01	4.576547E-03
4.135748E+03	3.204940E-01	4.446369E-03
4.145642E+03	3.181627E-01	4.320025E-03
4.155536E+03	3.158923E-01	4.198736E-03
4.165430E+03	3.137230E-01	4.083778E-03
4.175324E+03	3.116881E-01	3.976350E-03
4.185218E+03	3.098189E-01	3.877640E-03
4.195112E+03	3.081279E-01	3.788628E-03
4.205006E+03	3.066215E-01	3.710251E-03
4.214901E+03	3.052873E-01	3.643245E-03
4.224795E+03	3.041078E-01	3.588302E-03
4.234689E+03	3.030417E-01	3.545833E-03
4.244583E+03	3.020471E-01	3.516168E-03
4.254477E+03	3.010835E-01	3.499220E-03
4.264371E+03	3.001100E-01	3.494568E-03
4.274265E+03	2.991164E-01	3.502013E-03
4.284159E+03	2.981078E-01	3.521403E-03
4.294054E+03	2.971105E-01	3.552710E-03
4.303948E+03	2.961394E-01	3.595497E-03
4.313842E+03	2.952152E-01	3.649050E-03
4.323736E+03	2.943508E-01	3.712507E-03
4.333630E+03	2.935267E-01	3.784599E-03
4.343524E+03	2.927179E-01	3.863985E-03
4.353418E+03	2.919029E-01	3.949376E-03
4.363313E+03	2.910645E-01	4.039565E-03
4.373207E+03	2.902034E-01	4.133633E-03
4.383101E+03	2.893181E-01	4.230692E-03
4.392995E+03	2.884189E-01	4.330096E-03
4.402889E+03	2.875180E-01	4.431305E-03
4.412783E+03	2.866326E-01	4.533950E-03
4.422677E+03	2.857766E-01	4.637689E-03
4.432571E+03	2.849662E-01	4.742307E-03
4.442466E+03	2.842033E-01	4.847414E-03
4.452360E+03	2.834866E-01	4.952626E-03
4.462254E+03	2.828169E-01	5.057628E-03
4.472148E+03	2.821823E-01	5.161916E-03
4.482042E+03	2.815772E-01	5.265119E-03
4.491936E+03	2.809955E-01	5.366874E-03
4.501830E+03	2.804265E-01	5.466748E-03
4.511725E+03	2.798645E-01	5.564416E-03
4.521619E+03	2.793016E-01	5.659517E-03
4.531513E+03	2.787359E-01	5.751826E-03
4.541407E+03	2.781656E-01	5.841133E-03
4.551301E+03	2.775916E-01	5.927304E-03
4.561195E+03	2.770146E-01	6.010210E-03
4.571089E+03	2.764447E-01	6.089949E-03
4.580983E+03	2.758848E-01	6.166484E-03
4.590878E+03	2.753466E-01	6.239988E-03
4.600772E+03	2.748411E-01	6.310645E-03
4.610666E+03	2.743779E-01	6.378626E-03
4.620560E+03	2.739746E-01	6.444306E-03
4.630454E+03	2.736395E-01	6.507863E-03
4.640348E+03	2.733886E-01	6.569668E-03
4.650242E+03	2.732392E-01	6.630146E-03
4.660137E+03	2.732013E-01	6.689551E-03
4.670031E+03	2.732886E-01	6.748239E-03
4.679925E+03	2.735126E-01	6.806515E-03
4.689819E+03	2.738808E-01	6.864585E-03
4.699713E+03	2.743977E-01	6.922582E-03
4.709607E+03	2.750683E-01	6.980639E-03
4.719501E+03	2.758843E-01	7.038551E-03
4.729395E+03	2.768421E-01	7.096216E-03
4.739290E+03	2.779280E-01	7.153258E-03
4.749184E+03	2.791207E-01	7.209096E-03
4.759078E+03	2.804017E-01	7.263203E-03
4.768972E+03	2.817392E-01	7.314697E-03
4.778866E+03	2.830996E-01	7.362641E-03
4.788760E+03	2.844447E-01	7.405966E-03
4.798654E+03	2.857311E-01	7.443478E-03
4.808549E+03	2.869188E-01	7.474060E-03
4.818443E+03	2.879549E-01	7.496287E-03
4.828337E+03	2.888024E-01	7.509156E-03
4.838231E+03	2.894210E-01	7.511609E-03
4.848125E+03	2.897817E-01	7.502905E-03
4.858019E+03	2.898588E-01	7.482426E-03
4.867913E+03	2.896376E-01	7.449870E-03
4.877807E+03	2.891154E-01	7.405288E-03
4.887702E+03	2.882926E-01	7.348825E-03
4.897596E+03	2.871858E-01	7.281083E-03
4.907490E+03	2.858187E-01	7.202853E-03
4.917384E+03	2.842223E-01	7.115122E-03
4.927278E+03	2.824303E-01	7.018956E-03
4.937172E+03	2.804815E-01	6.915533E-03
4.947066E+03	2.784165E-01	6.806067E-03
4.956961E+03	2.762662E-01	6.691520E-03
4.966855E+03	2.740694E-01	6.573022E-03
4.976749E+03	2.718490E-01	6.451298E-03
4.986643E+03	2.696291E-01	6.327083E-03
4.996537E+03	2.674322E-01	6.201058E-03
5.006431E+03	2.652716E-01	6.073665E-03
5.016325E+03	2.631595E-01	5.945311E-03
5.026219E+03	2.611055E-01	5.816327E-03
5.036114E+03	2.591225E-01	5.687107E-03
5.046008E+03	2.572209E-01	5.557976E-03
5.055902E+03	2.554064E-01	5.429142E-03
5.065796E+03	2.536925E-01	5.300967E-03
5.075690E+03	2.520894E-01	5.173730E-03
5.085584E+03	2.506067E-01	5.047686E-03
5.095478E+03	2.492492E-01	4.922975E-03
5.105373E+03	2.480224E-01	4.799755E-03
5.115267E+03	2.469257E-01	4.678057E-03
5.125161E+03	2.459609E-01	4.557973E-03
5.135055E+03	2.451176E-01	4.439376E-03
5.144949E+03	2.443876E-01	4.322208E-03
5.154843E+03	2.437596E-01	4.206395E-03
5.164737E+03	2.432244E-01	4.091934E-03
5.174631E+03	2.427654E-01	3.978742E-03
5.184526E+03	2.423712E-01	3.866883E-03
5.194420E+03	2.420362E-01	3.756561E-03
5.204314E+03	2.417437E-01	3.647868E-03
5.214208E+03	2.414897E-01	3.541152E-03
5.224102E+03	2.412629E-01	3.436722E-03
5.233996E+03	2.410551E-01	3.334996E-03
5.243890E+03	2.408580E-01	3.236472E-03
5.253785E+03	2.406557E-01	3.141625E-03
5.263679E+03	2.404381E-01	3.051088E-03
5.273573E+03	2.401912E-01	2.965524E-03
5.283467E+03	2.399002E-01	2.885657E-03
5.293361E+03	2.395518E-01	2.812288E-03
5.303255E+03	2.391259E-01	2.746173E-03
5.313149E+03	2.386104E-01	2.688165E-03
5.323043E+03	2.379921E-01	2.639064E-03
5.332938E+03	2.372572E-01	2.599580E-03
5.342832E+03	2.364039E-01	2.570416E-03
5.352726E+03	2.354320E-01	2.551998E-03
5.362620E+03	2.343554E-01	2.544291E-03
5.372514E+03	2.332128E-01	2.547185E-03
5.382408E+03	2.320604E-01	2.560397E-03
5.392302E+03	2.309297E-01	2.583225E-03
5.402196E+03	2.298447E-01	2.614846E-03
5.412091E+03	2.288200E-01	2.654342E-03
5.421985E+03	2.278612E-01	2.700723E-03
5.431879E+03	2.269761E-01	2.753089E-03
5.441773E+03	2.261720E-01	2.810609E-03
5.451667E+03	2.254492E-01	2.872461E-03
5.461561E+03	2.248064E-01	2.937878E-03
5.471455E+03	2.242399E-01	3.006145E-03
5.481350E+03	2.237507E-01	3.076687E-03
5.491244E+03	2.233264E-01	3.148813E-03
5.501138E+03	2.229624E-01	3.221993E-03
5.511032E+03	2.226489E-01	3.295672E-03
5.520926E+03	2.223774E-01	3.369353E-03
5.530820E+03	2.221406E-01	3.442595E-03
5.540714E+03	2.219303E-01	3.514967E-03
5.550608E+03	2.217445E-01	3.586170E-03
5.560503E+03	2.215791E-01	3.655896E-03
5.570397E+03	2.214327E-01	3.723903E-03
5.580291E+03	2.213133E-01	3.790135E-03
5.590185E+03	2.212247E-01	3.854491E-03
5.600079E+03	2.211717E-01	3.916914E-03
5.609973E+03	2.211664E-01	3.977496E-03
5.619867E+03	2.212214E-01	4.036365E-03
5.629762E+03	2.213429E-01	4.093553E-03
5.639656E+03	2.215445E-01	4.149245E-03
5.649550E+03	2.218403E-01	4.203650E-03
5.659444E+03	2.222390E-01	4.256891E-03
5.669338E+03	2.227536E-01	4.309182E-03
5.679232E+03	2.233916E-01	4.360632E-03
5.689126E+03	2.241636E-01	4.411419E-03
5.699020E+03	2.250762E-01	4.461638E-03
5.708915E+03	2.261359E-01	4.511380E-03
5.718809E+03	2.273388E-01	4.560523E-03
5.728703E+03	2.286906E-01	4.609125E-03
5.738597E+03	2.301806E-01	4.656908E-03
5.748491E+03	2.318019E-01	4.703652E-03
5.758385E+03	2.335404E-01	4.748989E-03
5.768279E+03	2.353788E-01	4.792466E-03
5.778174E+03	2.372974E-01	4.833580E-03
5.788068E+03	2.392703E-01	4.871692E-03
5.797962E+03	2.412676E-01	4.906086E-03
5.807856E+03	2.432522E-01	4.935897E-03
5.817750E+03	2.451915E-01	4.960371E-03
5.827644E+03	2.470435E-01	4.978573E-03
5.837538E+03	2.487694E-01	4.989665E-03
5.847432E+03	2.503253E-01	4.992738E-03
5.857327E+03	2.516763E-01	4.987103E-03
5.867221E+03	2.527889E-01	4.972143E-03
5.877115E+03	2.536358E-01	4.947412E-03
5.887009E+03	2.541979E-01	4.912678E-03
5.896903E+03	2.544659E-01	4.867940E-03
5.906797E+03	2.544437E-01	4.813494E-03
5.916691E+03	2.541367E-01	4.749699E-03
5.926586E+03	2.535740E-01	4.677381E-03
5.936480E+03	2.527844E-01	4.597370E-03
5.946374E+03	2.518067E-01	4.510677E-03
5.956268E+03	2.506882E-01	4.418449E-03
5.966162E+03	2.494705E-01	4.321706E-03
5.976056E+03	2.482089E-01	4.221678E-03
5.985950E+03	2.469474E-01	4.119353E-03
5.995844E+03	2.457379E-01	4.015814E-03
6.005739E+03	2.446280E-01	3.912022E-03
6.015633E+03	2.436604E-01	3.808810E-03
6.025527E+03	2.428775E-01	3.706967E-03
6.035421E+03	2.423178E-01	3.607190E-03
6.045315E+03	2.420164E-01	3.510092E-03
6.055209E+03	2.420034E-01	3.416200E-03
6.065103E+03	2.423029E-01	3.325965E-03
6.074998E+03	2.429338E-01	3.239786E-03
6.084892E+03	2.439068E-01	3.158009E-03
6.094786E+03	2.452272E-01	3.080989E-03
6.104680E+03	2.468899E-01	3.009069E-03
6.114574E+03	2.488768E-01	2.942585E-03
6.124468E+03	2.511517E-01	2.881862E-03
6.134362E+03	2.536570E-01	2.827219E-03
6.144256E+03	2.563109E-01	2.778991E-03
6.154151E+03	2.590091E-01	2.737562E-03
6.164045E+03	2.616163E-01	2.703278E-03
6.173939E+03	2.639692E-01	2.676430E-03
6.183833E+03	2.658927E-01	2.657319E-03
6.193727E+03	2.672029E-01	2.646117E-03
6.203621E+03	2.677327E-01	2.642914E-03
6.213515E+03	2.674096E-01	2.648255E-03
6.223410E+03	2.663082E-01	2.663163E-03
6.233304E+03	2.645899E-01	2.688192E-03
6.243198E+03	2.624638E-01	2.723876E-03
6.253092E+03	2.601240E-01	2.770421E-03
6.262986E+03	2.577407E-01	2.827812E-03
6.272880E+03	2.554750E-01	2.896121E-03
6.282774E+03	2.534499E-01	2.975282E-03
6.292668E+03	2.517578E-01	3.065209E-03
6.302563E+03	2.504723E-01	3.165918E-03
6.312457E+03	2.496516E-01	3.277553E-03
6.322351E+03	2.493214E-01	3.400116E-03
6.332245E+03	2.495007E-01	3.533736E-03
6.342139E+03	2.502003E-01	3.678609E-03
6.352033E+03	2.514010E-01	3.834624E-03
6.361927E+03	2.530786E-01	4.001653E-03
6.371822E+03	2.552039E-01	4.179516E-03
6.381716E+03	2.577402E-01	4.367903E-03
6.391610E+03	2.606385E-01	4.566255E-03
6.401504E+03	2.638511E-01	4.773965E-03
6.411398E+03	2.673190E-01	4.990133E-03
6.421292E+03	2.709820E-01	5.213721E-03
6.431186E+03	2.747708E-01	5.443390E-03
6.441080E+03	2.786168E-01	5.677664E-03
6.450975E+03	2.824493E-01	5.914883E-03
6.460869E+03	2.861925E-01	6.153126E-03
6.470763E+03	2.897797E-01	6.390518E-03
6.480657E+03	2.931413E-01	6.624971E-03
6.490551E+03	2.962045E-01	6.854202E-03
6.500445E+03	2.989096E-01	7.076086E-03
6.510339E+03	3.011927E-01	7.288295E-03
6.520234E+03	3.030012E-01	7.488671E-03
6.530128E+03	3.042964E-01	7.675329E-03
6.540022E+03	3.050372E-01	7.846273E-03
6.549916E+03	3.052233E-01	8.000528E-03
6.559810E+03	3.048370E-01	8.136698E-03
6.569704E+03	3.038979E-01	8.254404E-03
6.579598E+03	3.024217E-01	8.353233E-03
6.589492E+03	3.004373E-01	8.433218E-03
6.599387E+03	2.979871E-01	8.494867E-03
6.609281E+03	2.951099E-01	8.538693E-03
6.619175E+03	2.918545E-01	8.565612E-03
6.629069E+03	2.882727E-01	8.576732E-03
6.638963E+03	2.844235E-01	8.573507E-03
6.648857E+03	2.803505E-01	8.557030E-03
6.658751E+03	2.761166E-01	8.529083E-03
6.668645E+03	2.717669E-01	8.491005E-03
6.678540E+03	2.673488E-01	8.444283E-03
6.688434E+03	2.629063E-01	8.390375E-03
6.698328E+03	2.584799E-01	8.330692E-03
6.708222E+03	2.541110E-01	8.266730E-03
6.718116E+03	2.498235E-01	8.199456E-03
6.728010E+03	2.456507E-01	8.130185E-03
6.737904E+03	2.416178E-01	8.059986E-03
6.747799E+03	2.377454E-01	7.989796E-03
6.757693E+03	2.340511E-01	7.920459E-03
6.767587E+03	2.305481E-01	7.852679E-03
6.777481E+03	2.272467E-01	7.787052E-03
6.787375E+03	2.241493E-01	7.723904E-03
6.797269E+03	2.212642E-01	7.663746E-03
6.807163E+03	2.185924E-01	7.606832E-03
6.817057E+03	2.161289E-01	7.553185E-03
6.826952E+03	2.138744E-01	7.503012E-03
6.836846E+03	2.118239E-01	7.456300E-03
6.846740E+03	2.099669E-01	7.412826E-03
6.856634E+03	2.082956E-01	7.372440E-03
6.866528E+03	2.068048E-01	7.335065E-03
6.876422E+03	2.054804E-01	7.300296E-03
6.886316E+03	2.043111E-01	7.267810E-03
6.896211E+03	2.032890E-01	7.237382E-03
6.906105E+03	2.023974E-01	7.208470E-03
6.915999E+03	2.016232E-01	7.180637E-03
6.925893E+03	2.009484E-01	7.153277E-03
6.935787E+03	2.003668E-01	7.126182E-03
6.945681E+03	1.998599E-01	7.098706E-03
6.955575E+03	1.994130E-01	7.070332E-03
6.965469E+03	1.990070E-01	7.040395E-03
6.975364E+03	1.986309E-01	7.008508E-03
6.985258E+03	1.982659E-01	6.974015E-03
6.995152E+03	1.979053E-01	6.936689E-03
7.005046E+03	1.975229E-01	6.895638E-03
7.014940E+03	1.971133E-01	6.850694E-03
7.024834E+03	1.966600E-01	6.801322E-03
7.034728E+03	1.961556E-01	6.747316E-03
7.044623E+03	1.955827E-01	6.688131E-03
7.054517E+03	1.949416E-01	6.623854E-03
7.064411E+03	1.942189E-01	6.554114E-03
7.074305E+03	1.934158E-01	6.479048E-03
7.084199E+03	1.925324E-01	6.398766E-03
7.094093E+03	1.915714E-01	6.313472E-03
7.103987E+03	1.905337E-01	6.223320E-03
7.113881E+03	1.894268E-01	6.128677E-03
7.123776E+03	1.882633E-01	6.030086E-03
7.133670E+03	1.870492E-01	5.927856E-03
7.143564E+03	1.857987E-01	5.822564E-03
7.153458E+03	1.845141E-01	5.714396E-03
7.163352E+03	1.832128E-01	5.604008E-03
7.173246E+03	1.818994E-01	5.491646E-03
7.183140E+03	1.805813E-01	5.377632E-03
7.193035E+03	1.792646E-01	5.262245E-03
7.202929E+03	1.779541E-01	5.145718E-03
7.212823E+03	1.766534E-01	5.028244E-03
7.222717E+03	1.753686E-01	4.910084E-03
7.232611E+03	1.740933E-01	4.791148E-03
7.242505E+03	1.728395E-01	4.671857E-03
7.252399E+03	1.716030E-01	4.552182E-03
7.262293E+03	1.703788E-01	4.432094E-03
7.272188E+03	1.691773E-01	4.311962E-03
7.282082E+03	1.679893E-01	4.191659E-03
7.291976E+03	1.668253E-01	4.071563E-03
7.301870E+03	1.656805E-01	3.951679E-03
7.311764E+03	1.645586E-01	3.832221E-03
7.321658E+03	1.634635E-01	3.713424E-03
7.331552E+03	1.623962E-01	3.595456E-03
7.341447E+03	1.613654E-01	3.478675E-03
7.351341E+03	1.603771E-01	3.363374E-03
7.361235E+03	1.594300E-01	3.249712E-03
7.371129E+03	1.585269E-01	3.137964E-03
7.381023E+03	1.576710E-01	3.028436E-03
7.390917E+03	1.568620E-01	2.921400E-03
7.400811E+03	1.560991E-01	2.817172E-03
7.410705E+03	1.553814E-01	2.716119E-03
7.420600E+03	1.547113E-01	2.618728E-03
7.430494E+03	1.540873E-01	2.525484E-03
7.440388E+03	1.535071E-01	2.436945E-03
7.450282E+03	1.529758E-01	2.353862E-03
7.460176E+03	1.524864E-01	2.276890E-03
7.470070E+03	1.520391E-01	2.206875E-03
7.479964E+03	1.516333E-01	2.144729E-03
7.489859E+03	1.512680E-01	2.091414E-03
7.499753E+03	1.509416E-01	2.047906E-03
7.509647E+03	1.506482E-01	2.015109E-03
7.519541E+03	1.503848E-01	1.993901E-03
7.529435E+03	1.501514E-01	1.985072E-03
7.539329E+03	1.499392E-01	1.989119E-03
7.549223E+03	1.497457E-01	2.006288E-03
7.559117E+03	1.495546E-01	2.036077E-03
7.569012E+03	1.493629E-01	2.077872E-03
7.578906E+03	1.491535E-01	2.130685E-03
7.588800E+03	1.489105E-01	2.193394E-03
7.598694E+03	1.486155E-01	2.264747E-03
7.608588E+03	1.482534E-01	2.343467E-03
7.618482E+03	1.478013E-01	2.428127E-03
7.628376E+03	1.472452E-01	2.517420E-03
7.638271E+03	1.465900E-01	2.610378E-03
7.648165E+03	1.458511E-01	2.706306E-03
7.658059E+03	1.450459E-01	2.804641E-03
7.667953E+03	1.441996E-01	2.905111E-03
7.677847E+03	1.433317E-01	3.007461E-03
