#wls	flux	fluxerr
1.583061E+03	1.691112E-01	9.675843E-03
1.622638E+03	1.728793E-01	9.251288E-03
1.662214E+03	1.764223E-01	8.790559E-03
1.701791E+03	1.796945E-01	8.296065E-03
1.741367E+03	1.826205E-01	7.770069E-03
1.780944E+03	1.851216E-01	7.216315E-03
1.820520E+03	1.870928E-01	6.639349E-03
1.860097E+03	1.884618E-01	6.046981E-03
1.899673E+03	1.891564E-01	5.448900E-03
1.939250E+03	1.891439E-01	4.857893E-03
1.978827E+03	1.885544E-01	4.292272E-03
2.018403E+03	1.877517E-01	3.775379E-03
2.057980E+03	1.875500E-01	3.337194E-03
2.097556E+03	1.889077E-01	3.005861E-03
2.137133E+03	1.915868E-01	2.785446E-03
2.176709E+03	1.951951E-01	2.664824E-03
2.216286E+03	1.995521E-01	2.630292E-03
2.255862E+03	2.046813E-01	2.669293E-03
2.295439E+03	2.101933E-01	2.758794E-03
2.335015E+03	2.153607E-01	2.864139E-03
2.374592E+03	2.197946E-01	2.959184E-03
2.414168E+03	2.233564E-01	3.028330E-03
2.453745E+03	2.261108E-01	3.066778E-03
2.493321E+03	2.283267E-01	3.080622E-03
2.532898E+03	2.305761E-01	3.087806E-03
2.572475E+03	2.340204E-01	3.121252E-03
2.612051E+03	2.404812E-01	3.229059E-03
2.651628E+03	2.497483E-01	3.437669E-03
2.691204E+03	2.602248E-01	3.740634E-03
2.730781E+03	2.708883E-01	4.109533E-03
2.770357E+03	2.810591E-01	4.512453E-03
2.809934E+03	2.902773E-01	4.918195E-03
2.849510E+03	2.982399E-01	5.298394E-03
2.889087E+03	3.047518E-01	5.628656E-03
2.928663E+03	3.097320E-01	5.889892E-03
2.968240E+03	3.131608E-01	6.068084E-03
2.978134E+03	3.137731E-01	6.098410E-03
2.988028E+03	3.142871E-01	6.122804E-03
2.997922E+03	3.147080E-01	6.141280E-03
3.007816E+03	3.150342E-01	6.153739E-03
3.017710E+03	3.152664E-01	6.160139E-03
3.027605E+03	3.154116E-01	6.160583E-03
3.037499E+03	3.154602E-01	6.154863E-03
3.047393E+03	3.154227E-01	6.143182E-03
3.057287E+03	3.152893E-01	6.125367E-03
3.067181E+03	3.150640E-01	6.101530E-03
3.077075E+03	3.147444E-01	6.071674E-03
3.086969E+03	3.143342E-01	6.035940E-03
3.096864E+03	3.138311E-01	5.994373E-03
3.106758E+03	3.132332E-01	5.947040E-03
3.116652E+03	3.125447E-01	5.894152E-03
3.126546E+03	3.117580E-01	5.835701E-03
3.136440E+03	3.108836E-01	5.772056E-03
3.146334E+03	3.099149E-01	5.703269E-03
3.156228E+03	3.088568E-01	5.629637E-03
3.166122E+03	3.077093E-01	5.551378E-03
3.176017E+03	3.064726E-01	5.468738E-03
3.185911E+03	3.051529E-01	5.382091E-03
3.195805E+03	3.037513E-01	5.291732E-03
3.205699E+03	3.022650E-01	5.197917E-03
3.215593E+03	3.007119E-01	5.101270E-03
3.225487E+03	2.990803E-01	5.001933E-03
3.235381E+03	2.973890E-01	4.900583E-03
3.245276E+03	2.956343E-01	4.797533E-03
3.255170E+03	2.938267E-01	4.693355E-03
3.265064E+03	2.919785E-01	4.588662E-03
3.274958E+03	2.900895E-01	4.483882E-03
3.284852E+03	2.881785E-01	4.379762E-03
3.294746E+03	2.862564E-01	4.276936E-03
3.304640E+03	2.843322E-01	4.176023E-03
3.314534E+03	2.824203E-01	4.077735E-03
3.324429E+03	2.805369E-01	3.982823E-03
3.334323E+03	2.787033E-01	3.892115E-03
3.344217E+03	2.769319E-01	3.806318E-03
3.354111E+03	2.752509E-01	3.726362E-03
3.364005E+03	2.736761E-01	3.653007E-03
3.373899E+03	2.722325E-01	3.587130E-03
3.383793E+03	2.709491E-01	3.529653E-03
3.393688E+03	2.698429E-01	3.481325E-03
3.403582E+03	2.689476E-01	3.443094E-03
3.413476E+03	2.682855E-01	3.415738E-03
3.423370E+03	2.678672E-01	3.399857E-03
3.433264E+03	2.677027E-01	3.396009E-03
3.443158E+03	2.677501E-01	3.403785E-03
3.453052E+03	2.679047E-01	3.421457E-03
3.462946E+03	2.680618E-01	3.447168E-03
3.472841E+03	2.681763E-01	3.479727E-03
3.482735E+03	2.682483E-01	3.518464E-03
3.492629E+03	2.682816E-01	3.562733E-03
3.502523E+03	2.682933E-01	3.612049E-03
3.512417E+03	2.683127E-01	3.666110E-03
3.522311E+03	2.683630E-01	3.724568E-03
3.532205E+03	2.684748E-01	3.787225E-03
3.542100E+03	2.686796E-01	3.853953E-03
3.551994E+03	2.690068E-01	3.924668E-03
3.561888E+03	2.694841E-01	3.999319E-03
3.571782E+03	2.701369E-01	4.077895E-03
3.581676E+03	2.709876E-01	4.160397E-03
3.591570E+03	2.720578E-01	4.246874E-03
3.601464E+03	2.733625E-01	4.337315E-03
3.611358E+03	2.749174E-01	4.431770E-03
3.621253E+03	2.767233E-01	4.530074E-03
3.631147E+03	2.787884E-01	4.632204E-03
3.641041E+03	2.811014E-01	4.737829E-03
3.650935E+03	2.836484E-01	4.846567E-03
3.660829E+03	2.864126E-01	4.957982E-03
3.670723E+03	2.893613E-01	5.071343E-03
3.680617E+03	2.924467E-01	5.185628E-03
3.690512E+03	2.956369E-01	5.300063E-03
3.700406E+03	2.988852E-01	5.413581E-03
3.710300E+03	3.021550E-01	5.525272E-03
3.720194E+03	3.054135E-01	5.634273E-03
3.730088E+03	3.086244E-01	5.739653E-03
3.739982E+03	3.117705E-01	5.840816E-03
3.749876E+03	3.148304E-01	5.937097E-03
3.759770E+03	3.177929E-01	6.028029E-03
3.769665E+03	3.206519E-01	6.113243E-03
3.779559E+03	3.234085E-01	6.192536E-03
3.789453E+03	3.260574E-01	6.265587E-03
3.799347E+03	3.286007E-01	6.332238E-03
3.809241E+03	3.310419E-01	6.392377E-03
3.819135E+03	3.333814E-01	6.445845E-03
3.829029E+03	3.356182E-01	6.492477E-03
3.838924E+03	3.377535E-01	6.532165E-03
3.848818E+03	3.397779E-01	6.564619E-03
3.858712E+03	3.416813E-01	6.589548E-03
3.868606E+03	3.434632E-01	6.606869E-03
3.878500E+03	3.451053E-01	6.616178E-03
3.888394E+03	3.465961E-01	6.617229E-03
3.898288E+03	3.479254E-01	6.609825E-03
3.908182E+03	3.490735E-01	6.593619E-03
3.918077E+03	3.500328E-01	6.568526E-03
3.927971E+03	3.507894E-01	6.534372E-03
3.937865E+03	3.513354E-01	6.491136E-03
3.947759E+03	3.516651E-01	6.438868E-03
3.957653E+03	3.517833E-01	6.377845E-03
3.967547E+03	3.516895E-01	6.308279E-03
3.977441E+03	3.513854E-01	6.230447E-03
3.987336E+03	3.508877E-01	6.144928E-03
3.997230E+03	3.501982E-01	6.052054E-03
4.007124E+03	3.493272E-01	5.952337E-03
4.017018E+03	3.482892E-01	5.846381E-03
4.026912E+03	3.470923E-01	5.734699E-03
4.036806E+03	3.457559E-01	5.618016E-03
4.046700E+03	3.442948E-01	5.496996E-03
4.056594E+03	3.427138E-01	5.372163E-03
4.066489E+03	3.410212E-01	5.244123E-03
4.076383E+03	3.392239E-01	5.113491E-03
4.086277E+03	3.373238E-01	4.980840E-03
4.096171E+03	3.353188E-01	4.846725E-03
4.106065E+03	3.332215E-01	4.711953E-03
4.115959E+03	3.310508E-01	4.577455E-03
4.125853E+03	3.288290E-01	4.444231E-03
4.135748E+03	3.265923E-01	4.313489E-03
4.145642E+03	3.243726E-01	4.186393E-03
4.155536E+03	3.222190E-01	4.064344E-03
4.165430E+03	3.201681E-01	3.948590E-03
4.175324E+03	3.182535E-01	3.840370E-03
4.185218E+03	3.165043E-01	3.740891E-03
4.195112E+03	3.149455E-01	3.651348E-03
4.205006E+03	3.135665E-01	3.572559E-03
4.214901E+03	3.123595E-01	3.505425E-03
4.224795E+03	3.113025E-01	3.450701E-03
4.234689E+03	3.103454E-01	3.408828E-03
4.244583E+03	3.094401E-01	3.380180E-03
4.254477E+03	3.085448E-01	3.364694E-03
4.264371E+03	3.076052E-01	3.361854E-03
4.274265E+03	3.066022E-01	3.371366E-03
4.284159E+03	3.055541E-01	3.393185E-03
4.294054E+03	3.044799E-01	3.427120E-03
4.303948E+03	3.034023E-01	3.472694E-03
4.313842E+03	3.023458E-01	3.529089E-03
4.323736E+03	3.013225E-01	3.595306E-03
4.333630E+03	3.003086E-01	3.669915E-03
4.343524E+03	2.992803E-01	3.751486E-03
4.353418E+03	2.982216E-01	3.838707E-03
4.363313E+03	2.971267E-01	3.930437E-03
4.373207E+03	2.959982E-01	4.025709E-03
4.383101E+03	2.948446E-01	4.123716E-03
4.392995E+03	2.936773E-01	4.223787E-03
4.402889E+03	2.925169E-01	4.325473E-03
4.412783E+03	2.913801E-01	4.428378E-03
4.422677E+03	2.902888E-01	4.532280E-03
4.432571E+03	2.892616E-01	4.637001E-03
4.442466E+03	2.882952E-01	4.742094E-03
4.452360E+03	2.873903E-01	4.847225E-03
4.462254E+03	2.865422E-01	4.952009E-03
4.472148E+03	2.857401E-01	5.055990E-03
4.482042E+03	2.849764E-01	5.158780E-03
4.491936E+03	2.842401E-01	5.259952E-03
4.501830E+03	2.835218E-01	5.359117E-03
4.511725E+03	2.828148E-01	5.455948E-03
4.521619E+03	2.821136E-01	5.550152E-03
4.531513E+03	2.814095E-01	5.641387E-03
4.541407E+03	2.807032E-01	5.729503E-03
4.551301E+03	2.799957E-01	5.814375E-03
4.561195E+03	2.792892E-01	5.895926E-03
4.571089E+03	2.785915E-01	5.974207E-03
4.580983E+03	2.779084E-01	6.049252E-03
4.590878E+03	2.772510E-01	6.121230E-03
4.600772E+03	2.766298E-01	6.190318E-03
4.610666E+03	2.760578E-01	6.256769E-03
4.620560E+03	2.755464E-01	6.320823E-03
4.630454E+03	2.751088E-01	6.382770E-03
4.640348E+03	2.747589E-01	6.442937E-03
4.650242E+03	2.745133E-01	6.501732E-03
4.660137E+03	2.743837E-01	6.559454E-03
4.670031E+03	2.743831E-01	6.616439E-03
4.679925E+03	2.745243E-01	6.673032E-03
4.689819E+03	2.748131E-01	6.729396E-03
4.699713E+03	2.752558E-01	6.785719E-03
4.709607E+03	2.758540E-01	6.842055E-03
4.719501E+03	2.766052E-01	6.898351E-03
4.729395E+03	2.775010E-01	6.954397E-03
4.739290E+03	2.785290E-01	7.009867E-03
4.749184E+03	2.796712E-01	7.064277E-03
4.759078E+03	2.809040E-01	7.116989E-03
4.768972E+03	2.822000E-01	7.167257E-03
4.778866E+03	2.835263E-01	7.214186E-03
4.788760E+03	2.848473E-01	7.256801E-03
4.798654E+03	2.861180E-01	7.293885E-03
4.808549E+03	2.872886E-01	7.324108E-03
4.818443E+03	2.883193E-01	7.346403E-03
4.828337E+03	2.891619E-01	7.359502E-03
4.838231E+03	2.897776E-01	7.362405E-03
4.848125E+03	2.901367E-01	7.354370E-03
4.858019E+03	2.902158E-01	7.334852E-03
4.867913E+03	2.900001E-01	7.303544E-03
4.877807E+03	2.894779E-01	7.260268E-03
4.887702E+03	2.886610E-01	7.205458E-03
4.897596E+03	2.875618E-01	7.139590E-03
4.907490E+03	2.862031E-01	7.063416E-03
4.917384E+03	2.846183E-01	6.977964E-03
4.927278E+03	2.828455E-01	6.884378E-03
4.937172E+03	2.809227E-01	6.783795E-03
4.947066E+03	2.788873E-01	6.677316E-03
4.956961E+03	2.767786E-01	6.566083E-03
4.966855E+03	2.746289E-01	6.451038E-03
4.976749E+03	2.724610E-01	6.332887E-03
4.986643E+03	2.703027E-01	6.212428E-03
4.996537E+03	2.681668E-01	6.090100E-03
5.006431E+03	2.660703E-01	5.966415E-03
5.016325E+03	2.640243E-01	5.841743E-03
5.026219E+03	2.620315E-01	5.716255E-03
5.036114E+03	2.601087E-01	5.590423E-03
5.046008E+03	2.582607E-01	5.464445E-03
5.055902E+03	2.564980E-01	5.338628E-03
5.065796E+03	2.548339E-01	5.213323E-03
5.075690E+03	2.532745E-01	5.088721E-03
5.085584E+03	2.518310E-01	4.965105E-03
5.095478E+03	2.505130E-01	4.842710E-03
5.105373E+03	2.493238E-01	4.721646E-03
5.115267E+03	2.482681E-01	4.602041E-03
5.125161E+03	2.473385E-01	4.483809E-03
5.135055E+03	2.465305E-01	4.366936E-03
5.144949E+03	2.458317E-01	4.251291E-03
5.154843E+03	2.452336E-01	4.136848E-03
5.164737E+03	2.447208E-01	4.023504E-03
5.174631E+03	2.442784E-01	3.911211E-03
5.184526E+03	2.438946E-01	3.800031E-03
5.194420E+03	2.435606E-01	3.690125E-03
5.204314E+03	2.432629E-01	3.581636E-03
5.214208E+03	2.429948E-01	3.474881E-03
5.224102E+03	2.427510E-01	3.370252E-03
5.233996E+03	2.425168E-01	3.268082E-03
5.243890E+03	2.422893E-01	3.168947E-03
5.253785E+03	2.420504E-01	3.073291E-03
5.263679E+03	2.417962E-01	2.981834E-03
5.273573E+03	2.415056E-01	2.895153E-03
5.283467E+03	2.411691E-01	2.814049E-03
5.293361E+03	2.407721E-01	2.739317E-03
5.303255E+03	2.402982E-01	2.671774E-03
5.313149E+03	2.397397E-01	2.612338E-03
5.323043E+03	2.390781E-01	2.561775E-03
5.332938E+03	2.383115E-01	2.520951E-03
5.342832E+03	2.374335E-01	2.490543E-03
5.352726E+03	2.364489E-01	2.471085E-03
5.362620E+03	2.353731E-01	2.462616E-03
5.372514E+03	2.342477E-01	2.465076E-03
5.382408E+03	2.331316E-01	2.478208E-03
5.392302E+03	2.320549E-01	2.501284E-03
5.402196E+03	2.310332E-01	2.533381E-03
5.412091E+03	2.300775E-01	2.573526E-03
5.421985E+03	2.291929E-01	2.620712E-03
5.431879E+03	2.283828E-01	2.673975E-03
5.441773E+03	2.276537E-01	2.732461E-03
5.451667E+03	2.270050E-01	2.795320E-03
5.461561E+03	2.264349E-01	2.861772E-03
5.471455E+03	2.259407E-01	2.931104E-03
5.481350E+03	2.255195E-01	3.002684E-03
5.491244E+03	2.251616E-01	3.075849E-03
5.501138E+03	2.248635E-01	3.150083E-03
5.511032E+03	2.246114E-01	3.224771E-03
5.520926E+03	2.243964E-01	3.299411E-03
5.530820E+03	2.242139E-01	3.373592E-03
5.540714E+03	2.240522E-01	3.446836E-03
5.550608E+03	2.239090E-01	3.518828E-03
5.560503E+03	2.237826E-01	3.589295E-03
5.570397E+03	2.236713E-01	3.657987E-03
5.580291E+03	2.235781E-01	3.724756E-03
5.590185E+03	2.235118E-01	3.789577E-03
5.600079E+03	2.234789E-01	3.852414E-03
5.609973E+03	2.234870E-01	3.913274E-03
5.619867E+03	2.235493E-01	3.972284E-03
5.629762E+03	2.236782E-01	4.029579E-03
5.639656E+03	2.238806E-01	4.085217E-03
5.649550E+03	2.241710E-01	4.139404E-03
5.659444E+03	2.245627E-01	4.192339E-03
5.669338E+03	2.250671E-01	4.244197E-03
5.679232E+03	2.256951E-01	4.295153E-03
5.689126E+03	2.264551E-01	4.345334E-03
5.699020E+03	2.273545E-01	4.394846E-03
5.708915E+03	2.284015E-01	4.443813E-03
5.718809E+03	2.295947E-01	4.492163E-03
5.728703E+03	2.309381E-01	4.539922E-03
5.738597E+03	2.324257E-01	4.586907E-03
5.748491E+03	2.340473E-01	4.632843E-03
5.758385E+03	2.357948E-01	4.677484E-03
5.768279E+03	2.376474E-01	4.720323E-03
5.778174E+03	2.395853E-01	4.760860E-03
5.788068E+03	2.415857E-01	4.798535E-03
5.797962E+03	2.436173E-01	4.832611E-03
5.807856E+03	2.456473E-01	4.862332E-03
5.817750E+03	2.476346E-01	4.886782E-03
5.827644E+03	2.495455E-01	4.905214E-03
5.837538E+03	2.513333E-01	4.916645E-03
5.847432E+03	2.529557E-01	4.920214E-03
5.857327E+03	2.543758E-01	4.915206E-03
5.867221E+03	2.555557E-01	4.900930E-03
5.877115E+03	2.564697E-01	4.876977E-03
5.887009E+03	2.570945E-01	4.843040E-03
5.896903E+03	2.574235E-01	4.799169E-03
5.906797E+03	2.574569E-01	4.745587E-03
5.916691E+03	2.572052E-01	4.682737E-03
5.926586E+03	2.566898E-01	4.611290E-03
5.936480E+03	2.559471E-01	4.532190E-03
5.946374E+03	2.550167E-01	4.446441E-03
5.956268E+03	2.539395E-01	4.355051E-03
5.966162E+03	2.527664E-01	4.259178E-03
5.976056E+03	2.515432E-01	4.159854E-03
5.985950E+03	2.503154E-01	4.058077E-03
5.995844E+03	2.491364E-01	3.954927E-03
6.005739E+03	2.480462E-01	3.851223E-03
6.015633E+03	2.470907E-01	3.747836E-03
6.025527E+03	2.463041E-01	3.645422E-03
6.035421E+03	2.457265E-01	3.544692E-03
6.045315E+03	2.453859E-01	3.446163E-03
6.055209E+03	2.453106E-01	3.350347E-03
6.065103E+03	2.455234E-01	3.257693E-03
6.074998E+03	2.460370E-01	3.168541E-03
6.084892E+03	2.468612E-01	3.083261E-03
6.094786E+03	2.479991E-01	3.002218E-03
6.104680E+03	2.494406E-01	2.925741E-03
6.114574E+03	2.511671E-01	2.854222E-03
6.124468E+03	2.531456E-01	2.788087E-03
6.134362E+03	2.553230E-01	2.727779E-03
6.144256E+03	2.576310E-01	2.673852E-03
6.154151E+03	2.599855E-01	2.626981E-03
6.164045E+03	2.622586E-01	2.587663E-03
6.173939E+03	2.643130E-01	2.556534E-03
6.183833E+03	2.660044E-01	2.534270E-03
6.193727E+03	2.671447E-01	2.521085E-03
6.203621E+03	2.675813E-01	2.517276E-03
6.213515E+03	2.672571E-01	2.523550E-03
6.223410E+03	2.662238E-01	2.540597E-03
6.233304E+03	2.646553E-01	2.568970E-03
6.243198E+03	2.627465E-01	2.608961E-03
6.253092E+03	2.606661E-01	2.660439E-03
6.262986E+03	2.585737E-01	2.723210E-03
6.272880E+03	2.566177E-01	2.797151E-03
6.282774E+03	2.548983E-01	2.881908E-03
6.292668E+03	2.535002E-01	2.977262E-03
6.302563E+03	2.524941E-01	3.083156E-03
6.312457E+03	2.519186E-01	3.199454E-03
6.322351E+03	2.517991E-01	3.326104E-03
6.332245E+03	2.521548E-01	3.463188E-03
6.342139E+03	2.529787E-01	3.610597E-03
6.352033E+03	2.542624E-01	3.768314E-03
6.361927E+03	2.559865E-01	3.936228E-03
6.371822E+03	2.581183E-01	4.114057E-03
6.381716E+03	2.606291E-01	4.301575E-03
6.391610E+03	2.634715E-01	4.498219E-03
6.401504E+03	2.666022E-01	4.703429E-03
6.411398E+03	2.699681E-01	4.916398E-03
6.421292E+03	2.735060E-01	5.136024E-03
6.431186E+03	2.771528E-01	5.361085E-03
6.441080E+03	2.808422E-01	5.590162E-03
6.450975E+03	2.845043E-01	5.821628E-03
6.460869E+03	2.880725E-01	6.053772E-03
6.470763E+03	2.914836E-01	6.284832E-03
6.480657E+03	2.946665E-01	6.512738E-03
6.490551E+03	2.975519E-01	6.735320E-03
6.500445E+03	3.000874E-01	6.950678E-03
6.510339E+03	3.022068E-01	7.156492E-03
6.520234E+03	3.038638E-01	7.350808E-03
6.530128E+03	3.050154E-01	7.531690E-03
6.540022E+03	3.056303E-01	7.697444E-03
6.549916E+03	3.056963E-01	7.846837E-03
6.559810E+03	3.052090E-01	7.978854E-03
6.569704E+03	3.041848E-01	8.093065E-03
6.579598E+03	3.026399E-01	8.189106E-03
6.589492E+03	3.006092E-01	8.267189E-03
6.599387E+03	2.981244E-01	8.327544E-03
6.609281E+03	2.952295E-01	8.370838E-03
6.619175E+03	2.919770E-01	8.398090E-03
6.629069E+03	2.884182E-01	8.410403E-03
6.638963E+03	2.845956E-01	8.408734E-03
6.648857E+03	2.805716E-01	8.394722E-03
6.658751E+03	2.763882E-01	8.369503E-03
6.668645E+03	2.721032E-01	8.334781E-03
6.678540E+03	2.677575E-01	8.291825E-03
6.688434E+03	2.633886E-01	8.241866E-03
6.698328E+03	2.590451E-01	8.186547E-03
6.708222E+03	2.547530E-01	8.126849E-03
6.718116E+03	2.505492E-01	8.064135E-03
6.728010E+03	2.464612E-01	7.999505E-03
6.737904E+03	2.425137E-01	7.933992E-03
6.747799E+03	2.387226E-01	7.868357E-03
6.757693E+03	2.351087E-01	7.803533E-03
6.767587E+03	2.316811E-01	7.740067E-03
6.777481E+03	2.284534E-01	7.678655E-03
6.787375E+03	2.254279E-01	7.619610E-03
6.797269E+03	2.226087E-01	7.563284E-03
6.807163E+03	2.200008E-01	7.510056E-03
6.817057E+03	2.175948E-01	7.459802E-03
6.826952E+03	2.153956E-01	7.412857E-03
6.836846E+03	2.133939E-01	7.369064E-03
6.846740E+03	2.115835E-01	7.328347E-03
6.856634E+03	2.099566E-01	7.290558E-03
6.866528E+03	2.085041E-01	7.255486E-03
6.876422E+03	2.072123E-01	7.222742E-03
6.886316E+03	2.060742E-01	7.192154E-03
6.896211E+03	2.050779E-01	7.163365E-03
6.906105E+03	2.042112E-01	7.135997E-03
6.915999E+03	2.034533E-01	7.109358E-03
6.925893E+03	2.028024E-01	7.083410E-03
6.935787E+03	2.022332E-01	7.057282E-03
6.945681E+03	2.017393E-01	7.030769E-03
6.955575E+03	2.013024E-01	7.003234E-03
6.965469E+03	2.009079E-01	6.974181E-03
6.975364E+03	2.005412E-01	6.943102E-03
6.985258E+03	2.001877E-01	6.909501E-03
6.995152E+03	1.998288E-01	6.872752E-03
7.005046E+03	1.994545E-01	6.832524E-03
7.014940E+03	1.990512E-01	6.788382E-03
7.024834E+03	1.986022E-01	6.739790E-03
7.034728E+03	1.980999E-01	6.686537E-03
7.044623E+03	1.975301E-01	6.628203E-03
7.054517E+03	1.968851E-01	6.564602E-03
7.064411E+03	1.961589E-01	6.495622E-03
7.074305E+03	1.953521E-01	6.421373E-03
7.084199E+03	1.944571E-01	6.341718E-03
7.094093E+03	1.934766E-01	6.256863E-03
7.103987E+03	1.924232E-01	6.167341E-03
7.113881E+03	1.912974E-01	6.073285E-03
7.123776E+03	1.901084E-01	5.975126E-03
7.133670E+03	1.888700E-01	5.873424E-03
7.143564E+03	1.875896E-01	5.768527E-03
7.153458E+03	1.862779E-01	5.660886E-03
7.163352E+03	1.849445E-01	5.550907E-03
7.173246E+03	1.835986E-01	5.438973E-03
7.183140E+03	1.822517E-01	5.325526E-03
7.193035E+03	1.809018E-01	5.210604E-03
7.202929E+03	1.795623E-01	5.094681E-03
7.212823E+03	1.782326E-01	4.977834E-03
7.222717E+03	1.769150E-01	4.860210E-03
7.232611E+03	1.756151E-01	4.742052E-03
7.242505E+03	1.743295E-01	4.623357E-03
7.252399E+03	1.730614E-01	4.504303E-03
7.262293E+03	1.718103E-01	4.384970E-03
7.272188E+03	1.705786E-01	4.265523E-03
7.282082E+03	1.693645E-01	4.146023E-03
7.291976E+03	1.681713E-01	4.026664E-03
7.301870E+03	1.669946E-01	3.907463E-03
7.311764E+03	1.658452E-01	3.788805E-03
7.321658E+03	1.647238E-01	3.670840E-03
7.331552E+03	1.636277E-01	3.553655E-03
7.341447E+03	1.625692E-01	3.437679E-03
7.351341E+03	1.615471E-01	3.323056E-03
7.361235E+03	1.605677E-01	3.210108E-03
7.371129E+03	1.596298E-01	3.099021E-03
7.381023E+03	1.587404E-01	2.990178E-03
7.390917E+03	1.578917E-01	2.883711E-03
7.400811E+03	1.570937E-01	2.780130E-03
7.410705E+03	1.563378E-01	2.679662E-03
7.420600E+03	1.556297E-01	2.582845E-03
7.430494E+03	1.549669E-01	2.490147E-03
7.440388E+03	1.543470E-01	2.402113E-03
7.450282E+03	1.537743E-01	2.319478E-03
7.460176E+03	1.532376E-01	2.242824E-03
7.470070E+03	1.527437E-01	2.173091E-03
7.479964E+03	1.522879E-01	2.111118E-03
7.489859E+03	1.518687E-01	2.057842E-03
7.499753E+03	1.514803E-01	2.014174E-03
7.509647E+03	1.511244E-01	1.981099E-03
7.519541E+03	1.507943E-01	1.959425E-03
7.529435E+03	1.504865E-01	1.949874E-03
7.539329E+03	1.502008E-01	1.953028E-03
7.549223E+03	1.499284E-01	1.969025E-03
7.559117E+03	1.496656E-01	1.997513E-03
7.569012E+03	1.493967E-01	2.037696E-03
7.578906E+03	1.491197E-01	2.088787E-03
7.588800E+03	1.488165E-01	2.149651E-03
7.598694E+03	1.484769E-01	2.219169E-03
7.608588E+03	1.480835E-01	2.296069E-03
7.618482E+03	1.476198E-01	2.379068E-03
7.628376E+03	1.470748E-01	2.466967E-03
7.638271E+03	1.464584E-01	2.558949E-03
7.648165E+03	1.457706E-01	2.654110E-03
7.658059E+03	1.450396E-01	2.752139E-03
7.667953E+03	1.442761E-01	2.852541E-03
7.677847E+03	1.434984E-01	2.955069E-03
