#wls	flux	fluxerr
1.583061E+03	1.762266E-01	9.222415E-03
1.622638E+03	1.803774E-01	8.837997E-03
1.662214E+03	1.843149E-01	8.419110E-03
1.701791E+03	1.879702E-01	7.966928E-03
1.741367E+03	1.912837E-01	7.484339E-03
1.780944E+03	1.941615E-01	6.974283E-03
1.820520E+03	1.965402E-01	6.442528E-03
1.860097E+03	1.983478E-01	5.896101E-03
1.899673E+03	1.995252E-01	5.344176E-03
1.939250E+03	2.000823E-01	4.799384E-03
1.978827E+03	2.001610E-01	4.278491E-03
2.018403E+03	2.001362E-01	3.803012E-03
2.057980E+03	2.006028E-01	3.396982E-03
2.097556E+03	2.022517E-01	3.083769E-03
2.137133E+03	2.051963E-01	2.873419E-03
2.176709E+03	2.092251E-01	2.756936E-03
2.216286E+03	2.141117E-01	2.719477E-03
2.255862E+03	2.195657E-01	2.744486E-03
2.295439E+03	2.251439E-01	2.809804E-03
2.335015E+03	2.303651E-01	2.887282E-03
2.374592E+03	2.349447E-01	2.955098E-03
2.414168E+03	2.388361E-01	3.000999E-03
2.453745E+03	2.421450E-01	3.022020E-03
2.493321E+03	2.452062E-01	3.025598E-03
2.532898E+03	2.485482E-01	3.028977E-03
2.572475E+03	2.528454E-01	3.058261E-03
2.612051E+03	2.587386E-01	3.145465E-03
2.651628E+03	2.662229E-01	3.318445E-03
2.691204E+03	2.747492E-01	3.580368E-03
2.730781E+03	2.836722E-01	3.906436E-03
2.770357E+03	2.924405E-01	4.267485E-03
2.809934E+03	3.006154E-01	4.634862E-03
2.849510E+03	3.078994E-01	4.983060E-03
2.889087E+03	3.140719E-01	5.290045E-03
2.928663E+03	3.189784E-01	5.537787E-03
2.968240E+03	3.225553E-01	5.713167E-03
2.978134E+03	3.232397E-01	5.744607E-03
2.988028E+03	3.238365E-01	5.770809E-03
2.997922E+03	3.243449E-01	5.791678E-03
3.007816E+03	3.247719E-01	5.807279E-03
3.017710E+03	3.251200E-01	5.817602E-03
3.027605E+03	3.253913E-01	5.822655E-03
3.037499E+03	3.255844E-01	5.822392E-03
3.047393E+03	3.256985E-01	5.816795E-03
3.057287E+03	3.257326E-01	5.805856E-03
3.067181E+03	3.256932E-01	5.789716E-03
3.077075E+03	3.255796E-01	5.768404E-03
3.086969E+03	3.253856E-01	5.741864E-03
3.096864E+03	3.251243E-01	5.710399E-03
3.106758E+03	3.247833E-01	5.673878E-03
3.116652E+03	3.243698E-01	5.632530E-03
3.126546E+03	3.238913E-01	5.586602E-03
3.136440E+03	3.233430E-01	5.536145E-03
3.146334E+03	3.227326E-01	5.481437E-03
3.156228E+03	3.220560E-01	5.422577E-03
3.166122E+03	3.213221E-01	5.359893E-03
3.176017E+03	3.205331E-01	5.293618E-03
3.185911E+03	3.196865E-01	5.223926E-03
3.195805E+03	3.187918E-01	5.151204E-03
3.205699E+03	3.178529E-01	5.075758E-03
3.215593E+03	3.168737E-01	4.997919E-03
3.225487E+03	3.158592E-01	4.918045E-03
3.235381E+03	3.148149E-01	4.836520E-03
3.245276E+03	3.137461E-01	4.753746E-03
3.255170E+03	3.126545E-01	4.670086E-03
3.265064E+03	3.115571E-01	4.586149E-03
3.274958E+03	3.104522E-01	4.502287E-03
3.284852E+03	3.093532E-01	4.419092E-03
3.294746E+03	3.082652E-01	4.337052E-03
3.304640E+03	3.072029E-01	4.256811E-03
3.314534E+03	3.061776E-01	4.178979E-03
3.324429E+03	3.051911E-01	4.104060E-03
3.334323E+03	3.042643E-01	4.032828E-03
3.344217E+03	3.033996E-01	3.965829E-03
3.354111E+03	3.026122E-01	3.903790E-03
3.364005E+03	3.019110E-01	3.847370E-03
3.373899E+03	3.012949E-01	3.797107E-03
3.383793E+03	3.007764E-01	3.753717E-03
3.393688E+03	3.003458E-01	3.717635E-03
3.403582E+03	2.999956E-01	3.689315E-03
3.413476E+03	2.997080E-01	3.669064E-03
3.423370E+03	2.994490E-01	3.656960E-03
3.433264E+03	2.991775E-01	3.652934E-03
3.443158E+03	2.988249E-01	3.656233E-03
3.453052E+03	2.983270E-01	3.665645E-03
3.462946E+03	2.976465E-01	3.680152E-03
3.472841E+03	2.968046E-01	3.699367E-03
3.482735E+03	2.958348E-01	3.723014E-03
3.492629E+03	2.947832E-01	3.750961E-03
3.502523E+03	2.937051E-01	3.783211E-03
3.512417E+03	2.926409E-01	3.819613E-03
3.522311E+03	2.916399E-01	3.860180E-03
3.532205E+03	2.907482E-01	3.904945E-03
3.542100E+03	2.900012E-01	3.953873E-03
3.551994E+03	2.894365E-01	4.007024E-03
3.561888E+03	2.890807E-01	4.064378E-03
3.571782E+03	2.889591E-01	4.125954E-03
3.581676E+03	2.890955E-01	4.191815E-03
3.591570E+03	2.894988E-01	4.261853E-03
3.601464E+03	2.901849E-01	4.336106E-03
3.611358E+03	2.911553E-01	4.414430E-03
3.621253E+03	2.924079E-01	4.496646E-03
3.631147E+03	2.939310E-01	4.582441E-03
3.641041E+03	2.957122E-01	4.671493E-03
3.650935E+03	2.977296E-01	4.763327E-03
3.660829E+03	2.999518E-01	4.857300E-03
3.670723E+03	3.023472E-01	4.952752E-03
3.680617E+03	3.048781E-01	5.048897E-03
3.690512E+03	3.075028E-01	5.144860E-03
3.700406E+03	3.101912E-01	5.239942E-03
3.710300E+03	3.129009E-01	5.333216E-03
3.720194E+03	3.156027E-01	5.423966E-03
3.730088E+03	3.182760E-01	5.511616E-03
3.739982E+03	3.208928E-01	5.595460E-03
3.749876E+03	3.234458E-01	5.675154E-03
3.759770E+03	3.259209E-01	5.750243E-03
3.769665E+03	3.283173E-01	5.820515E-03
3.779559E+03	3.306342E-01	5.885771E-03
3.789453E+03	3.328714E-01	5.945837E-03
3.799347E+03	3.350332E-01	6.000631E-03
3.809241E+03	3.371264E-01	6.050137E-03
3.819135E+03	3.391509E-01	6.094220E-03
3.829029E+03	3.411104E-01	6.132837E-03
3.838924E+03	3.430002E-01	6.165795E-03
3.848818E+03	3.448189E-01	6.192989E-03
3.858712E+03	3.465585E-01	6.214197E-03
3.868606E+03	3.482096E-01	6.229194E-03
3.878500E+03	3.497676E-01	6.237855E-03
3.888394E+03	3.512201E-01	6.239941E-03
3.898288E+03	3.525577E-01	6.235278E-03
3.908182E+03	3.537715E-01	6.223727E-03
3.918077E+03	3.548411E-01	6.204976E-03
3.927971E+03	3.557611E-01	6.178994E-03
3.937865E+03	3.565175E-01	6.145636E-03
3.947759E+03	3.571000E-01	6.104850E-03
3.957653E+03	3.575036E-01	6.056702E-03
3.967547E+03	3.577264E-01	6.001342E-03
3.977441E+03	3.577772E-01	5.939129E-03
3.987336E+03	3.576593E-01	5.870350E-03
3.997230E+03	3.573803E-01	5.795386E-03
4.007124E+03	3.569447E-01	5.714597E-03
4.017018E+03	3.563653E-01	5.628492E-03
4.026912E+03	3.556522E-01	5.537563E-03
4.036806E+03	3.548132E-01	5.442284E-03
4.046700E+03	3.538551E-01	5.343137E-03
4.056594E+03	3.527859E-01	5.240651E-03
4.066489E+03	3.516154E-01	5.135401E-03
4.076383E+03	3.503457E-01	5.027883E-03
4.086277E+03	3.489885E-01	4.918757E-03
4.096171E+03	3.475545E-01	4.808697E-03
4.106065E+03	3.460572E-01	4.698444E-03
4.115959E+03	3.445173E-01	4.588861E-03
4.125853E+03	3.429594E-01	4.480884E-03
4.135748E+03	3.414162E-01	4.375570E-03
4.145642E+03	3.399162E-01	4.273938E-03
4.155536E+03	3.384985E-01	4.177157E-03
4.165430E+03	3.372001E-01	4.086380E-03
4.175324E+03	3.360457E-01	4.002633E-03
4.185218E+03	3.350617E-01	3.926981E-03
4.195112E+03	3.342564E-01	3.860311E-03
4.205006E+03	3.336306E-01	3.803446E-03
4.214901E+03	3.331628E-01	3.756985E-03
4.224795E+03	3.328167E-01	3.721371E-03
4.234689E+03	3.325474E-01	3.696943E-03
4.244583E+03	3.322831E-01	3.683656E-03
4.254477E+03	3.319593E-01	3.681097E-03
4.264371E+03	3.315089E-01	3.688505E-03
4.274265E+03	3.308992E-01	3.705370E-03
4.284159E+03	3.301328E-01	3.731437E-03
4.294054E+03	3.292286E-01	3.766513E-03
4.303948E+03	3.281996E-01	3.810106E-03
4.313842E+03	3.270512E-01	3.861336E-03
4.323736E+03	3.258011E-01	3.919403E-03
4.333630E+03	3.244556E-01	3.983362E-03
4.343524E+03	3.230281E-01	4.052366E-03
4.353418E+03	3.215278E-01	4.125557E-03
4.363313E+03	3.199714E-01	4.202219E-03
4.373207E+03	3.183686E-01	4.281614E-03
4.383101E+03	3.167447E-01	4.363285E-03
4.392995E+03	3.151178E-01	4.446766E-03
4.402889E+03	3.135063E-01	4.531674E-03
4.412783E+03	3.119364E-01	4.617833E-03
4.422677E+03	3.104242E-01	4.705001E-03
4.432571E+03	3.089826E-01	4.792961E-03
4.442466E+03	3.076160E-01	4.881432E-03
4.452360E+03	3.063231E-01	4.970088E-03
4.462254E+03	3.050953E-01	5.058515E-03
4.472148E+03	3.039244E-01	5.146334E-03
4.482042E+03	3.027988E-01	5.233124E-03
4.491936E+03	3.017023E-01	5.318393E-03
4.501830E+03	3.006199E-01	5.401678E-03
4.511725E+03	2.995439E-01	5.482648E-03
4.521619E+03	2.984658E-01	5.560968E-03
4.531513E+03	2.973754E-01	5.636278E-03
4.541407E+03	2.962773E-01	5.708512E-03
4.551301E+03	2.951647E-01	5.777399E-03
4.561195E+03	2.940460E-01	5.842980E-03
4.571089E+03	2.929292E-01	5.905306E-03
4.580983E+03	2.918223E-01	5.964455E-03
4.590878E+03	2.907373E-01	6.020605E-03
4.600772E+03	2.896825E-01	6.073878E-03
4.610666E+03	2.886784E-01	6.124673E-03
4.620560E+03	2.877318E-01	6.173121E-03
4.630454E+03	2.868614E-01	6.219617E-03
4.640348E+03	2.860800E-01	6.264452E-03
4.650242E+03	2.854030E-01	6.307986E-03
4.660137E+03	2.848398E-01	6.350454E-03
4.670031E+03	2.844049E-01	6.392213E-03
4.679925E+03	2.841051E-01	6.433448E-03
4.689819E+03	2.839540E-01	6.474508E-03
4.699713E+03	2.839518E-01	6.515425E-03
4.709607E+03	2.841034E-01	6.556345E-03
4.719501E+03	2.844074E-01	6.597251E-03
4.729395E+03	2.848556E-01	6.637970E-03
4.739290E+03	2.854405E-01	6.678326E-03
4.749184E+03	2.861443E-01	6.717892E-03
4.759078E+03	2.869472E-01	6.756185E-03
4.768972E+03	2.878242E-01	6.792590E-03
4.778866E+03	2.887457E-01	6.826367E-03
4.788760E+03	2.896736E-01	6.856578E-03
4.798654E+03	2.905752E-01	6.882400E-03
4.808549E+03	2.913999E-01	6.902598E-03
4.818443E+03	2.921109E-01	6.916265E-03
4.828337E+03	2.926651E-01	6.922359E-03
4.838231E+03	2.930280E-01	6.920060E-03
4.848125E+03	2.931616E-01	6.908488E-03
4.858019E+03	2.930456E-01	6.887208E-03
4.867913E+03	2.926648E-01	6.855930E-03
4.877807E+03	2.920090E-01	6.814511E-03
4.887702E+03	2.910867E-01	6.763266E-03
4.897596E+03	2.899097E-01	6.702610E-03
4.907490E+03	2.885042E-01	6.633307E-03
4.917384E+03	2.868955E-01	6.556109E-03
4.927278E+03	2.851258E-01	6.472155E-03
4.937172E+03	2.832273E-01	6.382346E-03
4.947066E+03	2.812400E-01	6.287754E-03
4.956961E+03	2.791947E-01	6.189226E-03
4.966855E+03	2.771240E-01	6.087639E-03
4.976749E+03	2.750519E-01	5.983653E-03
4.986643E+03	2.729920E-01	5.877694E-03
4.996537E+03	2.709614E-01	5.770255E-03
5.006431E+03	2.689711E-01	5.661680E-03
5.016325E+03	2.670295E-01	5.552253E-03
5.026219E+03	2.651383E-01	5.442112E-03
5.036114E+03	2.633103E-01	5.331622E-03
5.046008E+03	2.615543E-01	5.221052E-03
5.055902E+03	2.598716E-01	5.110516E-03
5.065796E+03	2.582817E-01	5.000479E-03
5.075690E+03	2.567908E-01	4.891133E-03
5.085584E+03	2.554097E-01	4.782752E-03
5.095478E+03	2.541481E-01	4.675573E-03
5.105373E+03	2.530102E-01	4.569733E-03
5.115267E+03	2.520013E-01	4.465379E-03
5.125161E+03	2.511166E-01	4.362494E-03
5.135055E+03	2.503498E-01	4.261042E-03
5.144949E+03	2.496915E-01	4.160959E-03
5.154843E+03	2.491237E-01	4.062073E-03
5.164737E+03	2.486378E-01	3.964400E-03
5.174631E+03	2.482169E-01	3.867863E-03
5.184526E+03	2.478460E-01	3.772462E-03
5.194420E+03	2.475135E-01	3.678297E-03
5.204314E+03	2.472101E-01	3.585549E-03
5.214208E+03	2.469258E-01	3.494435E-03
5.224102E+03	2.466575E-01	3.405316E-03
5.233996E+03	2.463950E-01	3.318503E-03
5.243890E+03	2.461351E-01	3.234449E-03
5.253785E+03	2.458672E-01	3.153557E-03
5.263679E+03	2.455868E-01	3.076361E-03
5.273573E+03	2.452832E-01	3.003356E-03
5.283467E+03	2.449477E-01	2.935102E-03
5.293361E+03	2.445713E-01	2.872186E-03
5.303255E+03	2.441405E-01	2.815158E-03
5.313149E+03	2.436503E-01	2.764658E-03
5.323043E+03	2.430927E-01	2.721269E-03
5.332938E+03	2.424648E-01	2.685577E-03
5.342832E+03	2.417632E-01	2.658078E-03
5.352726E+03	2.409987E-01	2.639283E-03
5.362620E+03	2.401798E-01	2.629265E-03
5.372514E+03	2.393361E-01	2.628044E-03
5.382408E+03	2.385076E-01	2.635483E-03
5.392302E+03	2.377076E-01	2.651014E-03
5.402196E+03	2.369389E-01	2.673912E-03
5.412091E+03	2.362004E-01	2.703384E-03
5.421985E+03	2.355076E-01	2.738833E-03
5.431879E+03	2.348720E-01	2.779642E-03
5.441773E+03	2.342980E-01	2.825151E-03
5.451667E+03	2.337879E-01	2.874722E-03
5.461561E+03	2.333417E-01	2.927740E-03
5.471455E+03	2.329534E-01	2.983563E-03
5.481350E+03	2.326237E-01	3.041680E-03
5.491244E+03	2.323418E-01	3.101479E-03
5.501138E+03	2.320988E-01	3.162408E-03
5.511032E+03	2.318890E-01	3.223995E-03
5.520926E+03	2.317005E-01	3.285712E-03
5.530820E+03	2.315266E-01	3.347130E-03
5.540714E+03	2.313621E-01	3.407870E-03
5.550608E+03	2.312019E-01	3.467578E-03
5.560503E+03	2.310456E-01	3.525994E-03
5.570397E+03	2.308928E-01	3.582882E-03
5.580291E+03	2.307462E-01	3.638080E-03
5.590185E+03	2.306123E-01	3.691507E-03
5.600079E+03	2.304961E-01	3.743083E-03
5.609973E+03	2.304130E-01	3.792919E-03
5.619867E+03	2.303684E-01	3.840990E-03
5.629762E+03	2.303786E-01	3.887464E-03
5.639656E+03	2.304559E-01	3.932470E-03
5.649550E+03	2.306107E-01	3.976115E-03
5.659444E+03	2.308614E-01	4.018659E-03
5.669338E+03	2.312185E-01	4.060241E-03
5.679232E+03	2.316977E-01	4.101093E-03
5.689126E+03	2.323104E-01	4.141382E-03
5.699020E+03	2.330690E-01	4.181294E-03
5.708915E+03	2.339794E-01	4.220895E-03
5.718809E+03	2.350513E-01	4.260323E-03
5.728703E+03	2.362817E-01	4.299471E-03
5.738597E+03	2.376714E-01	4.338299E-03
5.748491E+03	2.392175E-01	4.376688E-03
5.758385E+03	2.409099E-01	4.414376E-03
5.768279E+03	2.427318E-01	4.450974E-03
5.778174E+03	2.446661E-01	4.486075E-03
5.788068E+03	2.466920E-01	4.519198E-03
5.797962E+03	2.487736E-01	4.549586E-03
5.807856E+03	2.508780E-01	4.576540E-03
5.817750E+03	2.529669E-01	4.599269E-03
5.827644E+03	2.549901E-01	4.616786E-03
5.837538E+03	2.569053E-01	4.628267E-03
5.847432E+03	2.586645E-01	4.632816E-03
5.857327E+03	2.602172E-01	4.629540E-03
5.867221E+03	2.615270E-01	4.617832E-03
5.877115E+03	2.625653E-01	4.597274E-03
5.887009E+03	2.633038E-01	4.567502E-03
5.896903E+03	2.637356E-01	4.528571E-03
5.906797E+03	2.638621E-01	4.480713E-03
5.916691E+03	2.636938E-01	4.424349E-03
5.926586E+03	2.632559E-01	4.360168E-03
5.936480E+03	2.625833E-01	4.289030E-03
5.946374E+03	2.617145E-01	4.211850E-03
5.956268E+03	2.606978E-01	4.129689E-03
5.966162E+03	2.595775E-01	4.043524E-03
5.976056E+03	2.584003E-01	3.954343E-03
5.985950E+03	2.572051E-01	3.862990E-03
5.995844E+03	2.560399E-01	3.770418E-03
6.005739E+03	2.549352E-01	3.677290E-03
6.015633E+03	2.539321E-01	3.584406E-03
6.025527E+03	2.530527E-01	3.492279E-03
6.035421E+03	2.523315E-01	3.401583E-03
6.045315E+03	2.517820E-01	3.312712E-03
6.055209E+03	2.514266E-01	3.226190E-03
6.065103E+03	2.512815E-01	3.142486E-03
6.074998E+03	2.513553E-01	3.062010E-03
6.084892E+03	2.516529E-01	2.985190E-03
6.094786E+03	2.521802E-01	2.912533E-03
6.104680E+03	2.529304E-01	2.844497E-03
6.114574E+03	2.538897E-01	2.781570E-03
6.124468E+03	2.550362E-01	2.724288E-03
6.134362E+03	2.563422E-01	2.673267E-03
6.144256E+03	2.577656E-01	2.629128E-03
6.154151E+03	2.592399E-01	2.592384E-03
6.164045E+03	2.606947E-01	2.563642E-03
6.173939E+03	2.620352E-01	2.543340E-03
6.183833E+03	2.631532E-01	2.531801E-03
6.193727E+03	2.639289E-01	2.529142E-03
6.203621E+03	2.642455E-01	2.535297E-03
6.213515E+03	2.640479E-01	2.550393E-03
6.223410E+03	2.633884E-01	2.574615E-03
6.233304E+03	2.623869E-01	2.608213E-03
6.243198E+03	2.611893E-01	2.651499E-03
6.253092E+03	2.599139E-01	2.704452E-03
6.262986E+03	2.586792E-01	2.767091E-03
6.272880E+03	2.575777E-01	2.839293E-03
6.282774E+03	2.566902E-01	2.920972E-03
6.292668E+03	2.560698E-01	3.011925E-03
6.302563E+03	2.557625E-01	3.112059E-03
6.312457E+03	2.557980E-01	3.221264E-03
6.322351E+03	2.561837E-01	3.339306E-03
6.332245E+03	2.569336E-01	3.466155E-03
6.342139E+03	2.580440E-01	3.601661E-03
6.352033E+03	2.595045E-01	3.745644E-03
6.361927E+03	2.613020E-01	3.897939E-03
6.371822E+03	2.634150E-01	4.058280E-03
6.381716E+03	2.658161E-01	4.226313E-03
6.391610E+03	2.684683E-01	4.401510E-03
6.401504E+03	2.713272E-01	4.583176E-03
6.411398E+03	2.743476E-01	4.770532E-03
6.421292E+03	2.774682E-01	4.962445E-03
6.431186E+03	2.806403E-01	5.157903E-03
6.441080E+03	2.838050E-01	5.355620E-03
6.450975E+03	2.869038E-01	5.554212E-03
6.460869E+03	2.898778E-01	5.752184E-03
6.470763E+03	2.926700E-01	5.947979E-03
6.480657E+03	2.952287E-01	6.140051E-03
6.490551E+03	2.974961E-01	6.326643E-03
6.500445E+03	2.994252E-01	6.506139E-03
6.510339E+03	3.009689E-01	6.676853E-03
6.520234E+03	3.020801E-01	6.837037E-03
6.530128E+03	3.027285E-01	6.985272E-03
6.540022E+03	3.028907E-01	7.120267E-03
6.549916E+03	3.025580E-01	7.241079E-03
6.559810E+03	3.017341E-01	7.347079E-03
6.569704E+03	3.004324E-01	7.437922E-03
6.579598E+03	2.986754E-01	7.513533E-03
6.589492E+03	2.964879E-01	7.573978E-03
6.599387E+03	2.939108E-01	7.619802E-03
6.609281E+03	2.909807E-01	7.651529E-03
6.619175E+03	2.877479E-01	7.670130E-03
6.629069E+03	2.842598E-01	7.676596E-03
6.638963E+03	2.805597E-01	7.671897E-03
6.648857E+03	2.766953E-01	7.657198E-03
6.658751E+03	2.727179E-01	7.633851E-03
6.668645E+03	2.686615E-01	7.602789E-03
6.678540E+03	2.645760E-01	7.565463E-03
6.688434E+03	2.604946E-01	7.522897E-03
6.698328E+03	2.564465E-01	7.476049E-03
6.708222E+03	2.524673E-01	7.426095E-03
6.718116E+03	2.485846E-01	7.374012E-03
6.728010E+03	2.448176E-01	7.320556E-03
6.737904E+03	2.411915E-01	7.266672E-03
6.747799E+03	2.377190E-01	7.212941E-03
6.757693E+03	2.344185E-01	7.160123E-03
6.767587E+03	2.312914E-01	7.108465E-03
6.777481E+03	2.283546E-01	7.058678E-03
6.787375E+03	2.256042E-01	7.010835E-03
6.797269E+03	2.230509E-01	6.965437E-03
6.807163E+03	2.206870E-01	6.922414E-03
6.817057E+03	2.185149E-01	6.881994E-03
6.826952E+03	2.165275E-01	6.844087E-03
6.836846E+03	2.147241E-01	6.808802E-03
6.846740E+03	2.130947E-01	6.775929E-03
6.856634E+03	2.116362E-01	6.745465E-03
6.866528E+03	2.103323E-01	6.716974E-03
6.876422E+03	2.091818E-01	6.690486E-03
6.886316E+03	2.081707E-01	6.665606E-03
6.896211E+03	2.072842E-01	6.641910E-03
6.906105E+03	2.065188E-01	6.619322E-03
6.915999E+03	2.058548E-01	6.597232E-03
6.925893E+03	2.052839E-01	6.575397E-03
6.935787E+03	2.047894E-01	6.553294E-03
6.945681E+03	2.043625E-01	6.530647E-03
6.955575E+03	2.039860E-01	6.506917E-03
6.965469E+03	2.036506E-01	6.481812E-03
6.975364E+03	2.033350E-01	6.454653E-03
6.985258E+03	2.030335E-01	6.425274E-03
6.995152E+03	2.027242E-01	6.392990E-03
7.005046E+03	2.024013E-01	6.357633E-03
7.014940E+03	2.020429E-01	6.318546E-03
7.024834E+03	2.016399E-01	6.275472E-03
7.034728E+03	2.011757E-01	6.227944E-03
7.044623E+03	2.006436E-01	6.175813E-03
7.054517E+03	2.000352E-01	6.118883E-03
7.064411E+03	1.993364E-01	6.056806E-03
7.074305E+03	1.985525E-01	5.989838E-03
7.084199E+03	1.976841E-01	5.918098E-03
7.094093E+03	1.967271E-01	5.841570E-03
7.103987E+03	1.956924E-01	5.760698E-03
7.113881E+03	1.945895E-01	5.675873E-03
7.123776E+03	1.934255E-01	5.587423E-03
7.133670E+03	1.922207E-01	5.496048E-03
7.143564E+03	1.909793E-01	5.401976E-03
7.153458E+03	1.897132E-01	5.305650E-03
7.163352E+03	1.884375E-01	5.207591E-03
7.173246E+03	1.871539E-01	5.107936E-03
7.183140E+03	1.858784E-01	5.007211E-03
7.193035E+03	1.846139E-01	4.905576E-03
7.202929E+03	1.833656E-01	4.803243E-03
7.212823E+03	1.821333E-01	4.700289E-03
7.222717E+03	1.809196E-01	4.596857E-03
7.232611E+03	1.797291E-01	4.493146E-03
7.242505E+03	1.785579E-01	4.389143E-03
7.252399E+03	1.774018E-01	4.284830E-03
7.262293E+03	1.762593E-01	4.180277E-03
7.272188E+03	1.751288E-01	4.075558E-03
7.282082E+03	1.740093E-01	3.970770E-03
7.291976E+03	1.728964E-01	3.865942E-03
7.301870E+03	1.717863E-01	3.761143E-03
7.311764E+03	1.706797E-01	3.656552E-03
7.321658E+03	1.695707E-01	3.552224E-03
7.331552E+03	1.684685E-01	3.448552E-03
7.341447E+03	1.673649E-01	3.345576E-03
7.351341E+03	1.662627E-01	3.243591E-03
7.361235E+03	1.651686E-01	3.142982E-03
7.371129E+03	1.640891E-01	3.044145E-03
7.381023E+03	1.630236E-01	2.947357E-03
7.390917E+03	1.619817E-01	2.853114E-03
7.400811E+03	1.609655E-01	2.761795E-03
7.410705E+03	1.599834E-01	2.673922E-03
7.420600E+03	1.590328E-01	2.589861E-03
7.430494E+03	1.581208E-01	2.510183E-03
7.440388E+03	1.572468E-01	2.435369E-03
7.450282E+03	1.564094E-01	2.365932E-03
7.460176E+03	1.556105E-01	2.302478E-03
7.470070E+03	1.548444E-01	2.245531E-03
7.479964E+03	1.541158E-01	2.195786E-03
7.489859E+03	1.534186E-01	2.153792E-03
7.499753E+03	1.527502E-01	2.120126E-03
7.509647E+03	1.521115E-01	2.095375E-03
7.519541E+03	1.514998E-01	2.080007E-03
7.529435E+03	1.509126E-01	2.074393E-03
7.539329E+03	1.503437E-01	2.078735E-03
7.549223E+03	1.497976E-01	2.093077E-03
7.559117E+03	1.492644E-01	2.116943E-03
7.569012E+03	1.487476E-01	2.149925E-03
7.578906E+03	1.482371E-01	2.191331E-03
7.588800E+03	1.477355E-01	2.240597E-03
7.598694E+03	1.472325E-01	2.296923E-03
7.608588E+03	1.467321E-01	2.359718E-03
7.618482E+03	1.462298E-01	2.428266E-03
7.628376E+03	1.457268E-01	2.501962E-03
7.638271E+03	1.452213E-01	2.580189E-03
7.648165E+03	1.447222E-01	2.662558E-03
7.658059E+03	1.442297E-01	2.748585E-03
7.667953E+03	1.437489E-01	2.837928E-03
7.677847E+03	1.432819E-01	2.930241E-03
