#wls	flux	fluxerr
1.583061E+03	1.333742E-01	8.562472E-03
1.622638E+03	1.357772E-01	8.299140E-03
1.662214E+03	1.380894E-01	8.018118E-03
1.701791E+03	1.403422E-01	7.723241E-03
1.741367E+03	1.424797E-01	7.413674E-03
1.780944E+03	1.445414E-01	7.094200E-03
1.820520E+03	1.464746E-01	6.765225E-03
1.860097E+03	1.482833E-01	6.430602E-03
1.899673E+03	1.499393E-01	6.093255E-03
1.939250E+03	1.513999E-01	5.756362E-03
1.978827E+03	1.526050E-01	5.423428E-03
2.018403E+03	1.534952E-01	5.099039E-03
2.057980E+03	1.539954E-01	4.788182E-03
2.097556E+03	1.541879E-01	4.501114E-03
2.137133E+03	1.546634E-01	4.260378E-03
2.176709E+03	1.558893E-01	4.078062E-03
2.216286E+03	1.578938E-01	3.952334E-03
2.255862E+03	1.604233E-01	3.875067E-03
2.295439E+03	1.634004E-01	3.841904E-03
2.335015E+03	1.669290E-01	3.850359E-03
2.374592E+03	1.710747E-01	3.896906E-03
2.414168E+03	1.758538E-01	3.977545E-03
2.453745E+03	1.811998E-01	4.087440E-03
2.493321E+03	1.870103E-01	4.222191E-03
2.532898E+03	1.930267E-01	4.375156E-03
2.572475E+03	1.986997E-01	4.534224E-03
2.612051E+03	2.032020E-01	4.681541E-03
2.651628E+03	2.065239E-01	4.817947E-03
2.691204E+03	2.091936E-01	4.953124E-03
2.730781E+03	2.115662E-01	5.088521E-03
2.770357E+03	2.137295E-01	5.219505E-03
2.809934E+03	2.157057E-01	5.340521E-03
2.849510E+03	2.174078E-01	5.444056E-03
2.889087E+03	2.187729E-01	5.523993E-03
2.928663E+03	2.197982E-01	5.576674E-03
2.968240E+03	2.204460E-01	5.598589E-03
2.978134E+03	2.205632E-01	5.599426E-03
2.988028E+03	2.206518E-01	5.598101E-03
2.997922E+03	2.207247E-01	5.594937E-03
3.007816E+03	2.207818E-01	5.589925E-03
3.017710E+03	2.208243E-01	5.583094E-03
3.027605E+03	2.208414E-01	5.574179E-03
3.037499E+03	2.208571E-01	5.563789E-03
3.047393E+03	2.208702E-01	5.551908E-03
3.057287E+03	2.208557E-01	5.537922E-03
3.067181E+03	2.208372E-01	5.522444E-03
3.077075E+03	2.208141E-01	5.505484E-03
3.086969E+03	2.207863E-01	5.487059E-03
3.096864E+03	2.207531E-01	5.467190E-03
3.106758E+03	2.207148E-01	5.445912E-03
3.116652E+03	2.206714E-01	5.423270E-03
3.126546E+03	2.206348E-01	5.399593E-03
3.136440E+03	2.206053E-01	5.374934E-03
3.146334E+03	2.205725E-01	5.349087E-03
3.156228E+03	2.205594E-01	5.322661E-03
3.166122E+03	2.205562E-01	5.295471E-03
3.176017E+03	2.205648E-01	5.267621E-03
3.185911E+03	2.205971E-01	5.239453E-03
3.195805E+03	2.206654E-01	5.211323E-03
3.205699E+03	2.207518E-01	5.182865E-03
3.215593E+03	2.208791E-01	5.154687E-03
3.225487E+03	2.210404E-01	5.126692E-03
3.235381E+03	2.212586E-01	5.099482E-03
3.245276E+03	2.215275E-01	5.072983E-03
3.255170E+03	2.218511E-01	5.047361E-03
3.265064E+03	2.222428E-01	5.022998E-03
3.274958E+03	2.227066E-01	5.000061E-03
3.284852E+03	2.232557E-01	4.978923E-03
3.294746E+03	2.238842E-01	4.959534E-03
3.304640E+03	2.246127E-01	4.942439E-03
3.314534E+03	2.254339E-01	4.927559E-03
3.324429E+03	2.263565E-01	4.915183E-03
3.334323E+03	2.273705E-01	4.905191E-03
3.344217E+03	2.284976E-01	4.898160E-03
3.354111E+03	2.297139E-01	4.893688E-03
3.364005E+03	2.310175E-01	4.891862E-03
3.373899E+03	2.324029E-01	4.892696E-03
3.383793E+03	2.338505E-01	4.895921E-03
3.393688E+03	2.353345E-01	4.901159E-03
3.403582E+03	2.368299E-01	4.908052E-03
3.413476E+03	2.382937E-01	4.915893E-03
3.423370E+03	2.396788E-01	4.923904E-03
3.433264E+03	2.409008E-01	4.930554E-03
3.443158E+03	2.418889E-01	4.934604E-03
3.453052E+03	2.424952E-01	4.933242E-03
3.462946E+03	2.156629E-01	4.377366E-03
3.464846E+03	2.161916E-01	4.386416E-03
3.466746E+03	2.166764E-01	4.394644E-03
3.468645E+03	2.174461E-01	4.408715E-03
3.470545E+03	2.180787E-01	4.420074E-03
3.472445E+03	2.184250E-01	4.425697E-03
3.474345E+03	2.189631E-01	4.435273E-03
3.476244E+03	2.196930E-01	4.448799E-03
3.478144E+03	2.203165E-01	4.460235E-03
3.480044E+03	2.210720E-01	4.474406E-03
3.481943E+03	2.218548E-01	4.489193E-03
3.483843E+03	2.223889E-01	4.499009E-03
3.485743E+03	2.228857E-01	4.508134E-03
3.487642E+03	2.234322E-01	4.518327E-03
3.489542E+03	2.239790E-01	4.528589E-03
3.491442E+03	2.245486E-01	4.539372E-03
3.493341E+03	2.250521E-01	4.548878E-03
3.495241E+03	2.255339E-01	4.558007E-03
3.497141E+03	2.261274E-01	4.569453E-03
3.499040E+03	2.267215E-01	4.580969E-03
3.500940E+03	2.271826E-01	4.589855E-03
3.502840E+03	2.275996E-01	4.597907E-03
3.504739E+03	2.282176E-01	4.610077E-03
3.506639E+03	2.289253E-01	4.624113E-03
3.508539E+03	2.295223E-01	4.635968E-03
3.510438E+03	2.301422E-01	4.648338E-03
3.512338E+03	2.307624E-01	4.660769E-03
3.514238E+03	2.313388E-01	4.672365E-03
3.516137E+03	2.319825E-01	4.685373E-03
3.518037E+03	2.327384E-01	4.700697E-03
3.519937E+03	2.333835E-01	4.713833E-03
3.521836E+03	2.339844E-01	4.726125E-03
3.523736E+03	2.346528E-01	4.739828E-03
3.525636E+03	2.353443E-01	4.754045E-03
3.527535E+03	2.359468E-01	4.766510E-03
3.529435E+03	2.365278E-01	4.778587E-03
3.531335E+03	2.371092E-01	4.790716E-03
3.533234E+03	2.377135E-01	4.803350E-03
3.535134E+03	2.383631E-01	4.816943E-03
3.537034E+03	2.390357E-01	4.831041E-03
3.538933E+03	2.395075E-01	4.841121E-03
3.540833E+03	2.399352E-01	4.850350E-03
3.542733E+03	2.404751E-01	4.861886E-03
3.544632E+03	2.410157E-01	4.873470E-03
3.546532E+03	2.416687E-01	4.887366E-03
3.548432E+03	2.422327E-01	4.899496E-03
3.550331E+03	2.426630E-01	4.908956E-03
3.552231E+03	2.431385E-01	4.919362E-03
3.554131E+03	2.437489E-01	4.932529E-03
3.556030E+03	2.444943E-01	4.948461E-03
3.557930E+03	2.452628E-01	4.964893E-03
3.559830E+03	2.460992E-01	4.982727E-03
3.561729E+03	2.470483E-01	5.002875E-03
3.563629E+03	2.479308E-01	5.021703E-03
3.565529E+03	2.486347E-01	5.036941E-03
3.567429E+03	2.492718E-01	5.050850E-03
3.569328E+03	2.499768E-01	5.066160E-03
3.571228E+03	2.505254E-01	5.078323E-03
3.573128E+03	2.508050E-01	5.085054E-03
3.575027E+03	2.510401E-01	5.090899E-03
3.576927E+03	2.512982E-01	5.097227E-03
3.578827E+03	2.517813E-01	5.108134E-03
3.580726E+03	2.523097E-01	5.119978E-03
3.582626E+03	2.526591E-01	5.128201E-03
3.584526E+03	2.531660E-01	5.139635E-03
3.586425E+03	2.538086E-01	5.153837E-03
3.588325E+03	2.544065E-01	5.167144E-03
3.590225E+03	2.548477E-01	5.177277E-03
3.592124E+03	2.549293E-01	5.180113E-03
3.594024E+03	2.548538E-01	5.179759E-03
3.595924E+03	2.547784E-01	5.179407E-03
3.597823E+03	2.546357E-01	5.177687E-03
3.599723E+03	2.544482E-01	5.175055E-03
3.601623E+03	2.543959E-01	5.175169E-03
3.603522E+03	2.544567E-01	5.177580E-03
3.605422E+03	2.544049E-01	5.177697E-03
3.607322E+03	2.545563E-01	5.181945E-03
3.609221E+03	2.548884E-01	5.189866E-03
3.611121E+03	2.548827E-01	5.190904E-03
3.613021E+03	2.546967E-01	5.188259E-03
3.614920E+03	2.547815E-01	5.191122E-03
3.616820E+03	2.549796E-01	5.196281E-03
3.618720E+03	2.553361E-01	5.204659E-03
3.620619E+03	2.556703E-01	5.212573E-03
3.622519E+03	2.557564E-01	5.215418E-03
3.624419E+03	2.557978E-01	5.217335E-03
3.626318E+03	2.559297E-01	5.221080E-03
3.628218E+03	2.559489E-01	5.222512E-03
3.630118E+03	2.560813E-01	5.226235E-03
3.632017E+03	2.563498E-01	5.232717E-03
3.633917E+03	2.562792E-01	5.232257E-03
3.635817E+03	2.558694E-01	5.224848E-03
3.637716E+03	2.554597E-01	5.217414E-03
3.639616E+03	2.550952E-01	5.210880E-03
3.641516E+03	2.548212E-01	5.206165E-03
3.643415E+03	2.547966E-01	5.206519E-03
3.645315E+03	2.548854E-01	5.209164E-03
3.647215E+03	2.549291E-01	5.210859E-03
3.649114E+03	2.549050E-01	5.211139E-03
3.651014E+03	2.548810E-01	5.211394E-03
3.652914E+03	2.550842E-01	5.216261E-03
3.654813E+03	2.556730E-01	5.228986E-03
3.656713E+03	2.563760E-01	5.244017E-03
3.658613E+03	2.571023E-01	5.259492E-03
3.660513E+03	2.577155E-01	5.272624E-03
3.662412E+03	2.581704E-01	5.282483E-03
3.664312E+03	2.589435E-01	5.298820E-03
3.666212E+03	2.598083E-01	5.316999E-03
3.668111E+03	2.603553E-01	5.328637E-03
3.670011E+03	2.611076E-01	5.344438E-03
3.671911E+03	2.620878E-01	5.364868E-03
3.673810E+03	2.630686E-01	5.385270E-03
3.675710E+03	2.640502E-01	5.405646E-03
3.677610E+03	2.651689E-01	5.428791E-03
3.679509E+03	2.660380E-01	5.446780E-03
3.681409E+03	2.668169E-01	5.462877E-03
3.683309E+03	2.676416E-01	5.479867E-03
3.685208E+03	2.684443E-01	5.496358E-03
3.687108E+03	2.691790E-01	5.511408E-03
3.689008E+03	2.698459E-01	5.525022E-03
3.690907E+03	2.703767E-01	5.535797E-03
3.692807E+03	2.709078E-01	5.546525E-03
3.694707E+03	2.713938E-01	5.556277E-03
3.696606E+03	2.717431E-01	5.563177E-03
3.698506E+03	2.720928E-01	5.570029E-03
3.700406E+03	2.725568E-01	5.579166E-03
3.702305E+03	2.730900E-01	5.589662E-03
3.704205E+03	2.735321E-01	5.598234E-03
3.706105E+03	2.737689E-01	5.602544E-03
3.708004E+03	2.739831E-01	5.606333E-03
3.709904E+03	2.741973E-01	5.610063E-03
3.711804E+03	2.743892E-01	5.613273E-03
3.713703E+03	2.745583E-01	5.615956E-03
3.715603E+03	2.745901E-01	5.615768E-03
3.717503E+03	2.743246E-01	5.609440E-03
3.719402E+03	2.741047E-01	5.603982E-03
3.721302E+03	2.739536E-01	5.599867E-03
3.723202E+03	2.735963E-01	5.591477E-03
3.725101E+03	2.730784E-01	5.579741E-03
3.727001E+03	2.725833E-01	5.568411E-03
3.728901E+03	2.720650E-01	5.556545E-03
3.730800E+03	2.715235E-01	5.544144E-03
3.732700E+03	2.707982E-01	5.527931E-03
3.734600E+03	2.699349E-01	5.508840E-03
3.736499E+03	2.690023E-01	5.488279E-03
3.738399E+03	2.682988E-01	5.472332E-03
3.740299E+03	2.678477E-01	5.461472E-03
3.742198E+03	2.674193E-01	5.451013E-03
3.744098E+03	2.669448E-01	5.439550E-03
3.745998E+03	2.662401E-01	5.423333E-03
3.747897E+03	2.654891E-01	5.406113E-03
3.749797E+03	2.649448E-01	5.393043E-03
3.751697E+03	2.645153E-01	5.382244E-03
3.753597E+03	2.639933E-01	5.369501E-03
3.755496E+03	2.633793E-01	5.354823E-03
3.757396E+03	2.627417E-01	5.339605E-03
3.759296E+03	2.620575E-01	5.323379E-03
3.761195E+03	2.611888E-01	5.303346E-03
3.763095E+03	2.603889E-01	5.284652E-03
3.764995E+03	2.596806E-01	5.267761E-03
3.766894E+03	2.589487E-01	5.250330E-03
3.768794E+03	2.581705E-01	5.231902E-03
3.770694E+03	2.573226E-01	5.212006E-03
3.772593E+03	2.564049E-01	5.190639E-03
3.774493E+03	2.554404E-01	5.168274E-03
3.776393E+03	2.543599E-01	5.143511E-03
3.778292E+03	2.532788E-01	5.118685E-03
3.780192E+03	2.522665E-01	5.095200E-03
3.782092E+03	2.513460E-01	5.073519E-03
3.783991E+03	2.504711E-01	5.052707E-03
3.785891E+03	2.496651E-01	5.033230E-03
3.787791E+03	2.489281E-01	5.015091E-03
3.789690E+03	2.482833E-01	4.998754E-03
3.791590E+03	2.477769E-01	4.985142E-03
3.793490E+03	2.474787E-01	4.975659E-03
3.795389E+03	2.474350E-01	4.971218E-03
3.797289E+03	2.475303E-01	4.969496E-03
3.799189E+03	2.477881E-01	4.970955E-03
3.801088E+03	2.481153E-01	4.973723E-03
3.802988E+03	2.484660E-01	4.976872E-03
3.804888E+03	2.490023E-01	4.983651E-03
3.806787E+03	2.494230E-01	4.988022E-03
3.808687E+03	2.497744E-01	4.990916E-03
3.810587E+03	2.503114E-01	4.997428E-03
3.812486E+03	2.510115E-01	5.007096E-03
3.814386E+03	2.516886E-01	5.016202E-03
3.816286E+03	2.523196E-01	5.024288E-03
3.818185E+03	2.529508E-01	5.032275E-03
3.820085E+03	2.536521E-01	5.041552E-03
3.821985E+03	2.544236E-01	5.052116E-03
3.823884E+03	2.550791E-01	5.060272E-03
3.825784E+03	2.554789E-01	5.063251E-03
3.827684E+03	2.555064E-01	5.058763E-03
3.829583E+03	2.553243E-01	5.050045E-03
3.831483E+03	2.553049E-01	5.044468E-03
3.833383E+03	2.554720E-01	5.042492E-03
3.835282E+03	2.558254E-01	5.044100E-03
3.837182E+03	2.562723E-01	5.047452E-03
3.839082E+03	2.566260E-01	5.048870E-03
3.840981E+03	2.570264E-01	5.051107E-03
3.842881E+03	2.574037E-01	5.052788E-03
3.844781E+03	2.575945E-01	5.050713E-03
3.846681E+03	2.578786E-01	5.050374E-03
3.848580E+03	2.582794E-01	5.052221E-03
3.850480E+03	2.587738E-01	5.055794E-03
3.852380E+03	2.592217E-01	5.058353E-03
3.854279E+03	2.594594E-01	5.056708E-03
3.856179E+03	2.596037E-01	5.053151E-03
3.858079E+03	2.597945E-01	5.050404E-03
3.859978E+03	2.600089E-01	5.048023E-03
3.861878E+03	2.601530E-01	5.044184E-03
3.863778E+03	2.602501E-01	5.039343E-03
3.865677E+03	2.604175E-01	5.035770E-03
3.867577E+03	2.607723E-01	5.035724E-03
3.869477E+03	2.610333E-01	5.033765E-03
3.871376E+03	2.615288E-01	5.036223E-03
3.873276E+03	2.621414E-01	5.040821E-03
3.875176E+03	2.626136E-01	5.042606E-03
3.877075E+03	2.630391E-01	5.043382E-03
3.878975E+03	2.634178E-01	5.043153E-03
3.880875E+03	2.637026E-01	5.041023E-03
3.882774E+03	2.639405E-01	5.037896E-03
3.884674E+03	2.641784E-01	5.034669E-03
3.886574E+03	2.643457E-01	5.030002E-03
3.888473E+03	2.644659E-01	5.024342E-03
3.890373E+03	2.645626E-01	5.018146E-03
3.892273E+03	2.647296E-01	5.013190E-03
3.894172E+03	2.649907E-01	5.009918E-03
3.896072E+03	2.652281E-01	5.006098E-03
3.897972E+03	2.653714E-01	5.000406E-03
3.899871E+03	2.655617E-01	4.995502E-03
3.901771E+03	2.657754E-01	4.990944E-03
3.903671E+03	2.658478E-01	4.983638E-03
3.905570E+03	2.659907E-01	4.977562E-03
3.907470E+03	2.661571E-01	4.971832E-03
3.909370E+03	2.662526E-01	4.964686E-03
3.911269E+03	2.663714E-01	4.957884E-03
3.913169E+03	2.664667E-01	4.950553E-03
3.915069E+03	2.665146E-01	4.942255E-03
3.916968E+03	2.665858E-01	4.934302E-03
3.918868E+03	2.666804E-01	4.926695E-03
3.920768E+03	2.667043E-01	4.917693E-03
3.922667E+03	2.667513E-01	4.909036E-03
3.924567E+03	2.669634E-01	4.903324E-03
3.926467E+03	2.672227E-01	4.898382E-03
3.928366E+03	2.675057E-01	4.893772E-03
3.930266E+03	2.677884E-01	4.889057E-03
3.932166E+03	2.682366E-01	4.887256E-03
3.934065E+03	2.688502E-01	4.888349E-03
3.935965E+03	2.695586E-01	4.891035E-03
3.937865E+03	2.702672E-01	4.893592E-03
3.939765E+03	2.708574E-01	4.893876E-03
3.941664E+03	2.713529E-01	4.892328E-03
3.943564E+03	2.718487E-01	4.890668E-03
3.945464E+03	2.724390E-01	4.890588E-03
3.947363E+03	2.731477E-01	4.892503E-03
3.949263E+03	2.737855E-01	4.893018E-03
3.951163E+03	2.743049E-01	4.891293E-03
3.953062E+03	2.748007E-01	4.889028E-03
3.954962E+03	2.752962E-01	4.886643E-03
3.956862E+03	2.758629E-01	4.885401E-03
3.958761E+03	2.764535E-01	4.884458E-03
3.960661E+03	2.769727E-01	4.882134E-03
3.962561E+03	2.774444E-01	4.878856E-03
3.964460E+03	2.777500E-01	4.872549E-03
3.966360E+03	2.778416E-01	4.862400E-03
3.968260E+03	2.777904E-01	4.849675E-03
3.970159E+03	2.777865E-01	4.837706E-03
3.972059E+03	2.777821E-01	4.825657E-03
3.973959E+03	2.777300E-01	4.812710E-03
3.975858E+03	2.776537E-01	4.799281E-03
3.977758E+03	2.775296E-01	4.784964E-03
3.979658E+03	2.774049E-01	4.770580E-03
3.981557E+03	2.772801E-01	4.756136E-03
3.983457E+03	2.771786E-01	4.742035E-03
3.985357E+03	2.772193E-01	4.730305E-03
3.987256E+03	2.773553E-01	4.720125E-03
3.989156E+03	2.775861E-01	4.711480E-03
3.991056E+03	2.778166E-01	4.702743E-03
3.992955E+03	2.779756E-01	4.692716E-03
3.994855E+03	2.780150E-01	4.680601E-03
3.996755E+03	2.779588E-01	4.666813E-03
3.998654E+03	2.778306E-01	4.651767E-03
4.000554E+03	2.776066E-01	4.635074E-03
4.002454E+03	2.773582E-01	4.617938E-03
4.004353E+03	2.770857E-01	4.600367E-03
4.006253E+03	2.768126E-01	4.582758E-03
4.008153E+03	2.764914E-01	4.564325E-03
4.010052E+03	2.761696E-01	4.545858E-03
4.011952E+03	2.758951E-01	4.528147E-03
4.013852E+03	2.756199E-01	4.510400E-03
4.015751E+03	2.753205E-01	4.492234E-03
4.017651E+03	2.749966E-01	4.473651E-03
4.019551E+03	2.746244E-01	4.454268E-03
4.021450E+03	2.742517E-01	4.434867E-03
4.023350E+03	2.739025E-01	4.415835E-03
4.025250E+03	2.736243E-01	4.397936E-03
4.027150E+03	2.734652E-01	4.381931E-03
4.029049E+03	2.733775E-01	4.367042E-03
4.030949E+03	2.733133E-01	4.352494E-03
4.032849E+03	2.733443E-01	4.339428E-03
4.034748E+03	2.734707E-01	4.327830E-03
4.036648E+03	2.736686E-01	4.317314E-03
4.038548E+03	2.739142E-01	4.307493E-03
4.040447E+03	2.741592E-01	4.297608E-03
4.042347E+03	2.743800E-01	4.287287E-03
4.044247E+03	2.746725E-01	4.278031E-03
4.046146E+03	2.750365E-01	4.269828E-03
4.048046E+03	2.754243E-01	4.261932E-03
4.049946E+03	2.758596E-01	4.254704E-03
4.051845E+03	2.762228E-01	4.246299E-03
4.053745E+03	2.766575E-01	4.238933E-03
4.055645E+03	2.771639E-01	4.232597E-03
4.057544E+03	2.777422E-01	4.227286E-03
4.059444E+03	2.782721E-01	4.221167E-03
4.061344E+03	2.788979E-01	4.216428E-03
4.063243E+03	2.796433E-01	4.213415E-03
4.065143E+03	2.804126E-01	4.210675E-03
4.067043E+03	2.812298E-01	4.208563E-03
4.068942E+03	2.821427E-01	4.207790E-03
4.070842E+03	2.831037E-01	4.207633E-03
4.072742E+03	2.839442E-01	4.205589E-03
4.074641E+03	2.846644E-01	4.201686E-03
4.076541E+03	2.853123E-01	4.196646E-03
4.078441E+03	2.858880E-01	4.190484E-03
4.080340E+03	2.864872E-01	4.184614E-03
4.082240E+03	2.870139E-01	4.177637E-03
4.084140E+03	2.874924E-01	4.169918E-03
4.086039E+03	2.879221E-01	4.161458E-03
4.087939E+03	2.883035E-01	4.152275E-03
4.089839E+03	2.887086E-01	4.143411E-03
4.091738E+03	2.890411E-01	4.133488E-03
4.093638E+03	2.892528E-01	4.121835E-03
4.095538E+03	2.893678E-01	4.108813E-03
4.097437E+03	2.895063E-01	4.096142E-03
4.099337E+03	2.895721E-01	4.082465E-03
4.101237E+03	2.896133E-01	4.068468E-03
4.103136E+03	2.895575E-01	4.053149E-03
4.105036E+03	2.893808E-01	4.036188E-03
4.106936E+03	2.891794E-01	4.018946E-03
4.108835E+03	2.889534E-01	4.001429E-03
4.110735E+03	2.885821E-01	3.981979E-03
4.112635E+03	2.880896E-01	3.960950E-03
4.114534E+03	2.876446E-01	3.940678E-03
4.116434E+03	2.872232E-01	3.920829E-03
4.118334E+03	2.867045E-01	3.899761E-03
4.120234E+03	2.861611E-01	3.878471E-03
4.122133E+03	2.855930E-01	3.856968E-03
4.124033E+03	2.849034E-01	3.833957E-03
4.125933E+03	2.841890E-01	3.810753E-03
4.127832E+03	2.834014E-01	3.786717E-03
4.129732E+03	2.825650E-01	3.762184E-03
4.131632E+03	2.816552E-01	3.736843E-03
4.133531E+03	2.806965E-01	3.711027E-03
4.135431E+03	2.797370E-01	3.685378E-03
4.137331E+03	2.787766E-01	3.659901E-03
4.139230E+03	2.778397E-01	3.634916E-03
4.141130E+03	2.769020E-01	3.610105E-03
4.143030E+03	2.759634E-01	3.585472E-03
4.144929E+03	2.749277E-01	3.559771E-03
4.146829E+03	2.738910E-01	3.534261E-03
4.148729E+03	2.728536E-01	3.508945E-03
4.150628E+03	2.718396E-01	3.484137E-03
4.152528E+03	2.708732E-01	3.460144E-03
4.154428E+03	2.699301E-01	3.436655E-03
4.156327E+03	2.689378E-01	3.412747E-03
4.158227E+03	2.678966E-01	3.388434E-03
4.160127E+03	2.669272E-01	3.365246E-03
4.162026E+03	2.660537E-01	3.343480E-03
4.163926E+03	2.653000E-01	3.323427E-03
4.165826E+03	2.646185E-01	3.304478E-03
4.167725E+03	2.638636E-01	3.284818E-03
4.169625E+03	2.631079E-01	3.265358E-03
4.171525E+03	2.623759E-01	3.246403E-03
4.173424E+03	2.616914E-01	3.228249E-03
4.175324E+03	2.610548E-01	3.210895E-03
4.177224E+03	2.605140E-01	3.194931E-03
4.179123E+03	2.600452E-01	3.180054E-03
4.181023E+03	2.596239E-01	3.165963E-03
4.182923E+03	2.593714E-01	3.154132E-03
4.184822E+03	2.591908E-01	3.143372E-03
4.186722E+03	2.589612E-01	3.132217E-03
4.188622E+03	2.587552E-01	3.121550E-03
4.190521E+03	2.585243E-01	3.110790E-03
4.192421E+03	2.582929E-01	3.100236E-03
4.194321E+03	2.580848E-01	3.090177E-03
4.196220E+03	2.579489E-01	3.081197E-03
4.198120E+03	2.578121E-01	3.072425E-03
4.200020E+03	2.577231E-01	3.064441E-03
4.201919E+03	2.577304E-01	3.057823E-03
4.203819E+03	2.577370E-01	3.051417E-03
4.205719E+03	2.576945E-01	3.044657E-03
4.207618E+03	2.576271E-01	3.037835E-03
4.209518E+03	2.575593E-01	3.031245E-03
4.211418E+03	2.574664E-01	3.024601E-03
4.213318E+03	2.573730E-01	3.018196E-03
4.215217E+03	2.572547E-01	3.011749E-03
4.217117E+03	2.570146E-01	3.004133E-03
4.219017E+03	2.568466E-01	2.997619E-03
4.220916E+03	2.567021E-01	2.991640E-03
4.222816E+03	2.565812E-01	2.986202E-03
4.224716E+03	2.564112E-01	2.980459E-03
4.226615E+03	2.562889E-01	2.975541E-03
4.228515E+03	2.562626E-01	2.972010E-03
4.230415E+03	2.562598E-01	2.969027E-03
4.232314E+03	2.562807E-01	2.966593E-03
4.234214E+03	2.563009E-01	2.964432E-03
4.236114E+03	2.563205E-01	2.962547E-03
4.238013E+03	2.562908E-01	2.960379E-03
4.239913E+03	2.562122E-01	2.957937E-03
4.241813E+03	2.561570E-01	2.956058E-03
4.243712E+03	2.560769E-01	2.954188E-03
4.245612E+03	2.559236E-01	2.951771E-03
4.247512E+03	2.556243E-01	2.947970E-03
4.249411E+03	2.552037E-01	2.943069E-03
4.251311E+03	2.547580E-01	2.938175E-03
4.253211E+03	2.543360E-01	2.933847E-03
4.255110E+03	2.540103E-01	2.930920E-03
4.257010E+03	2.538291E-01	2.929950E-03
4.258910E+03	2.537198E-01	2.930098E-03
4.260809E+03	2.537552E-01	2.932202E-03
4.262709E+03	2.539833E-01	2.936824E-03
4.264609E+03	2.543321E-01	2.943129E-03
4.266508E+03	2.546318E-01	2.949156E-03
4.268408E+03	2.549069E-01	2.955185E-03
4.270308E+03	2.552299E-01	2.962057E-03
4.272207E+03	2.556733E-01	2.970614E-03
