#wls	flux	fluxerr
1.583061E+03	1.229238E-01	8.835121E-03
1.622638E+03	1.252153E-01	8.649235E-03
1.662214E+03	1.274936E-01	8.450978E-03
1.701791E+03	1.297352E-01	8.239992E-03
1.741367E+03	1.319566E-01	8.018823E-03
1.780944E+03	1.341403E-01	7.788092E-03
1.820520E+03	1.362818E-01	7.549583E-03
1.860097E+03	1.383628E-01	7.304717E-03
1.899673E+03	1.403227E-01	7.053284E-03
1.939250E+03	1.421201E-01	6.796967E-03
1.978827E+03	1.436420E-01	6.534892E-03
2.018403E+03	1.447868E-01	6.267997E-03
2.057980E+03	1.455153E-01	6.000776E-03
2.097556E+03	1.459424E-01	5.744030E-03
2.137133E+03	1.466017E-01	5.522893E-03
2.176709E+03	1.478417E-01	5.350194E-03
2.216286E+03	1.497730E-01	5.228028E-03
2.255862E+03	1.522464E-01	5.149710E-03
2.295439E+03	1.552156E-01	5.112183E-03
2.335015E+03	1.587349E-01	5.114469E-03
2.374592E+03	1.629103E-01	5.157149E-03
2.414168E+03	1.677351E-01	5.237451E-03
2.453745E+03	1.731888E-01	5.352689E-03
2.493321E+03	1.790767E-01	5.495434E-03
2.532898E+03	1.850142E-01	5.653167E-03
2.572475E+03	1.903438E-01	5.805690E-03
2.612051E+03	1.942043E-01	5.926944E-03
2.651628E+03	1.966181E-01	6.017702E-03
2.691204E+03	1.981719E-01	6.093814E-03
2.730781E+03	1.994156E-01	6.167007E-03
2.770357E+03	2.006174E-01	6.240560E-03
2.809934E+03	2.019336E-01	6.314909E-03
2.849510E+03	2.033163E-01	6.384732E-03
2.889087E+03	2.047618E-01	6.446654E-03
2.928663E+03	2.061810E-01	6.495223E-03
2.968240E+03	2.076208E-01	6.529893E-03
2.978134E+03	2.079817E-01	6.536141E-03
2.988028E+03	2.083310E-01	6.541013E-03
2.997922E+03	2.087044E-01	6.545610E-03
3.007816E+03	2.090675E-01	6.548851E-03
3.017710E+03	2.094402E-01	6.551346E-03
3.027605E+03	2.098249E-01	6.553167E-03
3.037499E+03	2.102217E-01	6.554309E-03
3.047393E+03	2.106138E-01	6.554251E-03
3.057287E+03	2.110357E-01	6.554067E-03
3.067181E+03	2.114711E-01	6.553247E-03
3.077075E+03	2.119207E-01	6.551823E-03
3.086969E+03	2.123856E-01	6.549834E-03
3.096864E+03	2.128836E-01	6.547832E-03
3.106758E+03	2.133832E-01	6.544862E-03
3.116652E+03	2.139350E-01	6.542488E-03
3.126546E+03	2.144920E-01	6.539284E-03
3.136440E+03	2.151049E-01	6.536809E-03
3.146334E+03	2.157435E-01	6.534159E-03
3.156228E+03	2.164105E-01	6.531436E-03
3.166122E+03	2.171404E-01	6.529695E-03
3.176017E+03	2.179200E-01	6.528557E-03
3.185911E+03	2.187523E-01	6.528132E-03
3.195805E+03	2.196405E-01	6.528533E-03
3.205699E+03	2.205881E-01	6.529884E-03
3.215593E+03	2.216140E-01	6.532765E-03
3.225487E+03	2.227059E-01	6.536840E-03
3.235381E+03	2.238981E-01	6.543130E-03
3.245276E+03	2.251630E-01	6.550849E-03
3.255170E+03	2.265339E-01	6.560990E-03
3.265064E+03	2.279977E-01	6.573200E-03
3.274958E+03	2.295713E-01	6.587988E-03
3.284852E+03	2.312398E-01	6.604951E-03
3.294746E+03	2.330325E-01	6.624960E-03
3.304640E+03	2.349316E-01	6.647539E-03
3.314534E+03	2.369321E-01	6.672582E-03
3.324429E+03	2.390559E-01	6.700754E-03
3.334323E+03	2.412769E-01	6.731363E-03
3.344217E+03	2.435791E-01	6.764026E-03
3.354111E+03	2.459570E-01	6.798659E-03
3.364005E+03	2.483983E-01	6.835001E-03
3.373899E+03	2.508690E-01	6.872201E-03
3.383793E+03	2.533268E-01	6.909213E-03
3.393688E+03	2.557342E-01	6.945138E-03
3.403582E+03	2.580278E-01	6.978401E-03
3.413476E+03	2.601469E-01	7.007519E-03
3.423370E+03	2.620177E-01	7.030694E-03
3.433264E+03	2.635233E-01	7.044992E-03
3.443158E+03	2.645911E-01	7.048697E-03
3.453052E+03	2.650967E-01	7.038676E-03
3.462946E+03	2.649610E-01	7.012930E-03
3.472841E+03	2.642110E-01	6.972221E-03
3.482735E+03	2.629100E-01	6.918238E-03
3.492629E+03	2.611820E-01	6.854219E-03
3.502523E+03	2.590926E-01	6.781843E-03
3.512417E+03	2.567472E-01	6.703790E-03
3.522311E+03	2.542338E-01	6.622269E-03
3.532205E+03	2.516333E-01	6.539279E-03
3.542100E+03	2.490176E-01	6.456572E-03
3.551994E+03	2.464383E-01	6.375361E-03
3.561888E+03	2.439496E-01	6.296922E-03
3.571782E+03	2.415859E-01	6.222015E-03
3.581676E+03	2.393950E-01	6.151739E-03
3.591570E+03	2.373955E-01	6.086447E-03
3.601464E+03	2.356101E-01	6.026588E-03
3.611358E+03	2.340365E-01	5.971976E-03
3.621253E+03	2.327049E-01	5.923260E-03
3.631147E+03	2.316035E-01	5.880009E-03
3.641041E+03	2.307348E-01	5.842169E-03
3.650935E+03	2.300891E-01	5.809373E-03
3.660829E+03	2.296708E-01	5.781607E-03
3.670723E+03	2.294643E-01	5.758362E-03
3.680617E+03	2.294530E-01	5.739101E-03
3.690512E+03	2.296272E-01	5.723469E-03
3.700406E+03	2.299767E-01	5.711095E-03
3.710300E+03	2.304833E-01	5.701419E-03
3.720194E+03	2.311369E-01	5.694083E-03
3.730088E+03	2.319278E-01	5.688735E-03
3.739982E+03	2.328389E-01	5.684859E-03
3.749876E+03	2.338615E-01	5.682137E-03
3.759770E+03	2.349801E-01	5.680097E-03
3.769665E+03	2.361868E-01	5.678459E-03
3.779559E+03	2.374745E-01	5.676960E-03
3.789453E+03	2.388296E-01	5.675192E-03
3.799347E+03	2.402458E-01	5.672928E-03
3.809241E+03	2.417107E-01	5.669799E-03
3.819135E+03	2.432184E-01	5.665604E-03
3.829029E+03	2.447633E-01	5.660153E-03
3.838924E+03	2.463331E-01	5.653106E-03
3.848818E+03	2.479224E-01	5.644297E-03
3.858712E+03	2.495192E-01	5.633419E-03
3.868606E+03	2.511182E-01	5.620326E-03
3.878500E+03	2.527134E-01	5.604872E-03
3.888394E+03	2.542935E-01	5.586803E-03
3.898288E+03	2.558466E-01	5.565869E-03
3.908182E+03	2.573727E-01	5.542099E-03
3.918077E+03	2.588605E-01	5.515286E-03
3.927971E+03	2.602988E-01	5.485246E-03
3.937865E+03	2.616828E-01	5.451953E-03
3.947759E+03	2.630027E-01	5.415291E-03
3.957653E+03	2.642613E-01	5.375425E-03
3.967547E+03	2.654516E-01	5.332336E-03
3.977441E+03	2.665682E-01	5.286050E-03
3.987336E+03	2.676069E-01	5.236647E-03
3.997230E+03	2.685824E-01	5.184585E-03
4.007124E+03	2.694822E-01	5.129809E-03
4.017018E+03	2.703173E-01	5.072733E-03
4.026912E+03	2.710874E-01	5.013570E-03
4.036806E+03	2.717982E-01	4.952664E-03
4.046700E+03	2.724548E-01	4.890353E-03
4.056594E+03	2.730564E-01	4.826893E-03
4.066489E+03	2.736078E-01	4.762657E-03
4.076383E+03	2.741088E-01	4.697948E-03
4.086277E+03	2.745661E-01	4.633206E-03
4.096171E+03	2.749887E-01	4.568933E-03
4.106065E+03	2.753877E-01	4.505667E-03
4.115959E+03	2.757729E-01	4.443946E-03
4.125853E+03	2.761618E-01	4.384440E-03
4.135748E+03	2.765782E-01	4.327927E-03
4.145642E+03	2.770320E-01	4.274969E-03
4.155536E+03	2.775465E-01	4.226349E-03
4.165430E+03	2.781321E-01	4.182658E-03
4.175324E+03	2.788017E-01	4.144538E-03
4.185218E+03	2.795555E-01	4.112451E-03
4.195112E+03	2.803773E-01	4.086637E-03
4.205006E+03	2.812509E-01	4.067351E-03
4.214901E+03	2.821262E-01	4.054365E-03
4.224795E+03	2.829534E-01	4.047460E-03
4.234689E+03	2.836583E-01	4.046049E-03
4.244583E+03	2.841510E-01	4.049281E-03
4.254477E+03	2.843383E-01	4.056097E-03
4.264371E+03	2.841287E-01	4.065015E-03
4.274265E+03	2.834820E-01	4.075085E-03
4.284159E+03	2.824137E-01	4.086043E-03
4.294054E+03	2.809710E-01	4.097998E-03
4.303948E+03	2.791869E-01	4.110792E-03
4.313842E+03	2.771150E-01	4.124505E-03
4.323736E+03	2.747964E-01	4.139013E-03
4.333630E+03	2.722779E-01	4.154296E-03
4.343524E+03	2.695985E-01	4.170245E-03
4.353418E+03	2.668050E-01	4.186913E-03
4.363313E+03	2.639413E-01	4.204375E-03
4.373207E+03	2.610510E-01	4.222763E-03
4.383101E+03	2.581733E-01	4.242222E-03
4.392995E+03	2.553569E-01	4.263122E-03
4.402889E+03	2.526325E-01	4.285625E-03
4.412783E+03	2.500270E-01	4.309891E-03
4.422677E+03	2.475648E-01	4.336111E-03
4.432571E+03	2.452632E-01	4.364400E-03
4.442466E+03	2.431185E-01	4.394555E-03
4.452360E+03	2.411410E-01	4.426646E-03
4.462254E+03	2.393147E-01	4.460291E-03
4.472148E+03	2.376384E-01	4.495394E-03
4.482042E+03	2.360924E-01	4.531521E-03
4.491936E+03	2.346618E-01	4.568325E-03
4.501830E+03	2.333342E-01	4.605509E-03
4.511725E+03	2.320951E-01	4.642729E-03
4.521619E+03	2.309278E-01	4.679600E-03
4.531513E+03	2.298275E-01	4.715968E-03
4.541407E+03	2.287822E-01	4.751537E-03
4.551301E+03	2.277888E-01	4.786192E-03
4.561195E+03	2.268438E-01	4.819821E-03
4.571089E+03	2.259458E-01	4.852350E-03
4.580983E+03	2.250986E-01	4.883834E-03
4.590878E+03	2.243081E-01	4.914372E-03
4.600772E+03	2.235786E-01	4.944048E-03
4.610666E+03	2.229209E-01	4.973087E-03
4.620560E+03	2.223385E-01	5.001569E-03
4.630454E+03	2.218433E-01	5.029765E-03
4.640348E+03	2.214448E-01	5.057902E-03
4.650242E+03	2.211552E-01	5.086271E-03
4.660137E+03	2.209802E-01	5.115021E-03
4.670031E+03	2.209332E-01	5.144480E-03
4.679925E+03	2.210181E-01	5.174760E-03
4.689819E+03	2.212449E-01	5.206112E-03
4.699713E+03	2.216164E-01	5.238612E-03
4.709607E+03	2.221338E-01	5.272302E-03
4.719501E+03	2.227956E-01	5.307146E-03
4.729395E+03	2.235962E-01	5.343006E-03
4.739290E+03	2.245223E-01	5.379551E-03
4.749184E+03	2.255573E-01	5.416361E-03
4.759078E+03	2.266801E-01	5.452901E-03
4.768972E+03	2.278636E-01	5.488481E-03
4.778866E+03	2.290773E-01	5.522325E-03
4.788760E+03	2.302883E-01	5.553598E-03
4.798654E+03	2.314700E-01	5.581612E-03
4.808549E+03	2.325817E-01	5.605355E-03
4.818443E+03	2.335965E-01	5.624142E-03
4.828337E+03	2.344789E-01	5.637101E-03
4.838231E+03	2.352038E-01	5.643623E-03
4.848125E+03	2.357445E-01	5.643077E-03
4.858019E+03	2.360846E-01	5.635100E-03
4.867913E+03	2.362095E-01	5.619392E-03
4.877807E+03	2.361081E-01	5.595757E-03
4.887702E+03	2.357809E-01	5.564293E-03
4.897596E+03	2.352321E-01	5.525202E-03
4.907490E+03	2.344700E-01	5.478797E-03
4.917384E+03	2.335159E-01	5.425708E-03
4.927278E+03	2.323862E-01	5.366452E-03
4.937172E+03	2.311093E-01	5.301831E-03
4.947066E+03	2.297080E-01	5.232505E-03
4.956961E+03	2.282087E-01	5.159223E-03
4.966855E+03	2.266319E-01	5.082582E-03
4.976749E+03	2.250005E-01	5.003233E-03
4.986643E+03	2.233301E-01	4.921648E-03
4.996537E+03	2.216409E-01	4.838397E-03
5.006431E+03	2.199429E-01	4.753817E-03
5.016325E+03	2.182479E-01	4.668277E-03
5.026219E+03	2.165660E-01	4.582101E-03
5.036114E+03	2.149100E-01	4.495665E-03
5.046008E+03	2.132886E-01	4.409251E-03
5.055902E+03	2.117154E-01	4.323235E-03
5.065796E+03	2.102022E-01	4.237943E-03
5.075690E+03	2.087587E-01	4.153652E-03
5.085584E+03	2.073996E-01	4.070729E-03
5.095478E+03	2.061293E-01	3.989325E-03
5.105373E+03	2.049577E-01	3.909699E-03
5.115267E+03	2.038853E-01	3.831925E-03
5.125161E+03	2.029111E-01	3.756052E-03
5.135055E+03	2.020310E-01	3.682083E-03
5.144949E+03	2.012402E-01	3.610019E-03
5.154843E+03	2.005282E-01	3.539771E-03
5.164737E+03	1.998856E-01	3.471297E-03
5.174631E+03	1.993047E-01	3.404604E-03
5.184526E+03	1.987771E-01	3.339702E-03
5.194420E+03	1.982925E-01	3.276596E-03
5.204314E+03	1.978438E-01	3.215373E-03
5.214208E+03	1.974265E-01	3.156173E-03
5.224102E+03	1.970349E-01	3.099140E-03
5.233996E+03	1.966609E-01	3.044399E-03
5.243890E+03	1.963002E-01	2.992153E-03
5.253785E+03	1.959434E-01	2.942540E-03
5.263679E+03	1.955824E-01	2.895736E-03
5.273573E+03	1.952094E-01	2.851932E-03
5.283467E+03	1.948115E-01	2.811251E-03
5.293361E+03	1.943786E-01	2.773860E-03
5.303255E+03	1.938956E-01	2.739848E-03
5.313149E+03	1.933492E-01	2.709323E-03
5.323043E+03	1.927284E-01	2.682399E-03
5.332938E+03	1.920171E-01	2.659093E-03
5.342832E+03	1.912100E-01	2.639526E-03
5.352726E+03	1.903006E-01	2.623662E-03
5.362620E+03	1.892908E-01	2.611297E-03
5.372514E+03	1.882032E-01	2.602421E-03
5.382408E+03	1.870707E-01	2.597120E-03
5.392302E+03	1.859257E-01	2.595458E-03
5.402196E+03	1.847998E-01	2.597489E-03
5.412091E+03	1.837191E-01	2.603195E-03
5.421985E+03	1.827027E-01	2.612479E-03
5.431879E+03	1.817673E-01	2.625237E-03
5.441773E+03	1.809217E-01	2.641269E-03
5.451667E+03	1.801661E-01	2.660279E-03
5.461561E+03	1.794984E-01	2.681956E-03
5.471455E+03	1.789079E-01	2.705880E-03
5.481350E+03	1.783857E-01	2.731667E-03
5.491244E+03	1.779149E-01	2.758830E-03
5.501138E+03	1.774799E-01	2.786902E-03
5.511032E+03	1.770675E-01	2.815462E-03
5.520926E+03	1.766630E-01	2.844071E-03
5.530820E+03	1.762585E-01	2.872404E-03
5.540714E+03	1.758487E-01	2.900189E-03
5.550608E+03	1.754349E-01	2.927278E-03
5.560503E+03	1.750203E-01	2.953562E-03
5.570397E+03	1.746143E-01	2.979064E-03
5.580291E+03	1.742324E-01	3.003918E-03
5.590185E+03	1.738887E-01	3.028270E-03
5.600079E+03	1.736024E-01	3.052364E-03
5.609973E+03	1.733905E-01	3.076432E-03
5.619867E+03	1.732690E-01	3.100700E-03
5.629762E+03	1.732519E-01	3.125376E-03
5.639656E+03	1.733509E-01	3.150634E-03
5.649550E+03	1.735753E-01	3.176613E-03
5.659444E+03	1.739322E-01	3.203415E-03
5.669338E+03	1.744272E-01	3.231114E-03
5.679232E+03	1.750661E-01	3.259788E-03
5.689126E+03	1.758484E-01	3.289398E-03
5.699020E+03	1.767797E-01	3.320010E-03
5.708915E+03	1.778612E-01	3.351605E-03
5.718809E+03	1.790891E-01	3.384064E-03
5.728703E+03	1.804649E-01	3.417360E-03
5.738597E+03	1.819825E-01	3.451314E-03
5.748491E+03	1.836363E-01	3.485752E-03
5.758385E+03	1.854138E-01	3.520360E-03
5.768279E+03	1.872986E-01	3.554741E-03
5.778174E+03	1.892756E-01	3.588525E-03
5.788068E+03	1.913202E-01	3.621152E-03
5.797962E+03	1.934054E-01	3.652021E-03
5.807856E+03	1.955002E-01	3.680462E-03
5.817750E+03	1.975702E-01	3.705750E-03
5.827644E+03	1.995767E-01	3.727092E-03
5.837538E+03	2.014836E-01	3.743763E-03
5.847432E+03	2.032507E-01	3.754994E-03
5.857327E+03	2.048440E-01	3.760158E-03
5.867221E+03	2.062271E-01	3.758610E-03
5.877115E+03	2.073768E-01	3.749994E-03
5.887009E+03	2.082684E-01	3.733959E-03
5.896903E+03	2.088919E-01	3.710448E-03
5.906797E+03	2.092396E-01	3.679489E-03
5.916691E+03	2.093227E-01	3.641457E-03
5.926586E+03	2.091559E-01	3.596812E-03
5.936480E+03	2.087653E-01	3.546217E-03
5.946374E+03	2.081825E-01	3.490431E-03
5.956268E+03	2.074478E-01	3.430347E-03
5.966162E+03	2.066076E-01	3.366938E-03
5.976056E+03	2.057044E-01	3.301092E-03
5.985950E+03	2.047879E-01	3.233777E-03
5.995844E+03	2.039050E-01	3.165882E-03
6.005739E+03	2.030983E-01	3.098194E-03
6.015633E+03	2.024118E-01	3.031481E-03
6.025527E+03	2.018833E-01	2.966389E-03
6.035421E+03	2.015442E-01	2.903440E-03
6.045315E+03	2.014251E-01	2.843125E-03
6.055209E+03	2.015498E-01	2.785823E-03
6.065103E+03	2.019347E-01	2.731816E-03
6.074998E+03	2.025973E-01	2.681408E-03
6.084892E+03	2.035432E-01	2.634767E-03
6.094786E+03	2.047779E-01	2.592102E-03
6.104680E+03	2.062885E-01	2.553444E-03
6.114574E+03	2.080682E-01	2.518975E-03
6.124468E+03	2.100836E-01	2.488645E-03
6.134362E+03	2.122984E-01	2.462485E-03
6.144256E+03	2.146531E-01	2.440383E-03
6.154151E+03	2.170737E-01	2.422201E-03
6.164045E+03	2.194577E-01	2.407625E-03
6.173939E+03	2.216860E-01	2.396289E-03
6.183833E+03	2.236238E-01	2.387755E-03
6.193727E+03	2.251241E-01	2.381495E-03
6.203621E+03	2.260566E-01	2.377120E-03
6.213515E+03	2.263547E-01	2.374780E-03
6.223410E+03	2.260724E-01	2.375674E-03
6.233304E+03	2.253439E-01	2.381525E-03
6.243198E+03	2.243192E-01	2.393603E-03
6.253092E+03	2.231568E-01	2.412966E-03
6.262986E+03	2.219941E-01	2.440400E-03
6.272880E+03	2.209489E-01	2.476501E-03
6.282774E+03	2.201246E-01	2.521786E-03
6.292668E+03	2.195914E-01	2.576510E-03
6.302563E+03	2.194152E-01	2.641012E-03
6.312457E+03	2.196312E-01	2.715396E-03
6.322351E+03	2.202723E-01	2.799869E-03
6.332245E+03	2.213522E-01	2.894509E-03
6.342139E+03	2.228786E-01	2.999409E-03
6.352033E+03	2.248441E-01	3.114537E-03
6.361927E+03	2.272361E-01	3.239835E-03
6.371822E+03	2.300323E-01	3.375135E-03
6.381716E+03	2.331999E-01	3.520114E-03
6.391610E+03	2.366999E-01	3.674333E-03
6.401504E+03	2.404782E-01	3.837072E-03
6.411398E+03	2.444806E-01	4.007537E-03
6.421292E+03	2.486332E-01	4.184518E-03
6.431186E+03	2.528621E-01	4.366689E-03
6.441080E+03	2.570876E-01	4.552498E-03
6.450975E+03	2.612318E-01	4.740297E-03
6.460869E+03	2.652175E-01	4.928314E-03
6.470763E+03	2.689716E-01	5.114731E-03
6.480657E+03	2.724175E-01	5.297543E-03
6.490551E+03	2.754846E-01	5.474746E-03
6.500445E+03	2.781168E-01	5.644521E-03
6.510339E+03	2.802440E-01	5.804683E-03
6.520234E+03	2.818242E-01	5.953542E-03
6.530128E+03	2.828117E-01	6.089285E-03
6.540022E+03	2.831763E-01	6.210393E-03
6.549916E+03	2.829078E-01	6.315771E-03
6.559810E+03	2.819972E-01	6.404374E-03
6.569704E+03	2.804668E-01	6.475894E-03
6.579598E+03	2.783344E-01	6.529990E-03
6.589492E+03	2.756443E-01	6.567016E-03
6.599387E+03	2.724395E-01	6.587395E-03
6.609281E+03	2.687780E-01	6.592005E-03
6.619175E+03	2.647196E-01	6.581887E-03
6.629069E+03	2.603267E-01	6.558261E-03
6.638963E+03	2.556634E-01	6.522493E-03
6.648857E+03	2.507924E-01	6.476020E-03
6.658751E+03	2.457804E-01	6.420481E-03
6.668645E+03	2.406752E-01	6.357108E-03
6.678540E+03	2.355385E-01	6.287581E-03
6.688434E+03	2.304146E-01	6.213179E-03
6.698328E+03	2.253433E-01	6.135118E-03
6.708222E+03	2.203679E-01	6.054754E-03
6.718116E+03	2.155176E-01	5.973089E-03
6.728010E+03	2.108200E-01	5.891115E-03
6.737904E+03	2.063010E-01	5.809787E-03
6.747799E+03	2.019766E-01	5.729801E-03
6.757693E+03	1.978620E-01	5.651830E-03
6.767587E+03	1.939715E-01	5.576523E-03
6.777481E+03	1.903133E-01	5.504353E-03
6.787375E+03	1.868901E-01	5.435627E-03
6.797269E+03	1.837071E-01	5.370709E-03
6.807163E+03	1.807621E-01	5.309737E-03
6.817057E+03	1.780557E-01	5.252920E-03
6.826952E+03	1.755820E-01	5.200248E-03
6.836846E+03	1.733399E-01	5.151850E-03
6.846740E+03	1.713151E-01	5.107435E-03
6.856634E+03	1.695054E-01	5.067062E-03
6.866528E+03	1.678958E-01	5.030385E-03
6.876422E+03	1.664767E-01	4.997212E-03
6.886316E+03	1.652334E-01	4.967170E-03
6.896211E+03	1.641545E-01	4.939981E-03
6.906105E+03	1.632236E-01	4.915198E-03
6.915999E+03	1.624280E-01	4.892477E-03
6.925893E+03	1.617499E-01	4.871310E-03
6.935787E+03	1.611755E-01	4.851298E-03
6.945681E+03	1.606860E-01	4.831891E-03
6.955575E+03	1.602668E-01	4.812663E-03
6.965469E+03	1.598991E-01	4.793048E-03
6.975364E+03	1.595661E-01	4.772554E-03
6.985258E+03	1.592516E-01	4.750702E-03
6.995152E+03	1.589398E-01	4.727031E-03
7.005046E+03	1.586159E-01	4.701114E-03
7.014940E+03	1.582659E-01	4.672562E-03
7.024834E+03	1.578778E-01	4.641040E-03
7.034728E+03	1.574413E-01	4.606289E-03
7.044623E+03	1.569491E-01	4.568137E-03
7.054517E+03	1.563948E-01	4.526448E-03
7.064411E+03	1.557776E-01	4.481258E-03
7.074305E+03	1.551019E-01	4.432764E-03
7.084199E+03	1.543711E-01	4.381127E-03
7.094093E+03	1.535931E-01	4.326643E-03
7.103987E+03	1.527776E-01	4.269658E-03
7.113881E+03	1.519357E-01	4.210548E-03
7.123776E+03	1.510767E-01	4.149636E-03
7.133670E+03	1.502142E-01	4.087355E-03
7.143564E+03	1.493568E-01	4.023991E-03
7.153458E+03	1.485141E-01	3.959850E-03
7.163352E+03	1.476944E-01	3.895192E-03
7.173246E+03	1.469041E-01	3.830227E-03
7.183140E+03	1.461481E-01	3.765107E-03
7.193035E+03	1.454251E-01	3.699827E-03
7.202929E+03	1.447402E-01	3.634553E-03
7.212823E+03	1.440884E-01	3.569183E-03
7.222717E+03	1.434692E-01	3.503738E-03
7.232611E+03	1.428781E-01	3.438147E-03
7.242505E+03	1.423049E-01	3.372215E-03
7.252399E+03	1.417447E-01	3.305886E-03
7.262293E+03	1.411876E-01	3.239001E-03
7.272188E+03	1.406255E-01	3.171468E-03
7.282082E+03	1.400506E-01	3.103218E-03
7.291976E+03	1.394538E-01	3.034176E-03
7.301870E+03	1.388314E-01	2.964404E-03
7.311764E+03	1.381746E-01	2.893876E-03
7.321658E+03	1.374823E-01	2.822747E-03
7.331552E+03	1.367483E-01	2.751089E-03
7.341447E+03	1.359762E-01	2.679183E-03
7.351341E+03	1.351641E-01	2.607218E-03
7.361235E+03	1.343131E-01	2.535458E-03
7.371129E+03	1.334253E-01	2.464195E-03
7.381023E+03	1.325053E-01	2.393781E-03
7.390917E+03	1.315523E-01	2.324485E-03
7.400811E+03	1.305739E-01	2.256735E-03
7.410705E+03	1.295717E-01	2.190871E-03
7.420600E+03	1.285515E-01	2.127309E-03
7.430494E+03	1.275188E-01	2.066474E-03
7.440388E+03	1.264750E-01	2.008732E-03
7.450282E+03	1.254253E-01	1.954520E-03
7.460176E+03	1.243730E-01	1.904246E-03
7.470070E+03	1.233237E-01	1.858352E-03
7.479964E+03	1.222789E-01	1.817213E-03
7.489859E+03	1.212447E-01	1.781252E-03
7.499753E+03	1.202250E-01	1.750837E-03
7.509647E+03	1.192240E-01	1.726307E-03
7.519541E+03	1.182466E-01	1.707958E-03
7.529435E+03	1.172997E-01	1.696070E-03
7.539329E+03	1.163890E-01	1.690840E-03
7.549223E+03	1.155206E-01	1.692360E-03
7.559117E+03	1.146993E-01	1.700482E-03
7.569012E+03	1.139351E-01	1.715071E-03
7.578906E+03	1.132307E-01	1.735854E-03
7.588800E+03	1.125955E-01	1.762651E-03
7.598694E+03	1.120330E-01	1.795195E-03
7.608588E+03	1.115501E-01	1.833284E-03
7.618482E+03	1.111476E-01	1.876648E-03
7.628376E+03	1.108343E-01	1.925177E-03
7.638271E+03	1.106032E-01	1.978530E-03
7.648165E+03	1.104510E-01	2.036449E-03
7.658059E+03	1.103668E-01	2.098556E-03
7.667953E+03	1.103468E-01	2.164622E-03
7.677847E+03	1.103844E-01	2.234377E-03
