#wls	flux	fluxerr
1.583061E+03	1.172515E-01	8.837368E-03
1.622638E+03	1.195623E-01	8.721641E-03
1.662214E+03	1.218450E-01	8.593937E-03
1.701791E+03	1.241409E-01	8.458102E-03
1.741367E+03	1.264248E-01	8.313342E-03
1.780944E+03	1.287229E-01	8.162532E-03
1.820520E+03	1.309612E-01	8.002378E-03
1.860097E+03	1.331600E-01	7.836001E-03
1.899673E+03	1.352492E-01	7.661427E-03
1.939250E+03	1.371299E-01	7.475935E-03
1.978827E+03	1.387271E-01	7.279072E-03
2.018403E+03	1.399269E-01	7.069109E-03
2.057980E+03	1.407343E-01	6.851008E-03
2.097556E+03	1.412992E-01	6.636363E-03
2.137133E+03	1.420478E-01	6.447958E-03
2.176709E+03	1.433441E-01	6.301954E-03
2.216286E+03	1.452250E-01	6.198269E-03
2.255862E+03	1.476704E-01	6.134689E-03
2.295439E+03	1.506000E-01	6.106542E-03
2.335015E+03	1.540829E-01	6.114755E-03
2.374592E+03	1.581420E-01	6.158370E-03
2.414168E+03	1.628057E-01	6.236853E-03
2.453745E+03	1.680147E-01	6.346584E-03
2.493321E+03	1.735675E-01	6.479071E-03
2.532898E+03	1.790557E-01	6.618759E-03
2.572475E+03	1.838064E-01	6.741085E-03
2.612051E+03	1.871238E-01	6.821311E-03
2.651628E+03	1.889864E-01	6.859421E-03
2.691204E+03	1.899761E-01	6.875721E-03
2.730781E+03	1.905652E-01	6.884190E-03
2.770357E+03	1.911221E-01	6.894803E-03
2.809934E+03	1.918042E-01	6.910134E-03
2.849510E+03	1.926787E-01	6.929837E-03
2.889087E+03	1.937462E-01	6.951507E-03
2.928663E+03	1.950101E-01	6.973223E-03
2.968240E+03	1.964940E-01	6.994128E-03
2.978134E+03	1.969156E-01	6.999635E-03
2.988028E+03	1.973454E-01	7.004792E-03
2.997922E+03	1.978031E-01	7.010279E-03
3.007816E+03	1.982714E-01	7.015465E-03
3.017710E+03	1.987717E-01	7.021091E-03
3.027605E+03	1.993067E-01	7.027239E-03
3.037499E+03	1.998586E-01	7.033267E-03
3.047393E+03	2.004468E-01	7.039841E-03
3.057287E+03	2.010721E-01	7.046981E-03
3.067181E+03	2.017176E-01	7.054081E-03
3.077075E+03	2.024210E-01	7.062445E-03
3.086969E+03	2.031476E-01	7.070855E-03
3.096864E+03	2.039352E-01	7.080612E-03
3.106758E+03	2.047498E-01	7.090529E-03
3.116652E+03	2.056295E-01	7.101908E-03
3.126546E+03	2.065585E-01	7.114200E-03
3.136440E+03	2.075396E-01	7.127481E-03
3.146334E+03	2.085929E-01	7.142439E-03
3.156228E+03	2.097037E-01	7.158553E-03
3.166122E+03	2.108925E-01	7.176513E-03
3.176017E+03	2.121449E-01	7.195812E-03
3.185911E+03	2.134989E-01	7.217732E-03
3.195805E+03	2.149228E-01	7.241179E-03
3.205699E+03	2.164371E-01	7.266835E-03
3.215593E+03	2.180623E-01	7.295369E-03
3.225487E+03	2.197837E-01	7.326267E-03
3.235381E+03	2.216037E-01	7.359599E-03
3.245276E+03	2.235592E-01	7.396569E-03
3.255170E+03	2.256162E-01	7.436026E-03
3.265064E+03	2.277927E-01	7.478554E-03
3.274958E+03	2.300877E-01	7.524102E-03
3.284852E+03	2.325157E-01	7.573122E-03
3.294746E+03	2.350726E-01	7.625465E-03
3.304640E+03	2.377335E-01	7.680313E-03
3.314534E+03	2.405237E-01	7.738474E-03
3.324429E+03	2.434291E-01	7.799490E-03
3.334323E+03	2.464145E-01	7.862234E-03
3.344217E+03	2.494738E-01	7.926530E-03
3.354111E+03	2.525954E-01	7.992032E-03
3.364005E+03	2.557431E-01	8.057631E-03
3.373899E+03	2.588545E-01	8.121412E-03
3.383793E+03	2.619297E-01	8.183455E-03
3.393688E+03	2.648701E-01	8.240772E-03
3.403582E+03	2.676377E-01	8.292300E-03
3.413476E+03	2.701483E-01	8.335583E-03
3.423370E+03	2.723261E-01	8.368451E-03
3.433264E+03	2.740524E-01	8.387465E-03
3.443158E+03	2.752543E-01	8.390642E-03
3.453052E+03	2.758236E-01	8.374922E-03
3.462946E+03	2.756947E-01	8.338517E-03
3.472841E+03	2.748951E-01	8.282442E-03
3.482735E+03	2.734974E-01	8.209033E-03
3.492629E+03	2.715781E-01	8.120702E-03
3.502523E+03	2.692259E-01	8.020190E-03
3.512417E+03	2.665468E-01	7.910708E-03
3.522311E+03	2.636144E-01	7.794467E-03
3.532205E+03	2.605416E-01	7.674802E-03
3.542100E+03	2.573752E-01	7.553065E-03
3.551994E+03	2.541841E-01	7.431233E-03
3.561888E+03	2.510401E-01	7.311348E-03
3.571782E+03	2.479930E-01	7.194780E-03
3.581676E+03	2.450593E-01	7.081918E-03
3.591570E+03	2.422979E-01	6.974371E-03
3.601464E+03	2.397113E-01	6.872108E-03
3.611358E+03	2.373325E-01	6.775964E-03
3.621253E+03	2.351648E-01	6.685923E-03
3.631147E+03	2.332291E-01	6.602464E-03
3.641041E+03	2.315107E-01	6.525049E-03
3.650935E+03	2.300222E-01	6.453924E-03
3.660829E+03	2.287629E-01	6.388947E-03
3.670723E+03	2.277294E-01	6.329907E-03
3.680617E+03	2.268983E-01	6.276035E-03
3.690512E+03	2.262819E-01	6.227563E-03
3.700406E+03	2.258551E-01	6.183685E-03
3.710300E+03	2.256107E-01	6.144096E-03
3.720194E+03	2.255492E-01	6.108709E-03
3.730088E+03	2.256458E-01	6.076747E-03
3.739982E+03	2.259009E-01	6.048125E-03
3.749876E+03	2.262986E-01	6.022320E-03
3.759770E+03	2.268313E-01	5.999042E-03
3.769665E+03	2.274839E-01	5.977807E-03
3.779559E+03	2.282569E-01	5.958551E-03
3.789453E+03	2.291285E-01	5.940624E-03
3.799347E+03	2.300996E-01	5.923983E-03
3.809241E+03	2.311635E-01	5.908390E-03
3.819135E+03	2.322995E-01	5.893258E-03
3.829029E+03	2.335087E-01	5.878562E-03
3.838924E+03	2.347779E-01	5.863927E-03
3.848818E+03	2.360944E-01	5.849000E-03
3.858712E+03	2.374590E-01	5.833777E-03
3.868606E+03	2.388592E-01	5.817925E-03
3.878500E+03	2.402891E-01	5.801297E-03
3.888394E+03	2.417368E-01	5.783602E-03
3.898288E+03	2.431965E-01	5.764713E-03
3.908182E+03	2.446566E-01	5.744380E-03
3.918077E+03	2.461188E-01	5.722675E-03
3.927971E+03	2.475660E-01	5.699245E-03
3.937865E+03	2.489947E-01	5.674072E-03
3.947759E+03	2.504077E-01	5.647288E-03
3.957653E+03	2.517846E-01	5.618514E-03
3.967547E+03	2.531367E-01	5.588101E-03
3.977441E+03	2.544577E-01	5.556012E-03
3.987336E+03	2.557430E-01	5.522270E-03
3.997230E+03	2.569886E-01	5.486913E-03
4.007124E+03	2.582094E-01	5.450404E-03
4.017018E+03	2.593916E-01	5.412599E-03
4.026912E+03	2.605457E-01	5.373879E-03
4.036806E+03	2.616762E-01	5.334510E-03
4.046700E+03	2.627772E-01	5.294549E-03
4.056594E+03	2.638656E-01	5.254533E-03
4.066489E+03	2.649309E-01	5.214451E-03
4.076383E+03	2.659909E-01	5.174867E-03
4.086277E+03	2.670484E-01	5.136053E-03
4.096171E+03	2.681064E-01	5.098300E-03
4.106065E+03	2.691807E-01	5.062146E-03
4.115959E+03	2.702765E-01	5.027934E-03
4.125853E+03	2.714004E-01	4.996041E-03
4.135748E+03	2.725728E-01	4.967108E-03
4.145642E+03	2.737933E-01	4.941394E-03
4.155536E+03	2.750676E-01	4.919287E-03
4.165430E+03	2.764018E-01	4.901181E-03
4.175324E+03	2.777905E-01	4.887286E-03
4.185218E+03	2.792142E-01	4.877571E-03
4.195112E+03	2.806525E-01	4.872007E-03
4.205006E+03	2.820628E-01	4.870193E-03
4.214901E+03	2.833990E-01	4.871678E-03
4.224795E+03	2.846008E-01	4.875766E-03
4.234689E+03	2.855807E-01	4.881287E-03
4.244583E+03	2.862652E-01	4.887288E-03
4.254477E+03	2.865550E-01	4.892287E-03
4.264371E+03	2.863808E-01	4.895018E-03
4.274265E+03	2.857056E-01	4.894584E-03
4.284159E+03	2.845612E-01	4.891196E-03
4.294054E+03	2.829883E-01	4.885158E-03
4.303948E+03	2.810496E-01	4.877109E-03
4.313842E+03	2.787994E-01	4.867516E-03
4.323736E+03	2.762904E-01	4.856802E-03
4.333630E+03	2.735808E-01	4.845498E-03
4.343524E+03	2.707126E-01	4.833868E-03
4.353418E+03	2.677341E-01	4.822316E-03
4.363313E+03	2.646915E-01	4.811246E-03
4.373207E+03	2.616241E-01	4.800977E-03
4.383101E+03	2.585688E-01	4.791833E-03
4.392995E+03	2.555630E-01	4.784189E-03
4.402889E+03	2.526328E-01	4.778263E-03
4.412783E+03	2.498077E-01	4.774375E-03
4.422677E+03	2.471042E-01	4.772647E-03
4.432571E+03	2.445379E-01	4.773214E-03
4.442466E+03	2.421195E-01	4.776150E-03
4.452360E+03	2.398473E-01	4.781312E-03
4.462254E+03	2.377261E-01	4.788701E-03
4.472148E+03	2.357502E-01	4.798126E-03
4.482042E+03	2.339110E-01	4.809351E-03
4.491936E+03	2.322020E-01	4.822182E-03
4.501830E+03	2.306120E-01	4.836339E-03
4.511725E+03	2.291306E-01	4.851555E-03
4.521619E+03	2.277530E-01	4.867687E-03
4.531513E+03	2.264670E-01	4.884436E-03
4.541407E+03	2.252676E-01	4.901657E-03
4.551301E+03	2.241514E-01	4.919243E-03
4.561195E+03	2.231110E-01	4.937002E-03
4.571089E+03	2.221516E-01	4.955024E-03
4.580983E+03	2.212695E-01	4.973204E-03
4.590878E+03	2.204672E-01	4.991583E-03
4.600772E+03	2.197491E-01	5.010249E-03
4.610666E+03	2.191200E-01	5.029299E-03
4.620560E+03	2.185828E-01	5.048797E-03
4.630454E+03	2.181489E-01	5.069006E-03
4.640348E+03	2.178163E-01	5.089882E-03
4.650242E+03	2.175987E-01	5.111748E-03
4.660137E+03	2.174959E-01	5.134606E-03
4.670031E+03	2.175124E-01	5.158567E-03
4.679925E+03	2.176537E-01	5.183762E-03
4.689819E+03	2.179185E-01	5.210165E-03
4.699713E+03	2.183083E-01	5.237811E-03
4.709607E+03	2.188175E-01	5.266558E-03
4.719501E+03	2.194373E-01	5.296186E-03
4.729395E+03	2.201611E-01	5.326523E-03
4.739290E+03	2.209712E-01	5.357120E-03
4.749184E+03	2.218552E-01	5.387652E-03
4.759078E+03	2.227919E-01	5.417576E-03
4.768972E+03	2.237651E-01	5.446472E-03
4.778866E+03	2.247520E-01	5.473750E-03
4.788760E+03	2.257247E-01	5.498701E-03
4.798654E+03	2.266601E-01	5.520733E-03
4.808549E+03	2.275339E-01	5.539232E-03
4.818443E+03	2.283184E-01	5.553501E-03
4.828337E+03	2.289915E-01	5.562996E-03
4.838231E+03	2.295311E-01	5.567184E-03
4.848125E+03	2.299155E-01	5.565544E-03
4.858019E+03	2.301316E-01	5.557791E-03
4.867913E+03	2.301682E-01	5.543688E-03
4.877807E+03	2.300178E-01	5.523112E-03
4.887702E+03	2.296761E-01	5.496023E-03
4.897596E+03	2.291505E-01	5.462678E-03
4.907490E+03	2.284455E-01	5.423276E-03
4.917384E+03	2.275725E-01	5.378180E-03
4.927278E+03	2.265455E-01	5.327833E-03
4.937172E+03	2.253814E-01	5.272741E-03
4.947066E+03	2.241008E-01	5.213499E-03
4.956961E+03	2.227205E-01	5.150610E-03
4.966855E+03	2.212609E-01	5.084662E-03
4.976749E+03	2.197378E-01	5.016129E-03
4.986643E+03	2.181704E-01	4.945558E-03
4.996537E+03	2.165741E-01	4.873404E-03
5.006431E+03	2.149609E-01	4.800035E-03
5.016325E+03	2.133485E-01	4.725947E-03
5.026219E+03	2.117470E-01	4.651453E-03
5.036114E+03	2.101660E-01	4.576853E-03
5.046008E+03	2.086232E-01	4.502618E-03
5.055902E+03	2.071226E-01	4.428910E-03
5.065796E+03	2.056787E-01	4.356111E-03
5.075690E+03	2.043006E-01	4.284487E-03
5.085584E+03	2.029960E-01	4.214258E-03
5.095478E+03	2.017691E-01	4.145578E-03
5.105373E+03	2.006260E-01	4.078629E-03
5.115267E+03	1.995691E-01	4.013522E-03
5.125161E+03	1.985982E-01	3.950313E-03
5.135055E+03	1.977110E-01	3.889021E-03
5.144949E+03	1.969035E-01	3.829644E-03
5.154843E+03	1.961725E-01	3.772192E-03
5.164737E+03	1.955073E-01	3.716550E-03
5.174631E+03	1.949053E-01	3.662764E-03
5.184526E+03	1.943591E-01	3.610803E-03
5.194420E+03	1.938590E-01	3.560605E-03
5.204314E+03	1.933983E-01	3.512174E-03
5.214208E+03	1.929698E-01	3.465517E-03
5.224102E+03	1.925678E-01	3.420682E-03
5.233996E+03	1.921855E-01	3.377706E-03
5.243890E+03	1.918129E-01	3.336576E-03
5.253785E+03	1.914420E-01	3.297325E-03
5.263679E+03	1.910659E-01	3.260015E-03
5.273573E+03	1.906753E-01	3.224667E-03
5.283467E+03	1.902581E-01	3.191262E-03
5.293361E+03	1.898040E-01	3.159811E-03
5.303255E+03	1.893043E-01	3.130347E-03
5.313149E+03	1.887469E-01	3.102839E-03
5.323043E+03	1.881240E-01	3.077322E-03
5.332938E+03	1.874257E-01	3.053776E-03
5.342832E+03	1.866466E-01	3.032237E-03
5.352726E+03	1.857867E-01	3.012750E-03
5.362620E+03	1.848480E-01	2.995204E-03
5.372514E+03	1.838438E-01	2.979614E-03
5.382408E+03	1.827991E-01	2.966164E-03
5.392302E+03	1.817362E-01	2.954984E-03
5.402196E+03	1.806790E-01	2.946231E-03
5.412091E+03	1.796455E-01	2.939962E-03
5.421985E+03	1.786518E-01	2.936218E-03
5.431879E+03	1.777121E-01	2.935012E-03
5.441773E+03	1.768327E-01	2.936240E-03
5.451667E+03	1.760176E-01	2.939768E-03
5.461561E+03	1.752668E-01	2.945410E-03
5.471455E+03	1.745787E-01	2.952960E-03
5.481350E+03	1.739475E-01	2.962152E-03
5.491244E+03	1.733658E-01	2.972696E-03
5.501138E+03	1.728271E-01	2.984329E-03
5.511032E+03	1.723218E-01	2.996737E-03
5.520926E+03	1.718451E-01	3.009695E-03
5.530820E+03	1.713922E-01	3.022985E-03
5.540714E+03	1.709612E-01	3.036446E-03
5.550608E+03	1.705510E-01	3.049942E-03
5.560503E+03	1.701674E-01	3.063461E-03
5.570397E+03	1.698169E-01	3.077023E-03
5.580291E+03	1.695085E-01	3.090701E-03
5.590185E+03	1.692547E-01	3.104638E-03
5.600079E+03	1.690640E-01	3.118918E-03
5.609973E+03	1.689501E-01	3.133732E-03
5.619867E+03	1.689265E-01	3.149273E-03
5.629762E+03	1.690024E-01	3.165663E-03
5.639656E+03	1.691874E-01	3.183038E-03
5.649550E+03	1.694898E-01	3.201510E-03
5.659444E+03	1.699180E-01	3.221199E-03
5.669338E+03	1.704755E-01	3.242132E-03
5.679232E+03	1.711679E-01	3.264371E-03
5.689126E+03	1.719956E-01	3.287884E-03
5.699020E+03	1.729613E-01	3.312676E-03
5.708915E+03	1.740625E-01	3.338650E-03
5.718809E+03	1.752984E-01	3.365738E-03
5.728703E+03	1.766628E-01	3.393763E-03
5.738597E+03	1.781506E-01	3.422565E-03
5.748491E+03	1.797506E-01	3.451865E-03
5.758385E+03	1.814523E-01	3.481392E-03
5.768279E+03	1.832385E-01	3.510746E-03
5.778174E+03	1.850908E-01	3.539501E-03
5.788068E+03	1.869892E-01	3.567210E-03
5.797962E+03	1.889075E-01	3.593302E-03
5.807856E+03	1.908186E-01	3.617203E-03
5.817750E+03	1.926932E-01	3.638311E-03
5.827644E+03	1.945013E-01	3.656018E-03
5.837538E+03	1.962125E-01	3.669728E-03
5.847432E+03	1.977971E-01	3.678886E-03
5.857327E+03	1.992260E-01	3.682966E-03
5.867221E+03	2.004753E-01	3.681564E-03
5.877115E+03	2.015279E-01	3.674431E-03
5.887009E+03	2.023685E-01	3.661370E-03
5.896903E+03	2.029884E-01	3.642336E-03
5.906797E+03	2.033923E-01	3.617541E-03
5.916691E+03	2.035826E-01	3.587171E-03
5.926586E+03	2.035791E-01	3.551732E-03
5.936480E+03	2.034027E-01	3.511755E-03
5.946374E+03	2.030804E-01	3.467873E-03
5.956268E+03	2.026483E-01	3.420868E-03
5.966162E+03	2.021423E-01	3.371501E-03
5.976056E+03	2.016025E-01	3.320593E-03
5.985950E+03	2.010682E-01	3.268922E-03
5.995844E+03	2.005826E-01	3.217309E-03
6.005739E+03	2.001816E-01	3.166428E-03
6.015633E+03	1.999046E-01	3.116994E-03
6.025527E+03	1.997821E-01	3.069552E-03
6.035421E+03	1.998488E-01	3.024701E-03
6.045315E+03	2.001270E-01	2.982834E-03
6.055209E+03	2.006380E-01	2.944327E-03
6.065103E+03	2.013977E-01	2.909482E-03
6.074998E+03	2.024136E-01	2.878492E-03
6.084892E+03	2.036887E-01	2.851504E-03
6.094786E+03	2.052179E-01	2.828591E-03
6.104680E+03	2.069873E-01	2.809745E-03
6.114574E+03	2.089682E-01	2.794820E-03
6.124468E+03	2.111289E-01	2.783693E-03
6.134362E+03	2.134179E-01	2.776056E-03
6.144256E+03	2.157740E-01	2.771561E-03
6.154151E+03	2.181175E-01	2.769698E-03
6.164045E+03	2.203617E-01	2.769950E-03
6.173939E+03	2.224036E-01	2.771654E-03
6.183833E+03	2.241389E-01	2.774164E-03
6.193727E+03	2.254750E-01	2.776979E-03
6.203621E+03	2.263311E-01	2.779703E-03
6.213515E+03	2.266808E-01	2.782519E-03
6.223410E+03	2.265543E-01	2.786183E-03
6.233304E+03	2.260355E-01	2.791957E-03
6.243198E+03	2.252338E-01	2.801039E-03
6.253092E+03	2.242618E-01	2.814429E-03
6.262986E+03	2.232397E-01	2.833191E-03
6.272880E+03	2.222743E-01	2.858239E-03
6.282774E+03	2.214592E-01	2.890367E-03
6.292668E+03	2.208753E-01	2.930280E-03
6.302563E+03	2.205831E-01	2.978501E-03
6.312457E+03	2.206331E-01	3.035506E-03
6.322351E+03	2.210617E-01	3.101668E-03
6.332245E+03	2.218903E-01	3.177233E-03
6.342139E+03	2.231285E-01	3.262344E-03
6.352033E+03	2.247773E-01	3.357073E-03
6.361927E+03	2.268254E-01	3.461340E-03
6.371822E+03	2.292563E-01	3.575010E-03
6.381716E+03	2.320371E-01	3.697688E-03
6.391610E+03	2.351311E-01	3.828900E-03
6.401504E+03	2.384910E-01	3.967960E-03
6.411398E+03	2.420645E-01	4.114048E-03
6.421292E+03	2.457910E-01	4.266131E-03
6.431186E+03	2.496039E-01	4.422991E-03
6.441080E+03	2.534336E-01	4.583264E-03
6.450975E+03	2.572078E-01	4.745438E-03
6.460869E+03	2.608534E-01	4.907884E-03
6.470763E+03	2.642977E-01	5.068877E-03
6.480657E+03	2.674695E-01	5.226619E-03
6.490551E+03	2.703046E-01	5.379360E-03
6.500445E+03	2.727371E-01	5.525224E-03
6.510339E+03	2.747169E-01	5.662585E-03
6.520234E+03	2.761894E-01	5.789661E-03
6.530128E+03	2.771220E-01	5.905082E-03
6.540022E+03	2.774835E-01	6.007483E-03
6.549916E+03	2.772607E-01	6.095873E-03
6.559810E+03	2.764494E-01	6.169470E-03
6.569704E+03	2.750579E-01	6.227798E-03
6.579598E+03	2.731055E-01	6.270667E-03
6.589492E+03	2.706258E-01	6.298278E-03
6.599387E+03	2.676579E-01	6.311026E-03
6.609281E+03	2.642483E-01	6.309569E-03
6.619175E+03	2.604460E-01	6.294695E-03
6.629069E+03	2.563131E-01	6.267604E-03
6.638963E+03	2.519071E-01	6.229470E-03
6.648857E+03	2.472826E-01	6.181482E-03
6.658751E+03	2.424994E-01	6.125037E-03
6.668645E+03	2.376082E-01	6.061376E-03
6.678540E+03	2.326659E-01	5.991960E-03
6.688434E+03	2.277164E-01	5.917983E-03
6.698328E+03	2.228048E-01	5.840718E-03
6.708222E+03	2.179634E-01	5.761135E-03
6.718116E+03	2.132337E-01	5.680490E-03
6.728010E+03	2.086389E-01	5.599573E-03
6.737904E+03	2.042058E-01	5.519294E-03
6.747799E+03	1.999520E-01	5.440322E-03
6.757693E+03	1.958987E-01	5.363435E-03
6.767587E+03	1.920535E-01	5.289042E-03
6.777481E+03	1.884307E-01	5.217729E-03
6.787375E+03	1.850341E-01	5.149792E-03
6.797269E+03	1.818647E-01	5.085445E-03
6.807163E+03	1.789284E-01	5.025019E-03
6.817057E+03	1.762238E-01	4.968638E-03
6.826952E+03	1.737432E-01	4.916227E-03
6.836846E+03	1.714859E-01	4.867903E-03
6.846740E+03	1.694429E-01	4.823526E-03
6.856634E+03	1.676058E-01	4.782966E-03
6.866528E+03	1.659670E-01	4.746099E-03
6.876422E+03	1.645134E-01	4.712628E-03
6.886316E+03	1.632331E-01	4.682277E-03
6.896211E+03	1.621153E-01	4.654794E-03
6.906105E+03	1.611441E-01	4.629769E-03
6.915999E+03	1.603053E-01	4.606824E-03
6.925893E+03	1.595860E-01	4.585621E-03
6.935787E+03	1.589667E-01	4.565618E-03
6.945681E+03	1.584360E-01	4.546503E-03
6.955575E+03	1.579761E-01	4.527776E-03
6.965469E+03	1.575711E-01	4.508996E-03
6.975364E+03	1.572058E-01	4.489732E-03
6.985258E+03	1.568651E-01	4.469565E-03
6.995152E+03	1.565328E-01	4.448043E-03
7.005046E+03	1.561998E-01	4.424925E-03
7.014940E+03	1.558499E-01	4.399774E-03
7.024834E+03	1.554730E-01	4.372324E-03
7.034728E+03	1.550626E-01	4.342431E-03
7.044623E+03	1.546126E-01	4.309957E-03
7.054517E+03	1.541151E-01	4.274723E-03
7.064411E+03	1.535730E-01	4.236858E-03
7.074305E+03	1.529851E-01	4.196387E-03
7.084199E+03	1.523527E-01	4.153398E-03
7.094093E+03	1.516833E-01	4.108151E-03
7.103987E+03	1.509812E-01	4.060831E-03
7.113881E+03	1.502545E-01	4.011708E-03
7.123776E+03	1.495115E-01	3.961064E-03
7.133670E+03	1.487606E-01	3.909182E-03
7.143564E+03	1.480101E-01	3.856331E-03
7.153458E+03	1.472635E-01	3.802652E-03
7.163352E+03	1.465314E-01	3.748471E-03
7.173246E+03	1.458150E-01	3.693867E-03
7.183140E+03	1.451186E-01	3.638990E-03
7.193035E+03	1.444445E-01	3.583948E-03
7.202929E+03	1.437938E-01	3.528815E-03
7.212823E+03	1.431640E-01	3.473577E-03
7.222717E+03	1.425533E-01	3.418243E-03
7.232611E+03	1.419562E-01	3.362747E-03
7.242505E+03	1.413666E-01	3.307009E-03
7.252399E+03	1.407831E-01	3.251077E-03
7.262293E+03	1.401941E-01	3.194768E-03
7.272188E+03	1.395934E-01	3.138047E-03
7.282082E+03	1.389771E-01	3.080937E-03
7.291976E+03	1.383358E-01	3.023354E-03
7.301870E+03	1.376643E-01	2.965331E-03
7.311764E+03	1.369567E-01	2.906890E-03
7.321658E+03	1.362116E-01	2.848172E-03
7.331552E+03	1.354230E-01	2.789225E-03
7.341447E+03	1.345895E-01	2.730213E-03
7.351341E+03	1.337126E-01	2.671364E-03
7.361235E+03	1.327910E-01	2.612856E-03
7.371129E+03	1.318240E-01	2.554891E-03
7.381023E+03	1.308172E-01	2.497797E-03
7.390917E+03	1.297713E-01	2.441808E-03
7.400811E+03	1.286928E-01	2.387273E-03
7.410705E+03	1.275814E-01	2.334408E-03
7.420600E+03	1.264458E-01	2.283603E-03
7.430494E+03	1.252880E-01	2.235108E-03
7.440388E+03	1.241135E-01	2.189240E-03
7.450282E+03	1.229261E-01	2.146275E-03
7.460176E+03	1.217317E-01	2.106513E-03
7.470070E+03	1.205345E-01	2.070213E-03
7.479964E+03	1.193390E-01	2.037621E-03
7.489859E+03	1.181517E-01	2.008996E-03
7.499753E+03	1.169792E-01	1.984582E-03
7.509647E+03	1.158253E-01	1.964542E-03
7.519541E+03	1.146989E-01	1.949110E-03
7.529435E+03	1.136029E-01	1.938383E-03
7.539329E+03	1.125472E-01	1.932549E-03
7.549223E+03	1.115371E-01	1.931607E-03
7.559117E+03	1.105832E-01	1.935563E-03
7.569012E+03	1.096901E-01	1.944307E-03
7.578906E+03	1.088692E-01	1.957855E-03
7.588800E+03	1.081258E-01	1.976122E-03
7.598694E+03	1.074738E-01	1.999194E-03
7.608588E+03	1.069174E-01	2.027008E-03
7.618482E+03	1.064691E-01	2.059677E-03
7.628376E+03	1.061355E-01	2.097242E-03
7.638271E+03	1.059139E-01	2.139581E-03
7.648165E+03	1.057940E-01	2.186442E-03
7.658059E+03	1.057654E-01	2.237563E-03
7.667953E+03	1.058159E-01	2.292652E-03
7.677847E+03	1.059313E-01	2.351357E-03
