#wls	flux	fluxerr
1.583061E+03	1.153121E-01	8.848398E-03
1.622638E+03	1.176072E-01	8.752843E-03
1.662214E+03	1.199247E-01	8.649440E-03
1.701791E+03	1.222223E-01	8.535836E-03
1.741367E+03	1.245386E-01	8.415641E-03
1.780944E+03	1.268337E-01	8.287152E-03
1.820520E+03	1.291212E-01	8.152557E-03
1.860097E+03	1.313529E-01	8.010334E-03
1.899673E+03	1.334789E-01	7.859442E-03
1.939250E+03	1.353981E-01	7.696535E-03
1.978827E+03	1.370129E-01	7.519399E-03
2.018403E+03	1.382152E-01	7.326120E-03
2.057980E+03	1.390492E-01	7.123342E-03
2.097556E+03	1.396745E-01	6.923007E-03
2.137133E+03	1.405004E-01	6.747744E-03
2.176709E+03	1.418070E-01	6.610612E-03
2.216286E+03	1.437031E-01	6.515159E-03
2.255862E+03	1.461611E-01	6.458704E-03
2.295439E+03	1.491022E-01	6.436439E-03
2.335015E+03	1.525624E-01	6.448224E-03
2.374592E+03	1.566021E-01	6.494928E-03
2.414168E+03	1.612444E-01	6.575974E-03
2.453745E+03	1.664008E-01	6.686515E-03
2.493321E+03	1.718404E-01	6.816507E-03
2.532898E+03	1.771787E-01	6.950546E-03
2.572475E+03	1.817644E-01	7.063566E-03
2.612051E+03	1.849722E-01	7.132305E-03
2.651628E+03	1.867786E-01	7.156937E-03
2.691204E+03	1.876628E-01	7.155503E-03
2.730781E+03	1.881580E-01	7.145837E-03
2.770357E+03	1.885745E-01	7.136881E-03
2.809934E+03	1.891298E-01	7.134118E-03
2.849510E+03	1.898838E-01	7.137303E-03
2.889087E+03	1.908496E-01	7.144700E-03
2.928663E+03	1.920819E-01	7.156427E-03
2.968240E+03	1.935921E-01	7.171269E-03
2.978134E+03	1.940240E-01	7.175701E-03
2.988028E+03	1.944889E-01	7.180799E-03
2.997922E+03	1.949682E-01	7.185854E-03
3.007816E+03	1.954635E-01	7.190913E-03
3.017710E+03	1.960163E-01	7.197480E-03
3.027605E+03	1.965717E-01	7.203521E-03
3.037499E+03	1.971881E-01	7.211160E-03
3.047393E+03	1.978281E-01	7.219015E-03
3.057287E+03	1.985119E-01	7.227807E-03
3.067181E+03	1.992410E-01	7.237566E-03
3.077075E+03	1.999978E-01	7.247646E-03
3.086969E+03	2.008218E-01	7.259459E-03
3.096864E+03	2.016773E-01	7.271695E-03
3.106758E+03	2.026037E-01	7.285766E-03
3.116652E+03	2.035660E-01	7.300389E-03
3.126546E+03	2.046039E-01	7.316974E-03
3.136440E+03	2.057012E-01	7.334928E-03
3.146334E+03	2.068793E-01	7.354989E-03
3.156228E+03	2.081225E-01	7.376578E-03
3.166122E+03	2.094522E-01	7.400439E-03
3.176017E+03	2.108530E-01	7.426004E-03
3.185911E+03	2.123464E-01	7.454011E-03
3.195805E+03	2.139355E-01	7.484544E-03
3.205699E+03	2.156232E-01	7.517678E-03
3.215593E+03	2.174307E-01	7.554127E-03
3.225487E+03	2.193235E-01	7.592666E-03
3.235381E+03	2.213405E-01	7.634619E-03
3.245276E+03	2.234832E-01	7.680001E-03
3.255170E+03	2.257522E-01	7.728807E-03
3.265064E+03	2.281282E-01	7.780344E-03
3.274958E+03	2.306464E-01	7.835793E-03
3.284852E+03	2.332849E-01	7.894372E-03
3.294746E+03	2.360562E-01	7.956485E-03
3.304640E+03	2.389518E-01	8.021818E-03
3.314534E+03	2.419600E-01	8.089960E-03
3.324429E+03	2.450653E-01	8.160384E-03
3.334323E+03	2.482660E-01	8.233025E-03
3.344217E+03	2.515367E-01	8.307041E-03
3.354111E+03	2.548453E-01	8.381394E-03
3.364005E+03	2.581720E-01	8.455465E-03
3.373899E+03	2.614698E-01	8.527752E-03
3.383793E+03	2.646828E-01	8.596512E-03
3.393688E+03	2.677645E-01	8.660318E-03
3.403582E+03	2.706404E-01	8.716882E-03
3.413476E+03	2.732257E-01	8.763626E-03
3.423370E+03	2.754472E-01	8.798380E-03
3.433264E+03	2.772241E-01	8.818780E-03
3.443158E+03	2.784349E-01	8.821205E-03
3.453052E+03	2.790142E-01	8.803842E-03
3.462946E+03	2.788809E-01	8.764364E-03
3.472841E+03	2.780803E-01	8.704402E-03
3.482735E+03	2.766467E-01	8.625210E-03
3.492629E+03	2.746554E-01	8.529294E-03
3.502523E+03	2.722259E-01	8.420491E-03
3.512417E+03	2.694304E-01	8.301123E-03
3.522311E+03	2.663736E-01	8.174470E-03
3.532205E+03	2.631232E-01	8.042639E-03
3.542100E+03	2.597720E-01	7.908466E-03
3.551994E+03	2.563880E-01	7.774003E-03
3.561888E+03	2.530174E-01	7.640602E-03
3.571782E+03	2.497260E-01	7.510195E-03
3.581676E+03	2.465560E-01	7.383972E-03
3.591570E+03	2.435176E-01	7.262153E-03
3.601464E+03	2.406649E-01	7.146264E-03
3.611358E+03	2.380186E-01	7.036808E-03
3.621253E+03	2.355713E-01	6.933461E-03
3.631147E+03	2.333576E-01	6.837131E-03
3.641041E+03	2.313617E-01	6.747236E-03
3.650935E+03	2.295983E-01	6.664090E-03
3.660829E+03	2.280571E-01	6.587282E-03
3.670723E+03	2.267464E-01	6.516934E-03
3.680617E+03	2.256521E-01	6.452524E-03
3.690512E+03	2.247690E-01	6.393788E-03
3.700406E+03	2.240907E-01	6.340435E-03
3.710300E+03	2.236100E-01	6.292149E-03
3.720194E+03	2.233102E-01	6.248360E-03
3.730088E+03	2.231840E-01	6.208757E-03
3.739982E+03	2.232236E-01	6.173026E-03
3.749876E+03	2.234129E-01	6.140629E-03
3.759770E+03	2.237526E-01	6.111498E-03
3.769665E+03	2.242270E-01	6.085115E-03
3.779559E+03	2.248288E-01	6.061203E-03
3.789453E+03	2.255508E-01	6.039491E-03
3.799347E+03	2.263708E-01	6.019312E-03
3.809241E+03	2.272974E-01	6.000835E-03
3.819135E+03	2.283088E-01	5.983426E-03
3.829029E+03	2.294061E-01	5.967061E-03
3.838924E+03	2.305682E-01	5.951148E-03
3.848818E+03	2.318035E-01	5.935866E-03
3.858712E+03	2.330843E-01	5.920477E-03
3.868606E+03	2.344189E-01	5.905172E-03
3.878500E+03	2.357874E-01	5.889438E-03
3.888394E+03	2.371843E-01	5.873136E-03
3.898288E+03	2.386042E-01	5.856143E-03
3.908182E+03	2.400419E-01	5.838348E-03
3.918077E+03	2.414859E-01	5.819501E-03
3.927971E+03	2.429322E-01	5.799540E-03
3.937865E+03	2.443707E-01	5.778282E-03
3.947759E+03	2.457983E-01	5.755711E-03
3.957653E+03	2.472132E-01	5.731858E-03
3.967547E+03	2.486082E-01	5.706640E-03
3.977441E+03	2.499827E-01	5.680138E-03
3.987336E+03	2.513321E-01	5.652348E-03
3.997230E+03	2.526639E-01	5.623557E-03
4.007124E+03	2.539689E-01	5.593679E-03
4.017018E+03	2.552563E-01	5.563051E-03
4.026912E+03	2.565244E-01	5.531773E-03
4.036806E+03	2.577781E-01	5.500102E-03
4.046700E+03	2.590164E-01	5.468171E-03
4.056594E+03	2.602448E-01	5.436267E-03
4.066489E+03	2.614699E-01	5.404698E-03
4.076383E+03	2.626929E-01	5.373673E-03
4.086277E+03	2.639267E-01	5.343645E-03
4.096171E+03	2.651742E-01	5.314870E-03
4.106065E+03	2.664392E-01	5.287627E-03
4.115959E+03	2.677420E-01	5.262529E-03
4.125853E+03	2.690760E-01	5.239663E-03
4.135748E+03	2.704601E-01	5.219624E-03
4.145642E+03	2.718898E-01	5.202556E-03
4.155536E+03	2.733782E-01	5.188955E-03
4.165430E+03	2.749182E-01	5.178936E-03
4.175324E+03	2.764955E-01	5.172493E-03
4.185218E+03	2.781023E-01	5.169753E-03
4.195112E+03	2.797007E-01	5.170301E-03
4.205006E+03	2.812608E-01	5.173885E-03
4.214901E+03	2.827206E-01	5.179661E-03
4.224795E+03	2.840251E-01	5.186932E-03
4.234689E+03	2.850987E-01	5.194607E-03
4.244583E+03	2.858523E-01	5.201336E-03
4.254477E+03	2.862067E-01	5.205885E-03
4.264371E+03	2.860900E-01	5.206909E-03
4.274265E+03	2.854781E-01	5.203751E-03
4.284159E+03	2.843922E-01	5.196518E-03
4.294054E+03	2.828771E-01	5.185693E-03
4.303948E+03	2.809856E-01	5.171871E-03
4.313842E+03	2.787824E-01	5.155835E-03
4.323736E+03	2.763162E-01	5.138060E-03
4.333630E+03	2.736423E-01	5.119151E-03
4.343524E+03	2.708039E-01	5.099496E-03
4.353418E+03	2.678545E-01	5.079705E-03
4.363313E+03	2.648358E-01	5.060194E-03
4.373207E+03	2.617833E-01	5.041289E-03
4.383101E+03	2.587377E-01	5.023457E-03
4.392995E+03	2.557278E-01	5.006971E-03
4.402889E+03	2.527866E-01	4.992228E-03
4.412783E+03	2.499321E-01	4.979361E-03
4.422677E+03	2.471917E-01	4.968732E-03
4.432571E+03	2.445811E-01	4.960499E-03
4.442466E+03	2.421039E-01	4.954599E-03
4.452360E+03	2.397700E-01	4.951125E-03
4.462254E+03	2.375783E-01	4.949965E-03
4.472148E+03	2.355315E-01	4.951092E-03
4.482042E+03	2.336189E-01	4.954218E-03
4.491936E+03	2.318387E-01	4.959244E-03
4.501830E+03	2.301814E-01	4.965922E-03
4.511725E+03	2.286401E-01	4.974051E-03
4.521619E+03	2.272051E-01	4.983386E-03
4.531513E+03	2.258678E-01	4.993695E-03
4.541407E+03	2.246264E-01	5.004908E-03
4.551301E+03	2.234750E-01	5.016855E-03
4.561195E+03	2.224113E-01	5.029465E-03
4.571089E+03	2.214321E-01	5.042636E-03
4.580983E+03	2.205382E-01	5.056369E-03
4.590878E+03	2.197320E-01	5.070698E-03
4.600772E+03	2.190165E-01	5.085684E-03
4.610666E+03	2.183931E-01	5.101347E-03
4.620560E+03	2.178692E-01	5.117855E-03
4.630454E+03	2.174470E-01	5.135254E-03
4.640348E+03	2.171315E-01	5.153664E-03
4.650242E+03	2.169274E-01	5.173195E-03
4.660137E+03	2.168389E-01	5.193947E-03
4.670031E+03	2.168666E-01	5.215935E-03
4.679925E+03	2.170150E-01	5.239266E-03
4.689819E+03	2.172820E-01	5.263889E-03
4.699713E+03	2.176656E-01	5.289751E-03
4.709607E+03	2.181594E-01	5.316683E-03
4.719501E+03	2.187571E-01	5.344524E-03
4.729395E+03	2.194490E-01	5.373017E-03
4.739290E+03	2.202179E-01	5.401723E-03
4.749184E+03	2.210488E-01	5.430250E-03
4.759078E+03	2.219265E-01	5.458199E-03
4.768972E+03	2.228338E-01	5.485116E-03
4.778866E+03	2.237459E-01	5.510364E-03
4.788760E+03	2.246421E-01	5.533404E-03
4.798654E+03	2.254977E-01	5.553607E-03
4.808549E+03	2.262910E-01	5.570410E-03
4.818443E+03	2.270005E-01	5.583275E-03
4.828337E+03	2.276012E-01	5.591578E-03
4.838231E+03	2.280721E-01	5.594805E-03
4.848125E+03	2.283983E-01	5.592607E-03
4.858019E+03	2.285625E-01	5.584577E-03
4.867913E+03	2.285566E-01	5.570560E-03
4.877807E+03	2.283741E-01	5.550445E-03
4.887702E+03	2.280153E-01	5.524298E-03
4.897596E+03	2.274768E-01	5.492112E-03
4.907490E+03	2.267680E-01	5.454191E-03
4.917384E+03	2.258982E-01	5.410850E-03
4.927278E+03	2.248830E-01	5.362561E-03
4.937172E+03	2.237347E-01	5.309718E-03
4.947066E+03	2.224703E-01	5.252828E-03
4.956961E+03	2.211097E-01	5.192464E-03
4.966855E+03	2.196677E-01	5.129080E-03
4.976749E+03	2.181639E-01	5.063238E-03
4.986643E+03	2.166149E-01	4.995422E-03
4.996537E+03	2.150355E-01	4.926072E-03
5.006431E+03	2.134378E-01	4.855562E-03
5.016325E+03	2.118402E-01	4.784397E-03
5.026219E+03	2.102504E-01	4.712838E-03
5.036114E+03	2.086847E-01	4.641335E-03
5.046008E+03	2.071543E-01	4.570210E-03
5.055902E+03	2.056650E-01	4.499665E-03
5.065796E+03	2.042336E-01	4.430135E-03
5.075690E+03	2.028614E-01	4.361713E-03
5.085584E+03	2.015628E-01	4.294768E-03
5.095478E+03	2.003389E-01	4.229383E-03
5.105373E+03	1.991979E-01	4.165782E-03
5.115267E+03	1.981377E-01	4.103983E-03
5.125161E+03	1.971607E-01	4.044087E-03
5.135055E+03	1.962667E-01	3.986150E-03
5.144949E+03	1.954504E-01	3.930133E-03
5.154843E+03	1.947073E-01	3.876010E-03
5.164737E+03	1.940312E-01	3.823737E-03
5.174631E+03	1.934160E-01	3.773278E-03
5.184526E+03	1.928566E-01	3.724626E-03
5.194420E+03	1.923460E-01	3.677745E-03
5.204314E+03	1.918749E-01	3.632570E-03
5.214208E+03	1.914362E-01	3.589081E-03
5.224102E+03	1.910243E-01	3.547302E-03
5.233996E+03	1.906299E-01	3.507190E-03
5.243890E+03	1.902468E-01	3.468774E-03
5.253785E+03	1.898667E-01	3.432048E-03
5.263679E+03	1.894791E-01	3.396969E-03
5.273573E+03	1.890764E-01	3.363558E-03
5.283467E+03	1.886472E-01	3.331765E-03
5.293361E+03	1.881835E-01	3.301602E-03
5.303255E+03	1.876734E-01	3.273014E-03
5.313149E+03	1.871095E-01	3.246012E-03
5.323043E+03	1.864812E-01	3.220550E-03
5.332938E+03	1.857834E-01	3.196663E-03
5.342832E+03	1.850096E-01	3.174345E-03
5.352726E+03	1.841606E-01	3.153647E-03
5.362620E+03	1.832380E-01	3.134479E-03
5.372514E+03	1.822557E-01	3.116904E-03
5.382408E+03	1.812319E-01	3.101047E-03
5.392302E+03	1.801881E-01	3.087080E-03
5.402196E+03	1.791460E-01	3.075178E-03
5.412091E+03	1.781217E-01	3.065419E-03
5.421985E+03	1.771320E-01	3.057900E-03
5.431879E+03	1.761884E-01	3.052634E-03
5.441773E+03	1.752974E-01	3.049550E-03
5.451667E+03	1.744667E-01	3.048614E-03
5.461561E+03	1.736975E-01	3.049682E-03
5.471455E+03	1.729877E-01	3.052565E-03
5.481350E+03	1.723335E-01	3.057046E-03
5.491244E+03	1.717291E-01	3.062883E-03
5.501138E+03	1.711685E-01	3.069835E-03
5.511032E+03	1.706458E-01	3.077665E-03
5.520926E+03	1.701541E-01	3.086130E-03
5.530820E+03	1.696920E-01	3.095082E-03
5.540714E+03	1.692582E-01	3.104388E-03
5.550608E+03	1.688520E-01	3.113935E-03
5.560503E+03	1.684807E-01	3.123756E-03
5.570397E+03	1.681486E-01	3.133841E-03
5.580291E+03	1.678620E-01	3.144229E-03
5.590185E+03	1.676339E-01	3.155086E-03
5.600079E+03	1.674730E-01	3.166512E-03
5.609973E+03	1.673902E-01	3.178652E-03
5.619867E+03	1.673961E-01	3.191654E-03
5.629762E+03	1.675024E-01	3.205691E-03
5.639656E+03	1.677163E-01	3.220856E-03
5.649550E+03	1.680472E-01	3.237288E-03
5.659444E+03	1.684998E-01	3.255034E-03
5.669338E+03	1.690791E-01	3.274149E-03
5.679232E+03	1.697900E-01	3.294688E-03
5.689126E+03	1.706347E-01	3.316647E-03
5.699020E+03	1.716119E-01	3.339955E-03
5.708915E+03	1.727220E-01	3.364570E-03
5.718809E+03	1.739601E-01	3.390348E-03
5.728703E+03	1.753230E-01	3.417165E-03
5.738597E+03	1.768014E-01	3.444784E-03
5.748491E+03	1.783871E-01	3.472984E-03
5.758385E+03	1.800675E-01	3.501454E-03
5.768279E+03	1.818254E-01	3.529793E-03
5.778174E+03	1.836423E-01	3.557581E-03
5.788068E+03	1.854988E-01	3.584378E-03
5.797962E+03	1.873694E-01	3.609634E-03
5.807856E+03	1.892299E-01	3.632834E-03
5.817750E+03	1.910493E-01	3.653337E-03
5.827644E+03	1.928027E-01	3.670642E-03
5.837538E+03	1.944602E-01	3.684162E-03
5.847432E+03	1.959926E-01	3.693348E-03
5.857327E+03	1.973790E-01	3.697825E-03
5.867221E+03	1.985921E-01	3.697126E-03
5.877115E+03	1.996208E-01	3.691107E-03
5.887009E+03	2.004480E-01	3.679533E-03
5.896903E+03	2.010725E-01	3.662484E-03
5.906797E+03	2.014941E-01	3.640078E-03
5.916691E+03	2.017196E-01	3.612570E-03
5.926586E+03	2.017668E-01	3.580422E-03
5.936480E+03	2.016559E-01	3.544144E-03
5.946374E+03	2.014149E-01	3.504379E-03
5.956268E+03	2.010744E-01	3.461809E-03
5.966162E+03	2.006725E-01	3.417234E-03
5.976056E+03	2.002439E-01	3.371377E-03
5.985950E+03	1.998301E-01	3.325059E-03
5.995844E+03	1.994687E-01	3.279011E-03
6.005739E+03	1.991959E-01	3.233925E-03
6.015633E+03	1.990481E-01	3.190472E-03
6.025527E+03	1.990587E-01	3.149254E-03
6.035421E+03	1.992531E-01	3.110740E-03
6.045315E+03	1.996567E-01	3.075383E-03
6.055209E+03	2.002898E-01	3.043555E-03
6.065103E+03	2.011629E-01	3.015487E-03
6.074998E+03	2.022862E-01	2.991417E-03
6.084892E+03	2.036589E-01	2.971438E-03
6.094786E+03	2.052718E-01	2.955555E-03
6.104680E+03	2.071084E-01	2.943708E-03
6.114574E+03	2.091439E-01	2.935770E-03
6.124468E+03	2.113398E-01	2.931477E-03
6.134362E+03	2.136431E-01	2.930430E-03
6.144256E+03	2.159915E-01	2.932173E-03
6.154151E+03	2.183061E-01	2.936087E-03
6.164045E+03	2.205013E-01	2.941527E-03
6.173939E+03	2.224826E-01	2.947773E-03
6.183833E+03	2.241575E-01	2.954150E-03
6.193727E+03	2.254401E-01	2.960068E-03
6.203621E+03	2.262678E-01	2.965198E-03
6.213515E+03	2.266210E-01	2.969699E-03
6.223410E+03	2.265252E-01	2.974230E-03
6.233304E+03	2.260548E-01	2.979963E-03
6.243198E+03	2.253054E-01	2.988043E-03
6.253092E+03	2.243833E-01	2.999536E-03
6.262986E+03	2.234017E-01	3.015577E-03
6.272880E+03	2.224602E-01	3.037135E-03
6.282774E+03	2.216500E-01	3.065108E-03
6.292668E+03	2.210534E-01	3.100339E-03
6.302563E+03	2.207363E-01	3.143515E-03
6.312457E+03	2.207434E-01	3.195105E-03
6.322351E+03	2.211148E-01	3.255590E-03
6.332245E+03	2.218761E-01	3.325303E-03
6.342139E+03	2.230384E-01	3.404429E-03
6.352033E+03	2.246019E-01	3.493032E-03
6.361927E+03	2.265567E-01	3.591043E-03
6.371822E+03	2.288855E-01	3.698297E-03
6.381716E+03	2.315589E-01	3.814435E-03
6.391610E+03	2.345401E-01	3.938949E-03
6.401504E+03	2.377804E-01	4.071103E-03
6.411398E+03	2.412241E-01	4.209986E-03
6.421292E+03	2.448173E-01	4.354648E-03
6.431186E+03	2.484959E-01	4.503892E-03
6.441080E+03	2.521939E-01	4.656404E-03
6.450975E+03	2.558411E-01	4.810703E-03
6.460869E+03	2.593713E-01	4.965288E-03
6.470763E+03	2.627077E-01	5.118367E-03
6.480657E+03	2.657862E-01	5.268300E-03
6.490551E+03	2.685407E-01	5.413321E-03
6.500445E+03	2.709064E-01	5.551613E-03
6.510339E+03	2.728347E-01	5.681615E-03
6.520234E+03	2.742750E-01	5.801677E-03
6.530128E+03	2.751895E-01	5.910361E-03
6.540022E+03	2.755500E-01	6.006420E-03
6.549916E+03	2.753405E-01	6.088853E-03
6.559810E+03	2.745596E-01	6.156989E-03
6.569704E+03	2.732138E-01	6.210360E-03
6.579598E+03	2.713186E-01	6.248735E-03
6.589492E+03	2.689050E-01	6.272296E-03
6.599387E+03	2.660105E-01	6.281433E-03
6.609281E+03	2.626791E-01	6.276767E-03
6.619175E+03	2.589638E-01	6.259208E-03
6.629069E+03	2.549156E-01	6.229696E-03
6.638963E+03	2.505925E-01	6.189430E-03
6.648857E+03	2.460482E-01	6.139570E-03
6.658751E+03	2.413435E-01	6.081534E-03
6.668645E+03	2.365258E-01	6.016472E-03
6.678540E+03	2.316512E-01	5.945812E-03
6.688434E+03	2.267628E-01	5.870711E-03
6.698328E+03	2.219033E-01	5.792356E-03
6.708222E+03	2.171130E-01	5.711917E-03
6.718116E+03	2.124253E-01	5.630413E-03
6.728010E+03	2.078666E-01	5.548699E-03
6.737904E+03	2.034666E-01	5.467738E-03
6.747799E+03	1.992405E-01	5.388127E-03
6.757693E+03	1.952076E-01	5.310564E-03
6.767587E+03	1.913831E-01	5.235653E-03
6.777481E+03	1.877743E-01	5.163774E-03
6.787375E+03	1.843877E-01	5.095286E-03
6.797269E+03	1.812272E-01	5.030462E-03
6.807163E+03	1.782964E-01	4.969563E-03
6.817057E+03	1.755919E-01	4.912648E-03
6.826952E+03	1.731130E-01	4.859830E-03
6.836846E+03	1.708525E-01	4.811035E-03
6.846740E+03	1.688059E-01	4.766251E-03
6.856634E+03	1.669630E-01	4.725287E-03
6.866528E+03	1.653165E-01	4.688021E-03
6.876422E+03	1.638555E-01	4.654225E-03
6.886316E+03	1.625663E-01	4.623569E-03
6.896211E+03	1.614361E-01	4.595745E-03
6.906105E+03	1.604556E-01	4.570533E-03
6.915999E+03	1.596046E-01	4.547385E-03
6.925893E+03	1.588745E-01	4.526091E-03
6.935787E+03	1.582441E-01	4.506064E-03
6.945681E+03	1.577022E-01	4.487001E-03
6.955575E+03	1.572333E-01	4.468475E-03
6.965469E+03	1.568200E-01	4.450003E-03
6.975364E+03	1.564474E-01	4.431169E-03
6.985258E+03	1.561009E-01	4.411570E-03
6.995152E+03	1.557667E-01	4.390831E-03
7.005046E+03	1.554341E-01	4.368666E-03
7.014940E+03	1.550875E-01	4.344657E-03
7.024834E+03	1.547192E-01	4.318610E-03
7.034728E+03	1.543211E-01	4.290330E-03
7.044623E+03	1.538851E-01	4.259630E-03
7.054517E+03	1.534097E-01	4.226504E-03
7.064411E+03	1.528913E-01	4.190900E-03
7.074305E+03	1.523305E-01	4.152886E-03
7.084199E+03	1.517301E-01	4.112592E-03
7.094093E+03	1.510925E-01	4.070140E-03
7.103987E+03	1.504279E-01	4.025855E-03
7.113881E+03	1.497369E-01	3.979818E-03
7.123776E+03	1.490292E-01	3.932341E-03
7.133670E+03	1.483144E-01	3.883734E-03
7.143564E+03	1.475940E-01	3.834091E-03
7.153458E+03	1.468790E-01	3.783748E-03
7.163352E+03	1.461734E-01	3.732862E-03
7.173246E+03	1.454803E-01	3.681561E-03
7.183140E+03	1.448054E-01	3.630037E-03
7.193035E+03	1.441472E-01	3.578305E-03
7.202929E+03	1.435068E-01	3.526443E-03
7.212823E+03	1.428857E-01	3.474543E-03
7.222717E+03	1.422784E-01	3.422528E-03
7.232611E+03	1.416820E-01	3.370396E-03
7.242505E+03	1.410907E-01	3.318078E-03
7.252399E+03	1.405016E-01	3.265589E-03
7.262293E+03	1.399058E-01	3.212810E-03
7.272188E+03	1.392958E-01	3.159673E-03
7.282082E+03	1.386680E-01	3.106209E-03
7.291976E+03	1.380153E-01	3.052385E-03
7.301870E+03	1.373313E-01	2.998191E-03
7.311764E+03	1.366119E-01	2.943688E-03
7.321658E+03	1.358504E-01	2.888888E-03
7.331552E+03	1.350463E-01	2.833950E-03
7.341447E+03	1.341982E-01	2.779023E-03
7.351341E+03	1.333001E-01	2.724165E-03
7.361235E+03	1.323562E-01	2.669652E-03
7.371129E+03	1.313673E-01	2.615699E-03
7.381023E+03	1.303354E-01	2.562540E-03
7.390917E+03	1.292626E-01	2.510416E-03
7.400811E+03	1.281537E-01	2.459617E-03
7.410705E+03	1.270117E-01	2.410398E-03
7.420600E+03	1.258418E-01	2.363048E-03
7.430494E+03	1.246495E-01	2.317856E-03
7.440388E+03	1.234402E-01	2.275101E-03
7.450282E+03	1.222146E-01	2.234964E-03
7.460176E+03	1.209838E-01	2.197803E-03
7.470070E+03	1.197470E-01	2.163750E-03
7.479964E+03	1.185140E-01	2.133109E-03
7.489859E+03	1.172897E-01	2.106078E-03
7.499753E+03	1.160776E-01	2.082811E-03
7.509647E+03	1.148867E-01	2.063540E-03
7.519541E+03	1.137211E-01	2.048392E-03
7.529435E+03	1.125905E-01	2.037570E-03
7.539329E+03	1.114999E-01	2.031166E-03
7.549223E+03	1.104565E-01	2.029204E-03
7.559117E+03	1.094694E-01	2.031694E-03
7.569012E+03	1.085469E-01	2.038623E-03
7.578906E+03	1.076973E-01	2.049994E-03
7.588800E+03	1.069296E-01	2.065832E-03
7.598694E+03	1.062534E-01	2.086189E-03
7.608588E+03	1.056799E-01	2.111177E-03
7.618482E+03	1.052184E-01	2.140899E-03
7.628376E+03	1.048746E-01	2.175410E-03
7.638271E+03	1.046469E-01	2.214647E-03
7.648165E+03	1.045266E-01	2.258406E-03
7.658059E+03	1.044996E-01	2.306366E-03
7.667953E+03	1.045547E-01	2.358265E-03
7.677847E+03	1.046785E-01	2.413783E-03
