#wls	flux	fluxerr
1.583061E+03	1.112873E-01	8.892560E-03
1.622638E+03	1.136000E-01	8.844630E-03
1.662214E+03	1.159074E-01	8.787744E-03
1.701791E+03	1.182297E-01	8.723998E-03
1.741367E+03	1.205617E-01	8.653627E-03
1.780944E+03	1.229053E-01	8.577499E-03
1.820520E+03	1.252272E-01	8.494180E-03
1.860097E+03	1.274967E-01	8.402818E-03
1.899673E+03	1.296358E-01	8.299876E-03
1.939250E+03	1.315634E-01	8.182319E-03
1.978827E+03	1.331628E-01	8.045627E-03
2.018403E+03	1.343916E-01	7.890507E-03
2.057980E+03	1.352343E-01	7.719442E-03
2.097556E+03	1.359420E-01	7.549720E-03
2.137133E+03	1.368200E-01	7.399865E-03
2.176709E+03	1.381842E-01	7.286502E-03
2.216286E+03	1.400992E-01	7.211475E-03
2.255862E+03	1.425384E-01	7.172021E-03
2.295439E+03	1.454688E-01	7.165171E-03
2.335015E+03	1.489022E-01	7.189954E-03
2.374592E+03	1.528760E-01	7.246712E-03
2.414168E+03	1.573482E-01	7.332152E-03
2.453745E+03	1.622875E-01	7.443785E-03
2.493321E+03	1.674304E-01	7.568907E-03
2.532898E+03	1.723850E-01	7.689862E-03
2.572475E+03	1.766181E-01	7.783702E-03
2.612051E+03	1.795473E-01	7.826293E-03
2.651628E+03	1.811965E-01	7.820455E-03
2.691204E+03	1.819803E-01	7.784751E-03
2.730781E+03	1.823219E-01	7.736073E-03
2.770357E+03	1.825612E-01	7.687055E-03
2.809934E+03	1.829199E-01	7.645065E-03
2.849510E+03	1.834882E-01	7.611921E-03
2.889087E+03	1.843496E-01	7.589256E-03
2.928663E+03	1.855623E-01	7.577764E-03
2.968240E+03	1.872208E-01	7.579726E-03
2.978134E+03	1.877150E-01	7.582545E-03
2.988028E+03	1.882329E-01	7.585918E-03
2.997922E+03	1.887963E-01	7.590705E-03
3.007816E+03	1.893863E-01	7.596123E-03
3.017710E+03	1.900469E-01	7.603916E-03
3.027605E+03	1.907199E-01	7.611725E-03
3.037499E+03	1.914677E-01	7.622019E-03
3.047393E+03	1.922506E-01	7.633196E-03
3.057287E+03	1.930905E-01	7.646097E-03
3.067181E+03	1.939889E-01	7.660757E-03
3.077075E+03	1.949475E-01	7.677218E-03
3.086969E+03	1.959683E-01	7.695529E-03
3.096864E+03	1.970534E-01	7.715745E-03
3.106758E+03	1.981848E-01	7.737142E-03
3.116652E+03	1.994254E-01	7.762140E-03
3.126546E+03	2.007174E-01	7.788455E-03
3.136440E+03	2.021035E-01	7.817722E-03
3.146334E+03	2.035666E-01	7.849238E-03
3.156228E+03	2.051094E-01	7.883079E-03
3.166122E+03	2.067750E-01	7.920865E-03
3.176017E+03	2.085260E-01	7.961121E-03
3.185911E+03	2.103854E-01	8.004688E-03
3.195805E+03	2.123356E-01	8.050857E-03
3.205699E+03	2.144193E-01	8.101210E-03
3.215593E+03	2.166183E-01	8.155012E-03
3.225487E+03	2.189547E-01	8.213041E-03
3.235381E+03	2.214088E-01	8.274517E-03
3.245276E+03	2.239804E-01	8.339391E-03
3.255170E+03	2.267098E-01	8.409109E-03
3.265064E+03	2.295530E-01	8.481989E-03
3.274958E+03	2.325470E-01	8.559354E-03
3.284852E+03	2.356442E-01	8.639411E-03
3.294746E+03	2.388977E-01	8.724061E-03
3.304640E+03	2.422541E-01	8.811312E-03
3.314534E+03	2.457181E-01	8.901307E-03
3.324429E+03	2.492703E-01	8.993315E-03
3.334323E+03	2.529064E-01	9.087164E-03
3.344217E+03	2.565963E-01	9.181761E-03
3.354111E+03	2.602816E-01	9.275031E-03
3.364005E+03	2.639608E-01	9.366947E-03
3.373899E+03	2.675612E-01	9.454975E-03
3.383793E+03	2.710233E-01	9.537089E-03
3.393688E+03	2.743222E-01	9.612511E-03
3.403582E+03	2.773826E-01	9.678722E-03
3.413476E+03	2.801010E-01	9.732272E-03
3.423370E+03	2.823899E-01	9.770324E-03
3.433264E+03	2.842235E-01	9.792218E-03
3.443158E+03	2.854467E-01	9.792872E-03
3.453052E+03	2.860332E-01	9.771677E-03
3.462946E+03	2.859069E-01	9.726304E-03
3.472841E+03	2.850726E-01	9.657186E-03
3.482735E+03	2.835936E-01	9.566713E-03
3.492629E+03	2.815349E-01	9.457300E-03
3.502523E+03	2.789735E-01	9.331720E-03
3.512417E+03	2.760122E-01	9.193566E-03
3.522311E+03	2.727168E-01	9.045154E-03
3.532205E+03	2.691873E-01	8.889887E-03
3.542100E+03	2.655007E-01	8.730357E-03
3.551994E+03	2.617434E-01	8.569426E-03
3.561888E+03	2.579454E-01	8.408074E-03
3.571782E+03	2.541784E-01	8.248616E-03
3.581676E+03	2.505035E-01	8.092992E-03
3.591570E+03	2.469451E-01	7.941918E-03
3.601464E+03	2.435357E-01	7.796370E-03
3.611358E+03	2.403138E-01	7.657491E-03
3.621253E+03	2.372861E-01	7.525394E-03
3.631147E+03	2.344670E-01	7.400434E-03
3.641041E+03	2.318670E-01	7.282837E-03
3.650935E+03	2.295045E-01	7.173063E-03
3.660829E+03	2.273703E-01	7.070711E-03
3.670723E+03	2.254650E-01	6.975686E-03
3.680617E+03	2.237870E-01	6.887821E-03
3.690512E+03	2.223433E-01	6.807215E-03
3.700406E+03	2.210979E-01	6.732653E-03
3.710300E+03	2.200760E-01	6.664799E-03
3.720194E+03	2.192509E-01	6.602730E-03
3.730088E+03	2.186254E-01	6.546428E-03
3.739982E+03	2.181825E-01	6.495283E-03
3.749876E+03	2.179237E-01	6.449245E-03
3.759770E+03	2.178233E-01	6.407458E-03
3.769665E+03	2.178914E-01	6.370130E-03
3.779559E+03	2.180941E-01	6.336193E-03
3.789453E+03	2.184495E-01	6.306094E-03
3.799347E+03	2.189330E-01	6.279049E-03
3.809241E+03	2.195293E-01	6.254553E-03
3.819135E+03	2.202472E-01	6.232799E-03
3.829029E+03	2.210635E-01	6.213074E-03
3.838924E+03	2.219713E-01	6.195143E-03
3.848818E+03	2.229714E-01	6.178984E-03
3.858712E+03	2.240495E-01	6.164164E-03
3.868606E+03	2.251842E-01	6.150076E-03
3.878500E+03	2.263916E-01	6.137140E-03
3.888394E+03	2.276438E-01	6.124590E-03
3.898288E+03	2.289426E-01	6.112473E-03
3.908182E+03	2.302757E-01	6.100472E-03
3.918077E+03	2.316456E-01	6.088662E-03
3.927971E+03	2.330342E-01	6.076595E-03
3.937865E+03	2.344449E-01	6.064394E-03
3.947759E+03	2.358683E-01	6.051851E-03
3.957653E+03	2.373022E-01	6.038963E-03
3.967547E+03	2.387389E-01	6.025589E-03
3.977441E+03	2.401845E-01	6.011947E-03
3.987336E+03	2.416264E-01	5.997795E-03
3.997230E+03	2.430723E-01	5.983400E-03
4.007124E+03	2.445179E-01	5.968741E-03
4.017018E+03	2.459658E-01	5.953975E-03
4.026912E+03	2.474188E-01	5.939267E-03
4.036806E+03	2.488751E-01	5.924675E-03
4.046700E+03	2.503450E-01	5.910549E-03
4.056594E+03	2.518154E-01	5.896698E-03
4.066489E+03	2.533093E-01	5.883781E-03
4.076383E+03	2.548152E-01	5.871651E-03
4.086277E+03	2.563513E-01	5.860857E-03
4.096171E+03	2.579122E-01	5.851409E-03
4.106065E+03	2.595099E-01	5.843719E-03
4.115959E+03	2.611451E-01	5.837947E-03
4.125853E+03	2.628174E-01	5.834232E-03
4.135748E+03	2.645408E-01	5.833041E-03
4.145642E+03	2.663106E-01	5.834431E-03
4.155536E+03	2.681177E-01	5.838372E-03
4.165430E+03	2.699589E-01	5.844975E-03
4.175324E+03	2.718142E-01	5.853997E-03
4.185218E+03	2.736611E-01	5.865148E-03
4.195112E+03	2.754736E-01	5.878082E-03
4.205006E+03	2.772003E-01	5.891920E-03
4.214901E+03	2.788014E-01	5.906041E-03
4.224795E+03	2.802171E-01	5.919402E-03
4.234689E+03	2.813707E-01	5.930603E-03
4.244583E+03	2.822019E-01	5.938577E-03
4.254477E+03	2.826433E-01	5.942086E-03
4.264371E+03	2.826348E-01	5.939886E-03
4.274265E+03	2.821548E-01	5.931393E-03
4.284159E+03	2.812251E-01	5.916897E-03
4.294054E+03	2.798830E-01	5.896966E-03
4.303948E+03	2.781710E-01	5.872251E-03
4.313842E+03	2.761488E-01	5.843751E-03
4.323736E+03	2.738585E-01	5.812069E-03
4.333630E+03	2.713535E-01	5.778053E-03
4.343524E+03	2.686765E-01	5.742320E-03
4.353418E+03	2.658798E-01	5.705709E-03
4.363313E+03	2.629964E-01	5.668661E-03
4.373207E+03	2.600644E-01	5.631744E-03
4.383101E+03	2.571189E-01	5.595483E-03
4.392995E+03	2.541920E-01	5.560361E-03
4.402889E+03	2.513115E-01	5.526790E-03
4.412783E+03	2.484975E-01	5.495042E-03
4.422677E+03	2.457741E-01	5.465492E-03
4.432571E+03	2.431536E-01	5.438280E-03
4.442466E+03	2.406512E-01	5.413632E-03
4.452360E+03	2.382757E-01	5.391644E-03
4.462254E+03	2.360243E-01	5.372166E-03
4.472148E+03	2.339063E-01	5.355332E-03
4.482042E+03	2.319179E-01	5.340990E-03
4.491936E+03	2.300567E-01	5.329032E-03
4.501830E+03	2.283190E-01	5.319317E-03
4.511725E+03	2.267011E-01	5.311718E-03
4.521619E+03	2.251950E-01	5.306005E-03
4.531513E+03	2.237969E-01	5.302053E-03
4.541407E+03	2.225031E-01	5.299742E-03
4.551301E+03	2.213079E-01	5.298902E-03
4.561195E+03	2.202121E-01	5.299532E-03
4.571089E+03	2.192121E-01	5.301513E-03
4.580983E+03	2.183077E-01	5.304825E-03
4.590878E+03	2.174969E-01	5.309400E-03
4.600772E+03	2.167845E-01	5.315336E-03
4.610666E+03	2.161671E-01	5.322537E-03
4.620560E+03	2.156530E-01	5.331195E-03
4.630454E+03	2.152396E-01	5.341236E-03
4.640348E+03	2.149326E-01	5.352791E-03
4.650242E+03	2.147318E-01	5.365847E-03
4.660137E+03	2.146390E-01	5.380444E-03
4.670031E+03	2.146556E-01	5.396602E-03
4.679925E+03	2.147838E-01	5.414376E-03
4.689819E+03	2.150169E-01	5.433581E-03
4.699713E+03	2.153542E-01	5.454188E-03
4.709607E+03	2.157879E-01	5.475988E-03
4.719501E+03	2.163107E-01	5.498778E-03
4.729395E+03	2.169128E-01	5.522288E-03
4.739290E+03	2.175828E-01	5.546214E-03
4.749184E+03	2.183038E-01	5.570097E-03
4.759078E+03	2.190626E-01	5.593581E-03
4.768972E+03	2.198384E-01	5.616106E-03
4.778866E+03	2.206148E-01	5.637234E-03
4.788760E+03	2.213713E-01	5.656418E-03
4.798654E+03	2.220873E-01	5.673111E-03
4.808549E+03	2.227437E-01	5.686817E-03
4.818443E+03	2.233157E-01	5.696885E-03
4.828337E+03	2.237891E-01	5.702951E-03
4.838231E+03	2.241464E-01	5.704577E-03
4.848125E+03	2.243701E-01	5.701327E-03
4.858019E+03	2.244504E-01	5.692975E-03
4.867913E+03	2.243782E-01	5.679316E-03
4.877807E+03	2.241499E-01	5.660304E-03
4.887702E+03	2.237608E-01	5.635866E-03
4.897596E+03	2.232122E-01	5.606092E-03
4.907490E+03	2.225110E-01	5.571220E-03
4.917384E+03	2.216645E-01	5.531504E-03
4.927278E+03	2.206803E-01	5.487212E-03
4.937172E+03	2.195757E-01	5.438849E-03
4.947066E+03	2.183618E-01	5.386777E-03
4.956961E+03	2.170533E-01	5.331439E-03
4.966855E+03	2.156676E-01	5.273352E-03
4.976749E+03	2.142203E-01	5.212976E-03
4.986643E+03	2.127237E-01	5.150697E-03
4.996537E+03	2.111953E-01	5.087014E-03
5.006431E+03	2.096488E-01	5.022336E-03
5.016325E+03	2.080999E-01	4.957110E-03
5.026219E+03	2.065586E-01	4.891648E-03
5.036114E+03	2.050370E-01	4.826299E-03
5.046008E+03	2.035481E-01	4.761429E-03
5.055902E+03	2.020996E-01	4.697281E-03
5.065796E+03	2.007049E-01	4.634217E-03
5.075690E+03	1.993675E-01	4.572372E-03
5.085584E+03	1.980961E-01	4.511989E-03
5.095478E+03	1.968959E-01	4.453232E-03
5.105373E+03	1.957723E-01	4.396270E-03
5.115267E+03	1.947252E-01	4.341142E-03
5.125161E+03	1.937551E-01	4.287903E-03
5.135055E+03	1.928608E-01	4.236571E-03
5.144949E+03	1.920438E-01	4.187227E-03
5.154843E+03	1.912943E-01	4.139706E-03
5.164737E+03	1.906115E-01	4.094047E-03
5.174631E+03	1.899899E-01	4.050189E-03
5.184526E+03	1.894232E-01	4.008061E-03
5.194420E+03	1.889046E-01	3.967591E-03
5.204314E+03	1.884252E-01	3.928664E-03
5.214208E+03	1.879795E-01	3.891247E-03
5.224102E+03	1.875599E-01	3.855267E-03
5.233996E+03	1.871565E-01	3.820614E-03
5.243890E+03	1.867651E-01	3.787293E-03
5.253785E+03	1.863753E-01	3.755194E-03
5.263679E+03	1.859765E-01	3.724204E-03
5.273573E+03	1.855636E-01	3.694328E-03
5.283467E+03	1.851241E-01	3.665419E-03
5.293361E+03	1.846509E-01	3.637443E-03
5.303255E+03	1.841375E-01	3.610375E-03
5.313149E+03	1.835724E-01	3.584088E-03
5.323043E+03	1.829507E-01	3.558581E-03
5.332938E+03	1.822690E-01	3.533877E-03
5.342832E+03	1.815207E-01	3.509923E-03
5.352726E+03	1.807071E-01	3.486780E-03
5.362620E+03	1.798316E-01	3.464425E-03
5.372514E+03	1.789048E-01	3.442949E-03
5.382408E+03	1.779380E-01	3.422440E-03
5.392302E+03	1.769507E-01	3.403144E-03
5.402196E+03	1.759564E-01	3.385187E-03
5.412091E+03	1.749715E-01	3.368748E-03
5.421985E+03	1.740065E-01	3.353900E-03
5.431879E+03	1.730718E-01	3.340711E-03
5.441773E+03	1.721769E-01	3.329241E-03
5.451667E+03	1.713272E-01	3.319471E-03
5.461561E+03	1.705257E-01	3.311343E-03
5.471455E+03	1.697716E-01	3.304731E-03
5.481350E+03	1.690659E-01	3.299548E-03
5.491244E+03	1.684052E-01	3.295625E-03
5.501138E+03	1.677922E-01	3.292917E-03
5.511032E+03	1.672196E-01	3.291188E-03
5.520926E+03	1.666889E-01	3.290379E-03
5.530820E+03	1.661959E-01	3.290322E-03
5.540714E+03	1.657461E-01	3.291046E-03
5.550608E+03	1.653365E-01	3.292417E-03
5.560503E+03	1.649740E-01	3.294498E-03
5.570397E+03	1.646636E-01	3.297327E-03
5.580291E+03	1.644086E-01	3.300904E-03
5.590185E+03	1.642197E-01	3.305388E-03
5.600079E+03	1.641051E-01	3.310889E-03
5.609973E+03	1.640716E-01	3.317498E-03
5.619867E+03	1.641278E-01	3.325339E-03
5.629762E+03	1.642832E-01	3.334562E-03
5.639656E+03	1.645452E-01	3.345276E-03
5.649550E+03	1.649187E-01	3.357539E-03
5.659444E+03	1.654090E-01	3.371416E-03
5.669338E+03	1.660215E-01	3.386982E-03
5.679232E+03	1.667590E-01	3.404248E-03
5.689126E+03	1.676207E-01	3.423160E-03
5.699020E+03	1.686077E-01	3.443696E-03
5.708915E+03	1.697177E-01	3.465761E-03
5.718809E+03	1.709446E-01	3.489185E-03
5.728703E+03	1.722821E-01	3.513790E-03
5.738597E+03	1.737231E-01	3.539384E-03
5.748491E+03	1.752550E-01	3.565658E-03
5.758385E+03	1.768662E-01	3.592325E-03
5.768279E+03	1.785410E-01	3.619018E-03
5.778174E+03	1.802595E-01	3.645285E-03
5.788068E+03	1.820015E-01	3.670674E-03
5.797962E+03	1.837448E-01	3.694702E-03
5.807856E+03	1.854659E-01	3.716865E-03
5.817750E+03	1.871422E-01	3.736689E-03
5.827644E+03	1.887474E-01	3.753638E-03
5.837538E+03	1.902557E-01	3.767201E-03
5.847432E+03	1.916485E-01	3.777026E-03
5.857327E+03	1.929021E-01	3.782676E-03
5.867221E+03	1.940020E-01	3.783911E-03
5.877115E+03	1.949357E-01	3.780553E-03
5.887009E+03	1.956923E-01	3.772462E-03
5.896903E+03	1.962737E-01	3.759766E-03
5.906797E+03	1.966840E-01	3.742645E-03
5.916691E+03	1.969296E-01	3.721326E-03
5.926586E+03	1.970262E-01	3.696225E-03
5.936480E+03	1.969992E-01	3.667934E-03
5.946374E+03	1.968689E-01	3.636949E-03
5.956268E+03	1.966672E-01	3.603979E-03
5.966162E+03	1.964274E-01	3.569740E-03
5.976056E+03	1.961828E-01	3.534939E-03
5.985950E+03	1.959695E-01	3.500321E-03
5.995844E+03	1.958236E-01	3.466614E-03
6.005739E+03	1.957765E-01	3.434446E-03
6.015633E+03	1.958633E-01	3.404497E-03
6.025527E+03	1.961108E-01	3.377288E-03
6.035421E+03	1.965477E-01	3.353367E-03
6.045315E+03	1.971910E-01	3.333075E-03
6.055209E+03	1.980582E-01	3.316761E-03
6.065103E+03	1.991610E-01	3.304683E-03
6.074998E+03	2.004984E-01	3.296900E-03
6.084892E+03	2.020657E-01	3.293428E-03
6.094786E+03	2.038516E-01	3.294199E-03
6.104680E+03	2.058291E-01	3.298925E-03
6.114574E+03	2.079648E-01	3.307249E-03
6.124468E+03	2.102163E-01	3.318713E-03
6.134362E+03	2.125297E-01	3.332722E-03
6.144256E+03	2.148406E-01	3.348557E-03
6.154151E+03	2.170838E-01	3.365525E-03
6.164045E+03	2.191775E-01	3.382702E-03
6.173939E+03	2.210443E-01	3.399256E-03
6.183833E+03	2.226112E-01	3.414426E-03
6.193727E+03	2.238127E-01	3.427550E-03
6.203621E+03	2.246076E-01	3.438304E-03
6.213515E+03	2.249859E-01	3.446798E-03
6.223410E+03	2.249695E-01	3.453563E-03
6.233304E+03	2.246113E-01	3.459546E-03
6.243198E+03	2.239912E-01	3.465919E-03
6.253092E+03	2.231984E-01	3.473819E-03
6.262986E+03	2.223282E-01	3.484474E-03
6.272880E+03	2.214702E-01	3.499029E-03
6.282774E+03	2.207138E-01	3.518667E-03
6.292668E+03	2.201341E-01	3.544389E-03
6.302563E+03	2.197966E-01	3.577099E-03
6.312457E+03	2.197498E-01	3.617482E-03
6.322351E+03	2.200363E-01	3.666185E-03
6.332245E+03	2.206797E-01	3.723591E-03
6.342139E+03	2.216988E-01	3.790049E-03
6.352033E+03	2.230945E-01	3.865634E-03
6.361927E+03	2.248621E-01	3.950350E-03
6.371822E+03	2.269846E-01	4.043994E-03
6.381716E+03	2.294414E-01	4.146302E-03
6.391610E+03	2.321933E-01	4.256656E-03
6.401504E+03	2.352029E-01	4.374446E-03
6.411398E+03	2.384216E-01	4.498816E-03
6.421292E+03	2.417944E-01	4.628739E-03
6.431186E+03	2.452609E-01	4.763030E-03
6.441080E+03	2.487622E-01	4.900460E-03
6.450975E+03	2.522258E-01	5.039471E-03
6.460869E+03	2.555864E-01	5.178565E-03
6.470763E+03	2.587754E-01	5.316101E-03
6.480657E+03	2.617259E-01	5.450399E-03
6.490551E+03	2.643739E-01	5.579767E-03
6.500445E+03	2.666631E-01	5.702610E-03
6.510339E+03	2.685350E-01	5.817220E-03
6.520234E+03	2.699459E-01	5.922169E-03
6.530128E+03	2.708630E-01	6.016219E-03
6.540022E+03	2.712552E-01	6.098159E-03
6.549916E+03	2.711061E-01	6.167083E-03
6.559810E+03	2.704130E-01	6.222401E-03
6.569704E+03	2.691806E-01	6.263716E-03
6.579598E+03	2.674207E-01	6.290818E-03
6.589492E+03	2.651641E-01	6.303980E-03
6.599387E+03	2.624374E-01	6.303428E-03
6.609281E+03	2.592866E-01	6.289904E-03
6.619175E+03	2.557542E-01	6.264130E-03
6.629069E+03	2.518923E-01	6.227126E-03
6.638963E+03	2.477499E-01	6.179899E-03
6.648857E+03	2.433857E-01	6.123757E-03
6.658751E+03	2.388462E-01	6.059774E-03
6.668645E+03	2.341881E-01	5.989330E-03
6.678540E+03	2.294573E-01	5.913583E-03
6.688434E+03	2.247021E-01	5.833803E-03
6.698328E+03	2.199612E-01	5.751056E-03
6.708222E+03	2.152757E-01	5.666490E-03
6.718116E+03	2.106764E-01	5.581028E-03
6.728010E+03	2.061979E-01	5.495710E-03
6.737904E+03	2.018630E-01	5.411278E-03
6.747799E+03	1.976929E-01	5.328445E-03
6.757693E+03	1.937050E-01	5.247832E-03
6.767587E+03	1.899155E-01	5.170026E-03
6.777481E+03	1.863324E-01	5.095400E-03
6.787375E+03	1.829631E-01	5.024302E-03
6.797269E+03	1.798166E-01	4.957119E-03
6.807163E+03	1.768883E-01	4.893857E-03
6.817057E+03	1.741841E-01	4.834812E-03
6.826952E+03	1.716974E-01	4.779910E-03
6.836846E+03	1.694258E-01	4.729198E-03
6.846740E+03	1.673633E-01	4.682599E-03
6.856634E+03	1.655022E-01	4.639987E-03
6.866528E+03	1.638335E-01	4.601184E-03
6.876422E+03	1.623450E-01	4.565912E-03
6.886316E+03	1.610293E-01	4.534025E-03
6.896211E+03	1.598704E-01	4.505112E-03
6.906105E+03	1.588572E-01	4.478904E-03
6.915999E+03	1.579762E-01	4.455049E-03
6.925893E+03	1.572130E-01	4.433174E-03
6.935787E+03	1.565514E-01	4.412835E-03
6.945681E+03	1.559785E-01	4.393691E-03
6.955575E+03	1.554796E-01	4.375338E-03
6.965469E+03	1.550381E-01	4.357326E-03
6.975364E+03	1.546418E-01	4.339319E-03
6.985258E+03	1.542770E-01	4.320948E-03
6.995152E+03	1.539268E-01	4.301756E-03
7.005046E+03	1.535834E-01	4.281539E-03
7.014940E+03	1.532342E-01	4.259965E-03
7.024834E+03	1.528702E-01	4.236807E-03
7.034728E+03	1.524838E-01	4.211884E-03
7.044623E+03	1.520674E-01	4.185020E-03
7.054517E+03	1.516192E-01	4.156201E-03
7.064411E+03	1.511373E-01	4.125414E-03
7.074305E+03	1.506198E-01	4.092651E-03
7.084199E+03	1.500663E-01	4.057950E-03
7.094093E+03	1.494820E-01	4.021500E-03
7.103987E+03	1.488710E-01	3.983467E-03
7.113881E+03	1.482368E-01	3.943995E-03
7.123776E+03	1.475852E-01	3.903291E-03
7.133670E+03	1.469222E-01	3.861569E-03
7.143564E+03	1.462519E-01	3.818992E-03
7.153458E+03	1.455820E-01	3.775808E-03
7.163352E+03	1.449135E-01	3.732104E-03
7.173246E+03	1.442509E-01	3.688042E-03
7.183140E+03	1.435972E-01	3.643759E-03
7.193035E+03	1.429548E-01	3.599366E-03
7.202929E+03	1.423209E-01	3.554854E-03
7.212823E+03	1.416992E-01	3.510370E-03
7.222717E+03	1.410830E-01	3.465814E-03
7.232611E+03	1.404719E-01	3.421245E-03
7.242505E+03	1.398612E-01	3.376620E-03
7.252399E+03	1.392453E-01	3.331887E-03
7.262293E+03	1.386201E-01	3.287032E-03
7.272188E+03	1.379794E-01	3.242004E-03
7.282082E+03	1.373188E-01	3.196798E-03
7.291976E+03	1.366321E-01	3.151382E-03
7.301870E+03	1.359136E-01	3.105741E-03
7.311764E+03	1.351581E-01	3.059881E-03
7.321658E+03	1.343628E-01	3.013867E-03
7.331552E+03	1.335255E-01	2.967789E-03
7.341447E+03	1.326415E-01	2.921675E-03
7.351341E+03	1.317100E-01	2.875658E-03
7.361235E+03	1.307313E-01	2.829885E-03
7.371129E+03	1.297061E-01	2.784519E-03
7.381023E+03	1.286377E-01	2.739771E-03
7.390917E+03	1.275281E-01	2.695825E-03
7.400811E+03	1.263798E-01	2.652872E-03
7.410705E+03	1.251993E-01	2.611174E-03
7.420600E+03	1.239897E-01	2.570924E-03
7.430494E+03	1.227549E-01	2.532314E-03
7.440388E+03	1.215021E-01	2.495601E-03
7.450282E+03	1.202354E-01	2.460967E-03
7.460176E+03	1.189593E-01	2.428589E-03
7.470070E+03	1.176801E-01	2.398673E-03
7.479964E+03	1.164029E-01	2.371382E-03
7.489859E+03	1.151360E-01	2.346939E-03
7.499753E+03	1.138818E-01	2.325433E-03
7.509647E+03	1.126508E-01	2.307106E-03
7.519541E+03	1.114477E-01	2.292069E-03
7.529435E+03	1.102790E-01	2.280465E-03
7.539329E+03	1.091531E-01	2.272445E-03
7.549223E+03	1.080760E-01	2.268026E-03
7.559117E+03	1.070598E-01	2.267352E-03
7.569012E+03	1.061084E-01	2.270396E-03
7.578906E+03	1.052335E-01	2.277308E-03
7.588800E+03	1.044457E-01	2.288232E-03
7.598694E+03	1.037502E-01	2.303213E-03
7.608588E+03	1.031610E-01	2.322508E-03
7.618482E+03	1.026869E-01	2.346287E-03
7.628376E+03	1.023310E-01	2.374619E-03
7.638271E+03	1.020935E-01	2.407512E-03
7.648165E+03	1.019660E-01	2.444796E-03
7.658059E+03	1.019350E-01	2.486165E-03
7.667953E+03	1.019875E-01	2.531329E-03
7.677847E+03	1.021114E-01	2.579997E-03
