#wls	flux	fluxerr
1.583061E+03	9.041783E-02	8.340110E-03
1.622638E+03	9.267973E-02	8.439748E-03
1.662214E+03	9.497047E-02	8.535948E-03
1.701791E+03	9.726313E-02	8.626254E-03
1.741367E+03	9.956067E-02	8.710971E-03
1.780944E+03	1.018325E-01	8.787510E-03
1.820520E+03	1.040548E-01	8.854011E-03
1.860097E+03	1.061488E-01	8.904163E-03
1.899673E+03	1.080637E-01	8.934345E-03
1.939250E+03	1.097261E-01	8.939352E-03
1.978827E+03	1.111054E-01	8.917819E-03
2.018403E+03	1.122134E-01	8.871856E-03
2.057980E+03	1.131457E-01	8.810081E-03
2.097556E+03	1.141665E-01	8.753566E-03
2.137133E+03	1.154940E-01	8.718672E-03
2.176709E+03	1.173104E-01	8.717996E-03
2.216286E+03	1.196341E-01	8.751239E-03
2.255862E+03	1.224721E-01	8.817201E-03
2.295439E+03	1.257008E-01	8.905418E-03
2.335015E+03	1.292852E-01	9.012107E-03
2.374592E+03	1.331406E-01	9.130249E-03
2.414168E+03	1.372022E-01	9.254570E-03
2.453745E+03	1.414030E-01	9.379932E-03
2.493321E+03	1.456128E-01	9.497411E-03
2.532898E+03	1.496717E-01	9.596757E-03
2.572475E+03	1.534248E-01	9.668748E-03
2.612051E+03	1.567709E-01	9.708186E-03
2.651628E+03	1.597065E-01	9.716252E-03
2.691204E+03	1.622874E-01	9.697673E-03
2.730781E+03	1.646456E-01	9.661219E-03
2.770357E+03	1.670004E-01	9.620016E-03
2.809934E+03	1.695213E-01	9.583466E-03
2.849510E+03	1.723636E-01	9.559456E-03
2.889087E+03	1.757396E-01	9.558337E-03
2.928663E+03	1.797953E-01	9.586045E-03
2.968240E+03	1.846932E-01	9.648773E-03
2.978134E+03	1.860723E-01	9.670797E-03
2.988028E+03	1.875141E-01	9.695302E-03
2.997922E+03	1.890203E-01	9.722323E-03
3.007816E+03	1.905931E-01	9.751920E-03
3.017710E+03	1.922357E-01	9.784206E-03
3.027605E+03	1.939770E-01	9.820581E-03
3.037499E+03	1.957929E-01	9.859753E-03
3.047393E+03	1.976843E-01	9.901711E-03
3.057287E+03	1.996781E-01	9.947730E-03
3.067181E+03	2.017497E-01	9.996517E-03
3.077075E+03	2.039260E-01	1.004933E-02
3.086969E+03	2.061822E-01	1.010487E-02
3.096864E+03	2.085449E-01	1.016438E-02
3.106758E+03	2.110151E-01	1.022781E-02
3.116652E+03	2.135671E-01	1.029384E-02
3.126546E+03	2.162533E-01	1.036494E-02
3.136440E+03	2.190215E-01	1.043848E-02
3.146334E+03	2.218974E-01	1.051565E-02
3.156228E+03	2.248797E-01	1.059629E-02
3.166122E+03	2.279673E-01	1.068026E-02
3.176017E+03	2.311842E-01	1.076862E-02
3.185911E+03	2.345009E-01	1.085988E-02
3.195805E+03	2.379134E-01	1.095381E-02
3.205699E+03	2.414168E-01	1.105009E-02
3.215593E+03	2.450314E-01	1.114959E-02
3.225487E+03	2.487500E-01	1.125190E-02
3.235381E+03	2.525360E-01	1.135532E-02
3.245276E+03	2.564060E-01	1.146051E-02
3.255170E+03	2.603471E-01	1.156688E-02
3.265064E+03	2.643441E-01	1.167369E-02
3.274958E+03	2.683804E-01	1.178019E-02
3.284852E+03	2.724355E-01	1.188547E-02
3.294746E+03	2.765160E-01	1.198980E-02
3.304640E+03	2.805401E-01	1.208967E-02
3.314534E+03	2.845651E-01	1.218759E-02
3.324429E+03	2.885036E-01	1.227987E-02
3.334323E+03	2.923226E-01	1.236518E-02
3.344217E+03	2.960429E-01	1.244452E-02
3.354111E+03	2.995697E-01	1.251402E-02
3.364005E+03	3.029197E-01	1.257456E-02
3.373899E+03	3.059945E-01	1.262225E-02
3.383793E+03	3.088083E-01	1.265789E-02
3.393688E+03	3.113180E-01	1.267996E-02
3.403582E+03	3.134532E-01	1.268587E-02
3.413476E+03	3.152007E-01	1.267540E-02
3.423370E+03	3.165213E-01	1.264731E-02
3.433264E+03	3.173512E-01	1.259941E-02
3.443158E+03	3.177088E-01	1.253283E-02
3.453052E+03	3.175566E-01	1.244646E-02
3.462946E+03	3.168178E-01	1.233770E-02
3.472841E+03	3.155652E-01	1.220979E-02
3.482735E+03	3.137585E-01	1.206156E-02
3.492629E+03	3.114456E-01	1.189522E-02
3.502523E+03	3.086589E-01	1.171236E-02
3.512417E+03	3.054378E-01	1.151480E-02
3.522311E+03	3.018276E-01	1.130454E-02
3.532205E+03	2.978987E-01	1.108446E-02
3.542100E+03	2.937009E-01	1.085661E-02
3.551994E+03	2.892840E-01	1.062300E-02
3.561888E+03	2.846978E-01	1.038559E-02
3.571782E+03	2.799907E-01	1.014623E-02
3.581676E+03	2.752094E-01	9.906681E-03
3.591570E+03	2.704146E-01	9.669140E-03
3.601464E+03	2.656282E-01	9.434382E-03
3.611358E+03	2.609043E-01	9.204291E-03
3.621253E+03	2.562906E-01	8.980484E-03
3.631147E+03	2.517844E-01	8.762774E-03
3.641041E+03	2.474423E-01	8.553027E-03
3.650935E+03	2.432715E-01	8.351367E-03
3.660829E+03	2.393055E-01	8.158801E-03
3.670723E+03	2.355589E-01	7.975673E-03
3.680617E+03	2.320425E-01	7.802186E-03
3.690512E+03	2.287633E-01	7.638404E-03
3.700406E+03	2.257232E-01	7.484220E-03
3.710300E+03	2.229324E-01	7.339799E-03
3.720194E+03	2.203742E-01	7.204417E-03
3.730088E+03	2.180640E-01	7.078417E-03
3.739982E+03	2.159709E-01	6.960624E-03
3.749876E+03	2.140967E-01	6.850950E-03
3.759770E+03	2.124316E-01	6.748934E-03
3.769665E+03	2.109750E-01	6.654422E-03
3.779559E+03	2.097159E-01	6.566921E-03
3.789453E+03	2.086241E-01	6.485373E-03
3.799347E+03	2.077163E-01	6.410182E-03
3.809241E+03	2.069709E-01	6.340573E-03
3.819135E+03	2.063672E-01	6.275811E-03
3.829029E+03	2.059101E-01	6.215965E-03
3.838924E+03	2.055704E-01	6.160076E-03
3.848818E+03	2.053531E-01	6.108223E-03
3.858712E+03	2.052464E-01	6.059993E-03
3.868606E+03	2.052239E-01	6.014559E-03
3.878500E+03	2.052916E-01	5.972058E-03
3.888394E+03	2.054405E-01	5.932191E-03
3.898288E+03	2.056553E-01	5.894485E-03
3.908182E+03	2.059363E-01	5.858938E-03
3.918077E+03	2.062775E-01	5.825356E-03
3.927971E+03	2.066666E-01	5.793383E-03
3.937865E+03	2.070991E-01	5.762895E-03
3.947759E+03	2.075844E-01	5.734154E-03
3.957653E+03	2.080991E-01	5.706518E-03
3.967547E+03	2.086537E-01	5.680285E-03
3.977441E+03	2.092455E-01	5.655398E-03
3.987336E+03	2.098662E-01	5.631647E-03
3.997230E+03	2.105140E-01	5.609007E-03
4.007124E+03	2.111870E-01	5.587452E-03
4.017018E+03	2.118828E-01	5.566946E-03
4.026912E+03	2.125980E-01	5.547434E-03
4.036806E+03	2.133233E-01	5.528710E-03
4.046700E+03	2.140598E-01	5.510846E-03
4.056594E+03	2.147962E-01	5.493596E-03
4.066489E+03	2.155220E-01	5.476739E-03
4.076383E+03	2.162371E-01	5.460335E-03
4.086277E+03	2.169317E-01	5.444196E-03
4.096171E+03	2.176022E-01	5.428292E-03
4.106065E+03	2.182469E-01	5.412651E-03
4.115959E+03	2.188553E-01	5.397076E-03
4.125853E+03	2.194340E-01	5.381801E-03
4.135748E+03	2.199810E-01	5.366846E-03
4.145642E+03	2.204998E-01	5.352362E-03
4.155536E+03	2.209909E-01	5.338428E-03
4.165430E+03	2.214543E-01	5.325107E-03
4.175324E+03	2.218946E-01	5.312570E-03
4.185218E+03	2.223158E-01	5.300975E-03
4.195112E+03	2.227113E-01	5.290223E-03
4.205006E+03	2.230822E-01	5.280395E-03
4.214901E+03	2.234241E-01	5.271444E-03
4.224795E+03	2.237356E-01	5.263387E-03
4.234689E+03	2.240049E-01	5.256003E-03
4.244583E+03	2.242325E-01	5.249334E-03
4.254477E+03	2.244002E-01	5.242938E-03
4.264371E+03	2.245008E-01	5.236595E-03
4.274265E+03	2.245228E-01	5.229984E-03
4.284159E+03	2.244433E-01	5.222516E-03
4.294054E+03	2.242474E-01	5.213785E-03
4.303948E+03	2.239145E-01	5.203251E-03
4.313842E+03	2.234323E-01	5.190554E-03
4.323736E+03	2.227970E-01	5.175538E-03
4.333630E+03	2.220064E-01	5.158070E-03
4.343524E+03	2.210573E-01	5.137991E-03
4.353418E+03	2.199656E-01	5.115586E-03
4.363313E+03	2.187417E-01	5.091010E-03
4.373207E+03	2.174027E-01	5.064567E-03
4.383101E+03	2.159690E-01	5.036646E-03
4.392995E+03	2.144619E-01	5.007654E-03
4.402889E+03	2.129004E-01	4.977952E-03
4.412783E+03	2.113117E-01	4.948095E-03
4.422677E+03	2.097150E-01	4.918453E-03
4.432571E+03	2.081324E-01	4.889475E-03
4.442466E+03	2.065790E-01	4.861451E-03
4.452360E+03	2.050612E-01	4.834469E-03
4.462254E+03	2.035960E-01	4.808871E-03
4.472148E+03	2.021831E-01	4.784603E-03
4.482042E+03	2.008314E-01	4.761824E-03
4.491936E+03	1.995367E-01	4.740393E-03
4.501830E+03	1.983021E-01	4.720337E-03
4.511725E+03	1.971294E-01	4.701667E-03
4.521619E+03	1.960176E-01	4.684318E-03
4.531513E+03	1.949654E-01	4.668230E-03
4.541407E+03	1.939717E-01	4.653344E-03
4.551301E+03	1.930384E-01	4.639672E-03
4.561195E+03	1.921647E-01	4.627176E-03
4.571089E+03	1.913506E-01	4.615827E-03
4.580983E+03	1.905988E-01	4.605666E-03
4.590878E+03	1.899097E-01	4.596684E-03
4.600772E+03	1.892866E-01	4.588939E-03
4.610666E+03	1.887326E-01	4.582491E-03
4.620560E+03	1.882464E-01	4.577287E-03
4.630454E+03	1.878310E-01	4.573388E-03
4.640348E+03	1.874893E-01	4.570848E-03
4.650242E+03	1.872237E-01	4.569713E-03
4.660137E+03	1.870316E-01	4.569902E-03
4.670031E+03	1.869163E-01	4.571488E-03
4.679925E+03	1.868738E-01	4.574356E-03
4.689819E+03	1.869055E-01	4.578533E-03
4.699713E+03	1.870052E-01	4.583846E-03
4.709607E+03	1.871695E-01	4.590204E-03
4.719501E+03	1.873913E-01	4.597421E-03
4.729395E+03	1.876621E-01	4.605272E-03
4.739290E+03	1.879761E-01	4.613604E-03
4.749184E+03	1.883174E-01	4.622013E-03
4.759078E+03	1.886780E-01	4.630287E-03
4.768972E+03	1.890444E-01	4.638090E-03
4.778866E+03	1.894030E-01	4.645074E-03
4.788760E+03	1.897398E-01	4.650886E-03
4.798654E+03	1.900409E-01	4.655180E-03
4.808549E+03	1.902950E-01	4.657676E-03
4.818443E+03	1.904894E-01	4.658060E-03
4.828337E+03	1.906125E-01	4.656048E-03
4.838231E+03	1.906561E-01	4.651448E-03
4.848125E+03	1.906069E-01	4.643944E-03
4.858019E+03	1.904621E-01	4.633478E-03
4.867913E+03	1.902163E-01	4.619934E-03
4.877807E+03	1.898658E-01	4.603244E-03
4.887702E+03	1.894112E-01	4.583444E-03
4.897596E+03	1.888490E-01	4.560476E-03
4.907490E+03	1.881865E-01	4.534547E-03
4.917384E+03	1.874292E-01	4.505816E-03
4.927278E+03	1.865819E-01	4.474438E-03
4.937172E+03	1.856576E-01	4.440754E-03
4.947066E+03	1.846613E-01	4.404922E-03
4.956961E+03	1.836072E-01	4.367312E-03
4.966855E+03	1.825032E-01	4.328151E-03
4.976749E+03	1.813596E-01	4.287717E-03
4.986643E+03	1.801887E-01	4.246336E-03
4.996537E+03	1.789987E-01	4.204230E-03
5.006431E+03	1.778015E-01	4.161715E-03
5.016325E+03	1.766071E-01	4.119051E-03
5.026219E+03	1.754233E-01	4.076446E-03
5.036114E+03	1.742615E-01	4.034194E-03
5.046008E+03	1.731312E-01	3.992541E-03
5.055902E+03	1.720419E-01	3.951721E-03
5.065796E+03	1.710025E-01	3.911959E-03
5.075690E+03	1.700214E-01	3.873463E-03
5.085584E+03	1.691060E-01	3.836416E-03
5.095478E+03	1.682624E-01	3.800971E-03
5.105373E+03	1.674950E-01	3.767236E-03
5.115267E+03	1.668065E-01	3.735278E-03
5.125161E+03	1.661973E-01	3.705117E-03
5.135055E+03	1.656657E-01	3.676725E-03
5.144949E+03	1.652085E-01	3.650038E-03
5.154843E+03	1.648205E-01	3.624958E-03
5.164737E+03	1.644959E-01	3.601366E-03
5.174631E+03	1.642276E-01	3.579127E-03
5.184526E+03	1.640100E-01	3.558136E-03
5.194420E+03	1.638320E-01	3.538175E-03
5.204314E+03	1.636877E-01	3.519142E-03
5.214208E+03	1.635693E-01	3.500898E-03
5.224102E+03	1.634693E-01	3.483313E-03
5.233996E+03	1.633783E-01	3.466224E-03
5.243890E+03	1.632924E-01	3.449580E-03
5.253785E+03	1.632005E-01	3.433188E-03
5.263679E+03	1.630968E-01	3.416968E-03
5.273573E+03	1.629722E-01	3.400773E-03
5.283467E+03	1.628212E-01	3.384531E-03
5.293361E+03	1.626371E-01	3.368147E-03
5.303255E+03	1.624119E-01	3.351503E-03
5.313149E+03	1.621418E-01	3.334567E-03
5.323043E+03	1.618207E-01	3.317258E-03
5.332938E+03	1.614452E-01	3.299550E-03
5.342832E+03	1.610150E-01	3.281477E-03
5.352726E+03	1.605277E-01	3.263031E-03
5.362620E+03	1.599829E-01	3.244207E-03
5.372514E+03	1.593879E-01	3.225118E-03
5.382408E+03	1.587480E-01	3.205837E-03
5.392302E+03	1.580704E-01	3.186464E-03
5.402196E+03	1.573675E-01	3.167206E-03
5.412091E+03	1.566455E-01	3.148145E-03
5.421985E+03	1.559136E-01	3.129417E-03
5.431879E+03	1.551817E-01	3.111178E-03
5.441773E+03	1.544577E-01	3.093535E-03
5.451667E+03	1.537465E-01	3.076544E-03
5.461561E+03	1.530539E-01	3.060273E-03
5.471455E+03	1.523859E-01	3.044800E-03
5.481350E+03	1.517430E-01	3.030092E-03
5.491244E+03	1.511327E-01	3.016251E-03
5.501138E+03	1.505539E-01	3.003221E-03
5.511032E+03	1.500100E-01	2.991029E-03
5.520926E+03	1.495015E-01	2.979643E-03
5.530820E+03	1.490334E-01	2.969130E-03
5.540714E+03	1.486055E-01	2.959450E-03
5.550608E+03	1.482226E-01	2.950666E-03
5.560503E+03	1.478907E-01	2.942862E-03
5.570397E+03	1.476119E-01	2.936051E-03
5.580291E+03	1.473953E-01	2.930385E-03
5.590185E+03	1.472449E-01	2.925910E-03
5.600079E+03	1.471709E-01	2.922803E-03
5.609973E+03	1.471779E-01	2.921130E-03
5.619867E+03	1.472766E-01	2.921072E-03
5.629762E+03	1.474714E-01	2.922689E-03
5.639656E+03	1.477704E-01	2.926117E-03
5.649550E+03	1.481794E-01	2.931444E-03
5.659444E+03	1.487033E-01	2.938737E-03
5.669338E+03	1.493437E-01	2.948002E-03
5.679232E+03	1.501037E-01	2.959270E-03
5.689126E+03	1.509815E-01	2.972478E-03
5.699020E+03	1.519760E-01	2.987574E-03
5.708915E+03	1.530793E-01	3.004376E-03
5.718809E+03	1.542870E-01	3.022767E-03
5.728703E+03	1.555879E-01	3.042498E-03
5.738597E+03	1.569695E-01	3.063299E-03
5.748491E+03	1.584172E-01	3.084858E-03
5.758385E+03	1.599125E-01	3.106793E-03
5.768279E+03	1.614383E-01	3.128748E-03
5.778174E+03	1.629725E-01	3.150281E-03
5.788068E+03	1.644936E-01	3.170962E-03
5.797962E+03	1.659805E-01	3.190381E-03
5.807856E+03	1.674074E-01	3.208037E-03
5.817750E+03	1.687531E-01	3.223533E-03
5.827644E+03	1.699957E-01	3.236467E-03
5.837538E+03	1.711136E-01	3.246445E-03
5.847432E+03	1.720888E-01	3.253157E-03
5.857327E+03	1.729081E-01	3.256393E-03
5.867221E+03	1.735574E-01	3.255929E-03
5.877115E+03	1.740335E-01	3.251761E-03
5.887009E+03	1.743303E-01	3.243828E-03
5.896903E+03	1.744569E-01	3.232366E-03
5.906797E+03	1.744182E-01	3.217529E-03
5.916691E+03	1.742330E-01	3.199731E-03
5.926586E+03	1.739202E-01	3.179384E-03
5.936480E+03	1.735049E-01	3.157011E-03
5.946374E+03	1.730144E-01	3.133169E-03
5.956268E+03	1.724824E-01	3.108524E-03
5.966162E+03	1.719429E-01	3.083739E-03
5.976056E+03	1.714296E-01	3.059456E-03
5.985950E+03	1.709763E-01	3.036318E-03
5.995844E+03	1.706214E-01	3.015031E-03
6.005739E+03	1.703952E-01	2.996155E-03
6.015633E+03	1.703313E-01	2.980291E-03
6.025527E+03	1.704571E-01	2.967931E-03
6.035421E+03	1.707985E-01	2.959533E-03
6.045315E+03	1.713777E-01	2.955483E-03
6.055209E+03	1.722104E-01	2.956059E-03
6.065103E+03	1.733087E-01	2.961478E-03
6.074998E+03	1.746785E-01	2.971853E-03
6.084892E+03	1.763182E-01	2.987179E-03
6.094786E+03	1.782159E-01	3.007287E-03
6.104680E+03	1.803550E-01	3.031940E-03
6.114574E+03	1.827039E-01	3.060667E-03
6.124468E+03	1.852177E-01	3.092796E-03
6.134362E+03	1.878338E-01	3.127375E-03
6.144256E+03	1.904814E-01	3.163340E-03
6.154151E+03	1.930694E-01	3.199309E-03
6.164045E+03	1.954948E-01	3.233723E-03
6.173939E+03	1.976471E-01	3.264901E-03
6.183833E+03	1.994084E-01	3.291051E-03
6.193727E+03	2.006740E-01	3.310586E-03
6.203621E+03	2.013576E-01	3.322204E-03
6.213515E+03	2.014315E-01	3.325542E-03
6.223410E+03	2.009583E-01	3.321693E-03
6.233304E+03	2.000565E-01	3.312644E-03
6.243198E+03	1.988671E-01	3.300733E-03
6.253092E+03	1.975346E-01	3.288285E-03
6.262986E+03	1.961984E-01	3.277500E-03
6.272880E+03	1.949745E-01	3.270214E-03
6.282774E+03	1.939677E-01	3.268104E-03
6.292668E+03	1.932591E-01	3.272488E-03
6.302563E+03	1.929089E-01	3.284367E-03
6.312457E+03	1.929677E-01	3.304617E-03
6.322351E+03	1.934609E-01	3.333714E-03
6.332245E+03	1.944062E-01	3.372028E-03
6.342139E+03	1.958091E-01	3.419741E-03
6.352033E+03	1.976625E-01	3.476830E-03
6.361927E+03	1.999491E-01	3.543102E-03
6.371822E+03	2.026444E-01	3.618237E-03
6.381716E+03	2.057148E-01	3.701745E-03
6.391610E+03	2.091179E-01	3.792967E-03
6.401504E+03	2.128008E-01	3.891027E-03
6.411398E+03	2.167047E-01	3.994922E-03
6.421292E+03	2.207675E-01	4.103541E-03
6.431186E+03	2.249157E-01	4.215529E-03
6.441080E+03	2.290811E-01	4.329578E-03
6.450975E+03	2.331841E-01	4.444123E-03
6.460869E+03	2.371549E-01	4.557729E-03
6.470763E+03	2.409305E-01	4.669042E-03
6.480657E+03	2.444403E-01	4.776526E-03
6.490551E+03	2.476311E-01	4.878927E-03
6.500445E+03	2.504460E-01	4.974890E-03
6.510339E+03	2.528327E-01	5.063112E-03
6.520234E+03	2.547536E-01	5.142553E-03
6.530128E+03	2.561707E-01	5.212147E-03
6.540022E+03	2.570580E-01	5.271049E-03
6.549916E+03	2.573999E-01	5.318617E-03
6.559810E+03	2.571904E-01	5.354407E-03
6.569704E+03	2.564370E-01	5.378266E-03
6.579598E+03	2.551502E-01	5.390111E-03
6.589492E+03	2.533523E-01	5.390133E-03
6.599387E+03	2.510750E-01	5.378741E-03
6.609281E+03	2.483544E-01	5.356474E-03
6.619175E+03	2.452279E-01	5.323932E-03
6.629069E+03	2.417461E-01	5.282033E-03
6.638963E+03	2.379511E-01	5.231543E-03
6.648857E+03	2.338942E-01	5.173473E-03
6.658751E+03	2.296254E-01	5.108839E-03
6.668645E+03	2.251934E-01	5.038659E-03
6.678540E+03	2.206462E-01	4.963972E-03
6.688434E+03	2.160322E-01	4.885851E-03
6.698328E+03	2.113921E-01	4.805231E-03
6.708222E+03	2.067688E-01	4.723110E-03
6.718116E+03	2.021963E-01	4.640313E-03
6.728010E+03	1.977074E-01	4.557648E-03
6.737904E+03	1.933353E-01	4.475947E-03
6.747799E+03	1.890997E-01	4.395749E-03
6.757693E+03	1.850214E-01	4.317616E-03
6.767587E+03	1.811214E-01	4.242123E-03
6.777481E+03	1.774086E-01	4.169567E-03
6.787375E+03	1.738950E-01	4.100320E-03
6.797269E+03	1.705877E-01	4.034632E-03
6.807163E+03	1.674912E-01	3.972695E-03
6.817057E+03	1.646077E-01	3.914641E-03
6.826952E+03	1.619372E-01	3.860544E-03
6.836846E+03	1.594756E-01	3.810381E-03
6.846740E+03	1.572226E-01	3.764203E-03
6.856634E+03	1.551680E-01	3.721833E-03
6.866528E+03	1.533075E-01	3.683220E-03
6.876422E+03	1.516279E-01	3.648093E-03
6.886316E+03	1.501217E-01	3.616317E-03
6.896211E+03	1.487731E-01	3.587551E-03
6.906105E+03	1.475711E-01	3.561558E-03
6.915999E+03	1.465016E-01	3.538032E-03
6.925893E+03	1.455505E-01	3.516654E-03
6.935787E+03	1.447011E-01	3.497045E-03
6.945681E+03	1.439421E-01	3.478948E-03
6.955575E+03	1.432548E-01	3.461934E-03
6.965469E+03	1.426245E-01	3.445661E-03
6.975364E+03	1.420402E-01	3.429880E-03
6.985258E+03	1.414829E-01	3.414147E-03
6.995152E+03	1.409447E-01	3.398289E-03
7.005046E+03	1.404083E-01	3.381908E-03
7.014940E+03	1.398664E-01	3.364847E-03
7.024834E+03	1.393098E-01	3.346902E-03
7.034728E+03	1.387274E-01	3.327834E-03
7.044623E+03	1.381169E-01	3.307612E-03
7.054517E+03	1.374730E-01	3.286136E-03
7.064411E+03	1.367941E-01	3.263397E-03
7.074305E+03	1.360786E-01	3.239390E-03
7.084199E+03	1.353317E-01	3.214269E-03
7.094093E+03	1.345530E-01	3.188060E-03
7.103987E+03	1.337499E-01	3.160972E-03
7.113881E+03	1.329220E-01	3.133031E-03
7.123776E+03	1.320792E-01	3.104507E-03
7.133670E+03	1.312233E-01	3.075477E-03
7.143564E+03	1.303592E-01	3.046093E-03
7.153458E+03	1.294933E-01	3.016542E-03
7.163352E+03	1.286284E-01	2.986921E-03
7.173246E+03	1.277683E-01	2.957356E-03
7.183140E+03	1.269177E-01	2.927991E-03
7.193035E+03	1.260757E-01	2.898842E-03
7.202929E+03	1.252472E-01	2.870052E-03
7.212823E+03	1.244308E-01	2.841634E-03
7.222717E+03	1.236249E-01	2.813581E-03
7.232611E+03	1.228312E-01	2.785973E-03
7.242505E+03	1.220447E-01	2.758733E-03
7.252399E+03	1.212642E-01	2.731877E-03
7.262293E+03	1.204868E-01	2.705381E-03
7.272188E+03	1.197094E-01	2.679216E-03
7.282082E+03	1.189290E-01	2.653356E-03
7.291976E+03	1.181410E-01	2.627750E-03
7.301870E+03	1.173447E-01	2.602423E-03
7.311764E+03	1.165381E-01	2.577379E-03
7.321658E+03	1.157199E-01	2.552634E-03
7.331552E+03	1.148892E-01	2.528215E-03
7.341447E+03	1.140444E-01	2.504133E-03
7.351341E+03	1.131889E-01	2.480505E-03
7.361235E+03	1.123235E-01	2.457395E-03
7.371129E+03	1.114484E-01	2.434847E-03
7.381023E+03	1.105670E-01	2.412978E-03
7.390917E+03	1.096791E-01	2.391818E-03
7.400811E+03	1.087886E-01	2.371497E-03
7.410705E+03	1.078988E-01	2.352113E-03
7.420600E+03	1.070111E-01	2.333734E-03
7.430494E+03	1.061298E-01	2.316485E-03
7.440388E+03	1.052566E-01	2.300430E-03
7.450282E+03	1.043958E-01	2.285690E-03
7.460176E+03	1.035493E-01	2.272331E-03
7.470070E+03	1.027204E-01	2.260453E-03
7.479964E+03	1.019130E-01	2.250158E-03
7.489859E+03	1.011306E-01	2.241548E-03
7.499753E+03	1.003783E-01	2.234754E-03
7.509647E+03	9.965679E-02	2.229813E-03
7.519541E+03	9.897197E-02	2.226874E-03
7.529435E+03	9.832529E-02	2.225978E-03
7.539329E+03	9.771917E-02	2.227152E-03
7.549223E+03	9.715544E-02	2.230412E-03
7.559117E+03	9.663652E-02	2.235789E-03
7.569012E+03	9.616020E-02	2.243208E-03
7.578906E+03	9.572696E-02	2.252660E-03
7.588800E+03	9.533616E-02	2.264112E-03
7.598694E+03	9.498372E-02	2.277449E-03
7.608588E+03	9.466495E-02	2.292540E-03
7.618482E+03	9.437864E-02	2.309338E-03
7.628376E+03	9.412145E-02	2.327742E-03
7.638271E+03	9.388858E-02	2.347615E-03
7.648165E+03	9.368138E-02	2.368972E-03
7.658059E+03	9.349680E-02	2.391715E-03
7.667953E+03	9.333683E-02	2.415879E-03
7.677847E+03	9.320072E-02	2.441429E-03
