#wls	flux	fluxerr
1.583061E+03	8.535805E-02	7.969151E-03
1.622638E+03	8.762394E-02	8.080430E-03
1.662214E+03	8.989510E-02	8.186003E-03
1.701791E+03	9.217765E-02	8.286375E-03
1.741367E+03	9.445439E-02	8.379966E-03
1.780944E+03	9.669393E-02	8.464044E-03
1.820520E+03	9.887258E-02	8.536701E-03
1.860097E+03	1.008979E-01	8.590303E-03
1.899673E+03	1.027663E-01	8.625139E-03
1.939250E+03	1.044000E-01	8.635382E-03
1.978827E+03	1.057660E-01	8.619284E-03
2.018403E+03	1.068946E-01	8.580315E-03
2.057980E+03	1.079349E-01	8.531240E-03
2.097556E+03	1.091071E-01	8.489620E-03
2.137133E+03	1.106414E-01	8.472704E-03
2.176709E+03	1.126839E-01	8.490249E-03
2.216286E+03	1.152812E-01	8.543855E-03
2.255862E+03	1.183583E-01	8.626015E-03
2.295439E+03	1.218665E-01	8.731479E-03
2.335015E+03	1.256692E-01	8.848986E-03
2.374592E+03	1.297391E-01	8.975527E-03
2.414168E+03	1.339885E-01	9.104090E-03
2.453745E+03	1.383896E-01	9.232135E-03
2.493321E+03	1.428043E-01	9.350017E-03
2.532898E+03	1.471848E-01	9.454609E-03
2.572475E+03	1.514535E-01	9.541136E-03
2.612051E+03	1.555698E-01	9.607534E-03
2.651628E+03	1.595339E-01	9.654410E-03
2.691204E+03	1.633507E-01	9.682672E-03
2.730781E+03	1.671333E-01	9.699394E-03
2.770357E+03	1.709844E-01	9.710422E-03
2.809934E+03	1.750522E-01	9.723644E-03
2.849510E+03	1.795144E-01	9.747805E-03
2.889087E+03	1.844900E-01	9.787697E-03
2.928663E+03	1.901676E-01	9.851127E-03
2.968240E+03	1.966732E-01	9.941839E-03
2.978134E+03	1.984686E-01	9.970413E-03
2.988028E+03	2.003210E-01	1.000069E-02
2.997922E+03	2.022316E-01	1.003267E-02
3.007816E+03	2.042021E-01	1.006640E-02
3.017710E+03	2.062617E-01	1.010325E-02
3.027605E+03	2.083866E-01	1.014197E-02
3.037499E+03	2.106040E-01	1.018383E-02
3.047393E+03	2.128870E-01	1.022744E-02
3.057287E+03	2.152629E-01	1.027406E-02
3.067181E+03	2.177318E-01	1.032360E-02
3.077075E+03	2.202660E-01	1.037468E-02
3.086969E+03	2.228924E-01	1.042849E-02
3.096864E+03	2.256102E-01	1.048493E-02
3.106758E+03	2.283910E-01	1.054259E-02
3.116652E+03	2.312883E-01	1.060387E-02
3.126546E+03	2.342728E-01	1.066734E-02
3.136440E+03	2.373143E-01	1.073157E-02
3.146334E+03	2.404656E-01	1.079887E-02
3.156228E+03	2.436952E-01	1.086774E-02
3.166122E+03	2.470268E-01	1.093916E-02
3.176017E+03	2.503993E-01	1.101038E-02
3.185911E+03	2.538629E-01	1.108355E-02
3.195805E+03	2.574104E-01	1.115828E-02
3.205699E+03	2.610057E-01	1.123295E-02
3.215593E+03	2.646674E-01	1.130834E-02
3.225487E+03	2.683565E-01	1.138273E-02
3.235381E+03	2.720893E-01	1.145680E-02
3.245276E+03	2.758806E-01	1.153115E-02
3.255170E+03	2.796581E-01	1.160273E-02
3.265064E+03	2.834331E-01	1.167205E-02
3.274958E+03	2.871872E-01	1.173836E-02
3.284852E+03	2.909281E-01	1.180204E-02
3.294746E+03	2.946048E-01	1.186104E-02
3.304640E+03	2.982220E-01	1.191564E-02
3.314534E+03	3.017247E-01	1.196374E-02
3.324429E+03	3.050857E-01	1.200439E-02
3.334323E+03	3.083337E-01	1.203886E-02
3.344217E+03	3.113810E-01	1.206389E-02
3.354111E+03	3.142540E-01	1.208070E-02
3.364005E+03	3.168638E-01	1.208607E-02
3.373899E+03	3.192357E-01	1.208122E-02
3.383793E+03	3.213098E-01	1.206416E-02
3.393688E+03	3.230836E-01	1.203506E-02
3.403582E+03	3.244990E-01	1.199208E-02
3.413476E+03	3.255562E-01	1.193555E-02
3.423370E+03	3.262280E-01	1.186485E-02
3.433264E+03	3.264901E-01	1.177944E-02
3.443158E+03	3.263181E-01	1.167882E-02
3.453052E+03	3.257103E-01	1.156333E-02
3.462946E+03	3.245972E-01	1.143087E-02
3.472841E+03	3.230525E-01	1.128444E-02
3.482735E+03	3.210356E-01	1.112297E-02
3.492629E+03	3.185889E-01	1.094829E-02
3.502523E+03	3.157363E-01	1.076155E-02
3.512417E+03	3.125078E-01	1.056409E-02
3.522311E+03	3.089383E-01	1.035736E-02
3.532205E+03	3.050865E-01	1.014357E-02
3.542100E+03	3.009911E-01	9.924205E-03
3.551994E+03	2.966719E-01	9.700086E-03
3.561888E+03	2.922096E-01	9.473991E-03
3.571782E+03	2.876053E-01	9.246044E-03
3.581676E+03	2.829352E-01	9.018775E-03
3.591570E+03	2.782185E-01	8.792811E-03
3.601464E+03	2.735071E-01	8.569801E-03
3.611358E+03	2.688333E-01	8.350726E-03
3.621253E+03	2.642268E-01	8.136446E-03
3.631147E+03	2.596998E-01	7.927268E-03
3.641041E+03	2.553236E-01	7.725263E-03
3.650935E+03	2.510761E-01	7.529638E-03
3.660829E+03	2.470213E-01	7.342182E-03
3.670723E+03	2.431506E-01	7.162468E-03
3.680617E+03	2.394956E-01	6.991270E-03
3.690512E+03	2.360815E-01	6.829135E-03
3.700406E+03	2.328936E-01	6.675444E-03
3.710300E+03	2.299273E-01	6.529883E-03
3.720194E+03	2.271996E-01	6.392751E-03
3.730088E+03	2.246782E-01	6.262961E-03
3.739982E+03	2.223653E-01	6.140405E-03
3.749876E+03	2.202520E-01	6.024684E-03
3.759770E+03	2.183379E-01	5.915630E-03
3.769665E+03	2.166129E-01	5.812819E-03
3.779559E+03	2.150576E-01	5.715598E-03
3.789453E+03	2.136695E-01	5.623775E-03
3.799347E+03	2.124371E-01	5.536930E-03
3.809241E+03	2.113493E-01	5.454668E-03
3.819135E+03	2.103918E-01	5.376523E-03
3.829029E+03	2.095593E-01	5.302275E-03
3.838924E+03	2.088387E-01	5.231515E-03
3.848818E+03	2.082085E-01	5.163646E-03
3.858712E+03	2.076644E-01	5.098509E-03
3.868606E+03	2.072031E-01	5.035985E-03
3.878500E+03	2.067991E-01	4.975417E-03
3.888394E+03	2.064510E-01	4.916755E-03
3.898288E+03	2.061516E-01	4.859815E-03
3.908182E+03	2.059016E-01	4.804607E-03
3.918077E+03	2.056891E-01	4.750849E-03
3.927971E+03	2.055103E-01	4.698462E-03
3.937865E+03	2.053675E-01	4.647507E-03
3.947759E+03	2.052500E-01	4.597757E-03
3.957653E+03	2.051555E-01	4.549184E-03
3.967547E+03	2.050879E-01	4.501895E-03
3.977441E+03	2.050394E-01	4.455750E-03
3.987336E+03	2.050099E-01	4.410777E-03
3.997230E+03	2.050037E-01	4.367103E-03
4.007124E+03	2.050087E-01	4.324510E-03
4.017018E+03	2.050353E-01	4.283259E-03
4.026912E+03	2.050687E-01	4.243084E-03
4.036806E+03	2.051099E-01	4.204058E-03
4.046700E+03	2.051495E-01	4.166045E-03
4.056594E+03	2.051845E-01	4.129044E-03
4.066489E+03	2.051968E-01	4.092760E-03
4.076383E+03	2.051850E-01	4.057237E-03
4.086277E+03	2.051385E-01	4.022343E-03
4.096171E+03	2.050540E-01	3.988094E-03
4.106065E+03	2.049299E-01	3.954542E-03
4.115959E+03	2.047601E-01	3.921647E-03
4.125853E+03	2.045546E-01	3.889683E-03
4.135748E+03	2.043117E-01	3.858691E-03
4.145642E+03	2.040457E-01	3.829014E-03
4.155536E+03	2.037645E-01	3.800860E-03
4.165430E+03	2.034762E-01	3.774440E-03
4.175324E+03	2.031842E-01	3.749870E-03
4.185218E+03	2.029054E-01	3.727513E-03
4.195112E+03	2.026477E-01	3.707553E-03
4.205006E+03	2.024107E-01	3.690023E-03
4.214901E+03	2.021984E-01	3.675029E-03
4.224795E+03	2.020183E-01	3.662742E-03
4.234689E+03	2.018681E-01	3.653098E-03
4.244583E+03	2.017491E-01	3.646042E-03
4.254477E+03	2.016618E-01	3.641498E-03
4.264371E+03	2.016000E-01	3.639269E-03
4.274265E+03	2.015467E-01	3.638965E-03
4.284159E+03	2.014675E-01	3.639874E-03
4.294054E+03	2.013344E-01	3.641398E-03
4.303948E+03	2.011127E-01	3.642813E-03
4.313842E+03	2.007767E-01	3.643549E-03
4.323736E+03	2.003141E-01	3.643272E-03
4.333630E+03	1.997096E-01	3.641587E-03
4.343524E+03	1.989626E-01	3.638362E-03
4.353418E+03	1.980789E-01	3.633580E-03
4.363313E+03	1.970721E-01	3.627364E-03
4.373207E+03	1.959533E-01	3.619795E-03
4.383101E+03	1.947498E-01	3.611261E-03
4.392995E+03	1.934824E-01	3.602031E-03
4.402889E+03	1.921746E-01	3.592443E-03
4.412783E+03	1.908446E-01	3.582734E-03
4.422677E+03	1.895150E-01	3.573245E-03
4.432571E+03	1.882006E-01	3.564173E-03
4.442466E+03	1.869078E-01	3.555569E-03
4.452360E+03	1.856478E-01	3.547578E-03
4.462254E+03	1.844247E-01	3.540223E-03
4.472148E+03	1.832385E-01	3.533450E-03
4.482042E+03	1.820925E-01	3.527271E-03
4.491936E+03	1.809839E-01	3.521588E-03
4.501830E+03	1.799141E-01	3.516386E-03
4.511725E+03	1.788835E-01	3.511635E-03
4.521619E+03	1.778876E-01	3.507210E-03
4.531513E+03	1.769301E-01	3.503154E-03
4.541407E+03	1.760121E-01	3.499457E-03
4.551301E+03	1.751322E-01	3.496067E-03
4.561195E+03	1.742931E-01	3.493012E-03
4.571089E+03	1.734970E-01	3.490317E-03
4.580983E+03	1.727461E-01	3.488007E-03
4.590878E+03	1.720463E-01	3.486184E-03
4.600772E+03	1.713986E-01	3.484858E-03
4.610666E+03	1.708081E-01	3.484119E-03
4.620560E+03	1.702765E-01	3.483993E-03
4.630454E+03	1.698093E-01	3.484581E-03
4.640348E+03	1.694088E-01	3.485930E-03
4.650242E+03	1.690781E-01	3.488092E-03
4.660137E+03	1.688211E-01	3.491147E-03
4.670031E+03	1.686391E-01	3.495115E-03
4.679925E+03	1.685309E-01	3.499970E-03
4.689819E+03	1.685009E-01	3.505793E-03
4.699713E+03	1.685458E-01	3.512515E-03
4.709607E+03	1.686649E-01	3.520115E-03
4.719501E+03	1.688522E-01	3.528461E-03
4.729395E+03	1.691022E-01	3.537433E-03
4.739290E+03	1.694028E-01	3.546767E-03
4.749184E+03	1.697462E-01	3.556294E-03
4.759078E+03	1.701141E-01	3.565618E-03
4.768972E+03	1.705001E-01	3.574597E-03
4.778866E+03	1.708851E-01	3.582823E-03
4.788760E+03	1.712578E-01	3.590050E-03
4.798654E+03	1.716050E-01	3.595992E-03
4.808549E+03	1.719132E-01	3.600366E-03
4.818443E+03	1.721676E-01	3.602858E-03
4.828337E+03	1.723599E-01	3.603297E-03
4.838231E+03	1.724788E-01	3.601450E-03
4.848125E+03	1.725159E-01	3.597147E-03
4.858019E+03	1.724669E-01	3.590313E-03
4.867913E+03	1.723228E-01	3.580777E-03
4.877807E+03	1.720818E-01	3.568519E-03
4.887702E+03	1.717427E-01	3.553537E-03
4.897596E+03	1.713054E-01	3.535860E-03
4.907490E+03	1.707700E-01	3.515518E-03
4.917384E+03	1.701463E-01	3.492746E-03
4.927278E+03	1.694437E-01	3.467771E-03
4.937172E+03	1.686699E-01	3.440789E-03
4.947066E+03	1.678364E-01	3.412068E-03
4.956961E+03	1.669505E-01	3.381799E-03
4.966855E+03	1.660218E-01	3.350209E-03
4.976749E+03	1.650618E-01	3.317568E-03
4.986643E+03	1.640800E-01	3.284103E-03
4.996537E+03	1.630819E-01	3.249959E-03
5.006431E+03	1.620801E-01	3.215421E-03
5.016325E+03	1.610831E-01	3.180690E-03
5.026219E+03	1.600957E-01	3.145889E-03
5.036114E+03	1.591305E-01	3.111296E-03
5.046008E+03	1.581963E-01	3.077108E-03
5.055902E+03	1.572979E-01	3.043444E-03
5.065796E+03	1.564505E-01	3.010618E-03
5.075690E+03	1.556584E-01	2.978731E-03
5.085584E+03	1.549335E-01	2.948026E-03
5.095478E+03	1.542809E-01	2.918615E-03
5.105373E+03	1.537084E-01	2.890653E-03
5.115267E+03	1.532182E-01	2.864193E-03
5.125161E+03	1.528114E-01	2.839265E-03
5.135055E+03	1.524841E-01	2.815805E-03
5.144949E+03	1.522327E-01	2.793758E-03
5.154843E+03	1.520528E-01	2.773056E-03
5.164737E+03	1.519355E-01	2.753555E-03
5.174631E+03	1.518745E-01	2.735162E-03
5.184526E+03	1.518610E-01	2.717741E-03
5.194420E+03	1.518869E-01	2.701177E-03
5.204314E+03	1.519459E-01	2.685391E-03
5.214208E+03	1.520312E-01	2.670295E-03
5.224102E+03	1.521323E-01	2.655750E-03
5.233996E+03	1.522454E-01	2.641728E-03
5.243890E+03	1.523613E-01	2.628120E-03
5.253785E+03	1.524742E-01	2.614874E-03
5.263679E+03	1.525748E-01	2.601883E-03
5.273573E+03	1.526544E-01	2.589055E-03
5.283467E+03	1.527048E-01	2.576304E-03
5.293361E+03	1.527177E-01	2.563555E-03
5.303255E+03	1.526852E-01	2.550732E-03
5.313149E+03	1.526002E-01	2.537777E-03
5.323043E+03	1.524569E-01	2.524652E-03
5.332938E+03	1.522483E-01	2.511298E-03
5.342832E+03	1.519740E-01	2.497763E-03
5.352726E+03	1.516294E-01	2.484023E-03
5.362620E+03	1.512135E-01	2.470105E-03
5.372514E+03	1.507318E-01	2.456091E-03
5.382408E+03	1.501922E-01	2.442062E-03
5.392302E+03	1.496047E-01	2.428131E-03
5.402196E+03	1.489821E-01	2.414449E-03
5.412091E+03	1.483350E-01	2.401131E-03
5.421985E+03	1.476736E-01	2.388280E-03
5.431879E+03	1.470091E-01	2.376018E-03
5.441773E+03	1.463495E-01	2.364412E-03
5.451667E+03	1.457045E-01	2.353560E-03
5.461561E+03	1.450791E-01	2.343481E-03
5.471455E+03	1.444814E-01	2.334251E-03
5.481350E+03	1.439129E-01	2.325834E-03
5.491244E+03	1.433742E-01	2.318190E-03
5.501138E+03	1.428673E-01	2.311294E-03
5.511032E+03	1.423931E-01	2.305114E-03
5.520926E+03	1.419526E-01	2.299613E-03
5.530820E+03	1.415468E-01	2.294766E-03
5.540714E+03	1.411771E-01	2.290546E-03
5.550608E+03	1.408493E-01	2.287007E-03
5.560503E+03	1.405642E-01	2.284120E-03
5.570397E+03	1.403292E-01	2.281967E-03
5.580291E+03	1.401522E-01	2.280640E-03
5.590185E+03	1.400373E-01	2.280171E-03
5.600079E+03	1.399944E-01	2.280685E-03
5.609973E+03	1.400321E-01	2.282291E-03
5.619867E+03	1.401586E-01	2.285093E-03
5.629762E+03	1.403820E-01	2.289189E-03
5.639656E+03	1.407111E-01	2.294696E-03
5.649550E+03	1.411501E-01	2.301651E-03
5.659444E+03	1.417051E-01	2.310125E-03
5.669338E+03	1.423803E-01	2.320153E-03
5.679232E+03	1.431785E-01	2.331752E-03
5.689126E+03	1.440990E-01	2.344876E-03
5.699020E+03	1.451397E-01	2.359458E-03
5.708915E+03	1.462955E-01	2.375381E-03
5.718809E+03	1.475594E-01	2.392498E-03
5.728703E+03	1.489213E-01	2.410608E-03
5.738597E+03	1.503679E-01	2.429461E-03
5.748491E+03	1.518848E-01	2.448788E-03
5.758385E+03	1.534527E-01	2.468245E-03
5.768279E+03	1.550528E-01	2.487498E-03
5.778174E+03	1.566639E-01	2.506180E-03
5.788068E+03	1.582640E-01	2.523914E-03
5.797962E+03	1.598303E-01	2.540320E-03
5.807856E+03	1.613395E-01	2.555013E-03
5.817750E+03	1.627663E-01	2.567590E-03
5.827644E+03	1.640894E-01	2.577715E-03
5.837538E+03	1.652850E-01	2.585032E-03
5.847432E+03	1.663373E-01	2.589311E-03
5.857327E+03	1.672264E-01	2.590275E-03
5.867221E+03	1.679429E-01	2.587823E-03
5.877115E+03	1.684776E-01	2.581862E-03
5.887009E+03	1.688268E-01	2.572394E-03
5.896903E+03	1.689968E-01	2.559582E-03
5.906797E+03	1.689964E-01	2.543630E-03
5.916691E+03	1.688404E-01	2.524833E-03
5.926586E+03	1.685542E-01	2.503647E-03
5.936480E+03	1.681605E-01	2.480479E-03
5.946374E+03	1.676921E-01	2.455884E-03
5.956268E+03	1.671831E-01	2.430423E-03
5.966162E+03	1.666704E-01	2.404688E-03
5.976056E+03	1.661882E-01	2.379217E-03
5.985950E+03	1.657761E-01	2.354616E-03
5.995844E+03	1.654720E-01	2.331451E-03
6.005739E+03	1.653110E-01	2.310231E-03
6.015633E+03	1.653248E-01	2.291411E-03
6.025527E+03	1.655475E-01	2.275460E-03
6.035421E+03	1.660073E-01	2.262762E-03
6.045315E+03	1.667275E-01	2.253626E-03
6.055209E+03	1.677291E-01	2.248325E-03
6.065103E+03	1.690296E-01	2.247086E-03
6.074998E+03	1.706332E-01	2.249960E-03
6.084892E+03	1.725449E-01	2.257021E-03
6.094786E+03	1.747603E-01	2.268233E-03
6.104680E+03	1.772533E-01	2.283293E-03
6.114574E+03	1.799935E-01	2.301877E-03
6.124468E+03	1.829399E-01	2.323547E-03
6.134362E+03	1.860112E-01	2.347396E-03
6.144256E+03	1.891220E-01	2.372502E-03
6.154151E+03	1.921702E-01	2.397776E-03
6.164045E+03	1.950056E-01	2.421567E-03
6.173939E+03	1.974795E-01	2.442277E-03
6.183833E+03	1.994442E-01	2.458340E-03
6.193727E+03	2.007226E-01	2.467833E-03
6.203621E+03	2.011869E-01	2.469420E-03
6.213515E+03	2.008085E-01	2.462942E-03
6.223410E+03	1.996728E-01	2.449573E-03
6.233304E+03	1.979776E-01	2.431806E-03
6.243198E+03	1.959510E-01	2.412460E-03
6.253092E+03	1.937869E-01	2.393880E-03
6.262986E+03	1.916637E-01	2.378113E-03
6.272880E+03	1.897515E-01	2.367109E-03
6.282774E+03	1.881528E-01	2.362027E-03
6.292668E+03	1.869569E-01	2.363901E-03
6.302563E+03	1.862333E-01	2.373574E-03
6.312457E+03	1.860169E-01	2.391497E-03
6.322351E+03	1.863262E-01	2.417953E-03
6.332245E+03	1.871791E-01	2.453253E-03
6.342139E+03	1.885673E-01	2.497399E-03
6.352033E+03	1.904733E-01	2.550285E-03
6.361927E+03	1.928799E-01	2.611825E-03
6.371822E+03	1.957553E-01	2.681736E-03
6.381716E+03	1.990588E-01	2.759607E-03
6.391610E+03	2.027449E-01	2.844941E-03
6.401504E+03	2.067525E-01	2.937000E-03
6.411398E+03	2.110155E-01	3.034935E-03
6.421292E+03	2.154572E-01	3.137697E-03
6.431186E+03	2.199968E-01	3.244117E-03
6.441080E+03	2.245467E-01	3.352871E-03
6.450975E+03	2.290197E-01	3.462564E-03
6.460869E+03	2.333478E-01	3.572033E-03
6.470763E+03	2.374701E-01	3.680166E-03
6.480657E+03	2.413228E-01	3.785755E-03
6.490551E+03	2.448494E-01	3.887660E-03
6.500445E+03	2.479873E-01	3.984599E-03
6.510339E+03	2.506858E-01	4.075433E-03
6.520234E+03	2.528965E-01	4.159027E-03
6.530128E+03	2.545746E-01	4.234276E-03
6.540022E+03	2.556872E-01	4.300242E-03
6.549916E+03	2.562205E-01	4.356296E-03
6.559810E+03	2.561677E-01	4.401934E-03
6.569704E+03	2.555407E-01	4.436976E-03
6.579598E+03	2.543516E-01	4.461270E-03
6.589492E+03	2.526237E-01	4.474881E-03
6.599387E+03	2.503847E-01	4.477987E-03
6.609281E+03	2.476787E-01	4.471091E-03
6.619175E+03	2.445429E-01	4.454615E-03
6.629069E+03	2.410301E-01	4.429309E-03
6.638963E+03	2.371845E-01	4.395807E-03
6.648857E+03	2.330626E-01	4.355014E-03
6.658751E+03	2.287130E-01	4.307736E-03
6.668645E+03	2.241890E-01	4.254902E-03
6.678540E+03	2.195371E-01	4.197356E-03
6.688434E+03	2.148050E-01	4.135996E-03
6.698328E+03	2.100408E-01	4.071759E-03
6.708222E+03	2.052849E-01	4.005469E-03
6.718116E+03	2.005789E-01	3.937988E-03
6.728010E+03	1.959560E-01	3.870043E-03
6.737904E+03	1.914459E-01	3.802301E-03
6.747799E+03	1.870723E-01	3.735326E-03
6.757693E+03	1.828579E-01	3.669674E-03
6.767587E+03	1.788203E-01	3.605796E-03
6.777481E+03	1.749756E-01	3.544124E-03
6.787375E+03	1.713288E-01	3.484863E-03
6.797269E+03	1.678886E-01	3.428291E-03
6.807163E+03	1.646599E-01	3.374607E-03
6.817057E+03	1.616454E-01	3.323957E-03
6.826952E+03	1.588465E-01	3.276460E-03
6.836846E+03	1.562644E-01	3.232224E-03
6.846740E+03	1.538922E-01	3.191184E-03
6.856634E+03	1.517218E-01	3.153240E-03
6.866528E+03	1.497495E-01	3.118377E-03
6.876422E+03	1.479625E-01	3.086384E-03
6.886316E+03	1.463509E-01	3.057104E-03
6.896211E+03	1.448990E-01	3.030253E-03
6.906105E+03	1.435966E-01	3.005655E-03
6.915999E+03	1.424263E-01	2.982976E-03
6.925893E+03	1.413774E-01	2.962018E-03
6.935787E+03	1.404344E-01	2.942484E-03
6.945681E+03	1.395785E-01	2.923999E-03
6.955575E+03	1.387980E-01	2.906335E-03
6.965469E+03	1.380745E-01	2.889125E-03
6.975364E+03	1.373965E-01	2.872144E-03
6.985258E+03	1.367481E-01	2.855078E-03
6.995152E+03	1.361162E-01	2.837669E-03
7.005046E+03	1.354883E-01	2.819675E-03
7.014940E+03	1.348544E-01	2.800908E-03
7.024834E+03	1.342017E-01	2.781128E-03
7.034728E+03	1.335252E-01	2.760251E-03
7.044623E+03	1.328145E-01	2.738095E-03
7.054517E+03	1.320704E-01	2.714706E-03
7.064411E+03	1.312901E-01	2.690059E-03
7.074305E+03	1.304735E-01	2.664187E-03
7.084199E+03	1.296238E-01	2.637192E-03
7.094093E+03	1.287449E-01	2.609192E-03
7.103987E+03	1.278414E-01	2.580316E-03
7.113881E+03	1.269181E-01	2.550703E-03
7.123776E+03	1.259819E-01	2.520528E-03
7.133670E+03	1.250348E-01	2.489871E-03
7.143564E+03	1.240849E-01	2.458931E-03
7.153458E+03	1.231338E-01	2.427780E-03
7.163352E+03	1.221895E-01	2.396609E-03
7.173246E+03	1.212539E-01	2.365498E-03
7.183140E+03	1.203308E-01	2.334555E-03
7.193035E+03	1.194232E-01	2.303874E-03
7.202929E+03	1.185340E-01	2.273549E-03
7.212823E+03	1.176610E-01	2.243574E-03
7.222717E+03	1.168076E-01	2.214056E-03
7.232611E+03	1.159707E-01	2.184970E-03
7.242505E+03	1.151482E-01	2.156320E-03
7.252399E+03	1.143393E-01	2.128133E-03
7.262293E+03	1.135394E-01	2.100366E-03
7.272188E+03	1.127450E-01	2.073006E-03
7.282082E+03	1.119533E-01	2.046045E-03
7.291976E+03	1.111633E-01	2.019521E-03
7.301870E+03	1.103703E-01	1.993399E-03
7.311764E+03	1.095755E-01	1.967755E-03
7.321658E+03	1.087786E-01	1.942639E-03
7.331552E+03	1.079765E-01	1.918052E-03
7.341447E+03	1.071709E-01	1.894082E-03
7.351341E+03	1.063630E-01	1.870802E-03
7.361235E+03	1.055552E-01	1.848317E-03
7.371129E+03	1.047467E-01	1.826661E-03
7.381023E+03	1.039416E-01	1.805963E-03
7.390917E+03	1.031430E-01	1.786331E-03
7.400811E+03	1.023542E-01	1.767870E-03
7.410705E+03	1.015783E-01	1.750684E-03
7.420600E+03	1.008185E-01	1.734876E-03
7.430494E+03	1.000776E-01	1.720541E-03
7.440388E+03	9.935755E-02	1.707752E-03
7.450282E+03	9.865830E-02	1.696554E-03
7.460176E+03	9.798422E-02	1.687060E-03
7.470070E+03	9.733593E-02	1.679320E-03
7.479964E+03	9.671812E-02	1.673449E-03
7.489859E+03	9.613375E-02	1.669534E-03
7.499753E+03	9.558410E-02	1.667627E-03
7.509647E+03	9.507113E-02	1.667796E-03
7.519541E+03	9.459890E-02	1.670134E-03
7.529435E+03	9.416562E-02	1.674597E-03
7.539329E+03	9.377141E-02	1.681155E-03
7.549223E+03	9.341563E-02	1.689766E-03
7.559117E+03	9.309795E-02	1.700392E-03
7.569012E+03	9.281601E-02	1.712960E-03
7.578906E+03	9.256329E-02	1.727318E-03
7.588800E+03	9.233405E-02	1.743324E-03
7.598694E+03	9.211768E-02	1.760740E-03
7.608588E+03	9.190470E-02	1.779338E-03
7.618482E+03	9.168598E-02	1.798891E-03
7.628376E+03	9.145222E-02	1.819156E-03
7.638271E+03	9.120093E-02	1.840017E-03
7.648165E+03	9.093418E-02	1.861449E-03
7.658059E+03	9.065817E-02	1.883514E-03
7.667953E+03	9.037764E-02	1.906252E-03
7.677847E+03	9.009700E-02	1.929703E-03
