#wls	flux	fluxerr
1.583061E+03	7.586954E-02	7.629151E-03
1.622638E+03	7.801569E-02	7.740209E-03
1.662214E+03	8.015894E-02	7.843817E-03
1.701791E+03	8.227014E-02	7.937087E-03
1.741367E+03	8.436232E-02	8.021312E-03
1.780944E+03	8.637575E-02	8.090903E-03
1.820520E+03	8.832538E-02	8.147511E-03
1.860097E+03	9.012320E-02	8.183365E-03
1.899673E+03	9.178094E-02	8.200135E-03
1.939250E+03	9.323497E-02	8.192819E-03
1.978827E+03	9.451803E-02	8.165139E-03
2.018403E+03	9.566660E-02	8.120966E-03
2.057980E+03	9.681612E-02	8.072222E-03
2.097556E+03	9.821016E-02	8.038869E-03
2.137133E+03	1.000223E-01	8.033773E-03
2.176709E+03	1.024309E-01	8.069074E-03
2.216286E+03	1.053846E-01	8.138043E-03
2.255862E+03	1.088644E-01	8.236644E-03
2.295439E+03	1.127680E-01	8.354780E-03
2.335015E+03	1.169826E-01	8.482210E-03
2.374592E+03	1.214638E-01	8.614213E-03
2.414168E+03	1.262131E-01	8.749564E-03
2.453745E+03	1.311648E-01	8.882464E-03
2.493321E+03	1.363522E-01	9.014098E-03
2.532898E+03	1.418075E-01	9.145390E-03
2.572475E+03	1.475404E-01	9.275652E-03
2.612051E+03	1.536631E-01	9.410451E-03
2.651628E+03	1.601494E-01	9.546409E-03
2.691204E+03	1.670050E-01	9.682203E-03
2.730781E+03	1.742196E-01	9.815600E-03
2.770357E+03	1.818017E-01	9.945432E-03
2.809934E+03	1.897769E-01	1.007144E-02
2.849510E+03	1.982064E-01	1.019511E-02
2.889087E+03	2.071522E-01	1.031766E-02
2.928663E+03	2.166645E-01	1.043944E-02
2.968240E+03	2.267696E-01	1.055954E-02
2.978134E+03	2.294069E-01	1.058991E-02
2.988028E+03	2.320637E-01	1.061918E-02
2.997922E+03	2.347380E-01	1.064727E-02
3.007816E+03	2.374845E-01	1.067663E-02
3.017710E+03	2.402470E-01	1.070468E-02
3.027605E+03	2.430531E-01	1.073264E-02
3.037499E+03	2.458709E-01	1.075909E-02
3.047393E+03	2.487536E-01	1.078632E-02
3.057287E+03	2.516687E-01	1.081290E-02
3.067181E+03	2.545832E-01	1.083740E-02
3.077075E+03	2.575493E-01	1.086204E-02
3.086969E+03	2.605334E-01	1.088540E-02
3.096864E+03	2.635300E-01	1.090722E-02
3.106758E+03	2.665329E-01	1.092729E-02
3.116652E+03	2.695640E-01	1.094650E-02
3.126546E+03	2.725593E-01	1.096228E-02
3.136440E+03	2.755971E-01	1.097782E-02
3.146334E+03	2.785835E-01	1.098940E-02
3.156228E+03	2.815956E-01	1.100012E-02
3.166122E+03	2.845386E-01	1.100632E-02
3.176017E+03	2.874885E-01	1.101102E-02
3.185911E+03	2.903775E-01	1.101169E-02
3.195805E+03	2.932241E-01	1.100912E-02
3.205699E+03	2.960163E-01	1.100295E-02
3.215593E+03	2.987427E-01	1.099286E-02
3.225487E+03	3.013908E-01	1.097852E-02
3.235381E+03	3.039479E-01	1.095959E-02
3.245276E+03	3.064011E-01	1.093576E-02
3.255170E+03	3.087646E-01	1.090769E-02
3.265064E+03	3.109976E-01	1.087409E-02
3.274958E+03	3.130860E-01	1.083465E-02
3.284852E+03	3.150441E-01	1.079008E-02
3.294746E+03	3.168311E-01	1.073916E-02
3.304640E+03	3.184609E-01	1.068260E-02
3.314534E+03	3.199209E-01	1.062017E-02
3.324429E+03	3.211985E-01	1.055170E-02
3.334323E+03	3.222822E-01	1.047703E-02
3.344217E+03	3.231871E-01	1.039690E-02
3.354111E+03	3.238516E-01	1.030956E-02
3.364005E+03	3.242939E-01	1.021586E-02
3.373899E+03	3.245564E-01	1.011739E-02
3.383793E+03	3.245577E-01	1.001185E-02
3.393688E+03	3.243678E-01	9.901663E-03
3.403582E+03	3.239339E-01	9.785443E-03
3.413476E+03	3.232778E-01	9.664106E-03
3.423370E+03	3.223986E-01	9.537859E-03
3.433264E+03	3.212948E-01	9.406878E-03
3.443158E+03	3.199643E-01	9.271328E-03
3.453052E+03	3.184249E-01	9.131891E-03
3.462946E+03	3.166511E-01	8.987962E-03
3.472841E+03	3.146654E-01	8.840301E-03
3.482735E+03	3.124498E-01	8.688523E-03
3.492629E+03	3.100525E-01	8.534066E-03
3.502523E+03	3.074611E-01	8.376674E-03
3.512417E+03	3.046687E-01	8.216242E-03
3.522311E+03	3.017273E-01	8.054252E-03
3.532205E+03	2.986513E-01	7.891124E-03
3.542100E+03	2.954393E-01	7.726861E-03
3.551994E+03	2.921270E-01	7.562419E-03
3.561888E+03	2.887326E-01	7.398273E-03
3.571782E+03	2.852586E-01	7.234482E-03
3.581676E+03	2.817560E-01	7.072325E-03
3.591570E+03	2.782267E-01	6.911805E-03
3.601464E+03	2.747036E-01	6.753691E-03
3.611358E+03	2.711881E-01	6.597955E-03
3.621253E+03	2.677101E-01	6.445257E-03
3.631147E+03	2.642830E-01	6.295837E-03
3.641041E+03	2.609192E-01	6.149903E-03
3.650935E+03	2.576294E-01	6.007610E-03
3.660829E+03	2.544349E-01	5.869355E-03
3.670723E+03	2.513184E-01	5.734634E-03
3.680617E+03	2.483213E-01	5.604292E-03
3.690512E+03	2.454233E-01	5.477755E-03
3.700406E+03	2.426492E-01	5.355470E-03
3.710300E+03	2.399773E-01	5.236846E-03
3.720194E+03	2.374172E-01	5.121994E-03
3.730088E+03	2.349763E-01	5.010972E-03
3.739982E+03	2.326403E-01	4.903374E-03
3.749876E+03	2.304135E-01	4.799201E-03
3.759770E+03	2.282797E-01	4.698027E-03
3.769665E+03	2.262405E-01	4.599813E-03
3.779559E+03	2.242879E-01	4.504323E-03
3.789453E+03	2.224130E-01	4.411312E-03
3.799347E+03	2.206062E-01	4.320542E-03
3.809241E+03	2.188583E-01	4.231787E-03
3.819135E+03	2.171602E-01	4.144838E-03
3.829029E+03	2.155104E-01	4.059642E-03
3.838924E+03	2.138923E-01	3.975866E-03
3.848818E+03	2.122979E-01	3.893360E-03
3.858712E+03	2.107266E-01	3.812117E-03
3.868606E+03	2.091646E-01	3.731894E-03
3.878500E+03	2.076136E-01	3.652742E-03
3.888394E+03	2.060617E-01	3.574480E-03
3.898288E+03	2.045061E-01	3.497092E-03
3.908182E+03	2.029513E-01	3.420694E-03
3.918077E+03	2.013895E-01	3.345201E-03
3.927971E+03	1.998274E-01	3.270766E-03
3.937865E+03	1.982539E-01	3.197264E-03
3.947759E+03	1.966825E-01	3.124967E-03
3.957653E+03	1.951094E-01	3.053871E-03
3.967547E+03	1.935320E-01	2.983995E-03
3.977441E+03	1.919587E-01	2.915533E-03
3.987336E+03	1.903870E-01	2.848511E-03
3.997230E+03	1.888197E-01	2.783040E-03
4.007124E+03	1.872641E-01	2.719297E-03
4.017018E+03	1.857127E-01	2.657242E-03
4.026912E+03	1.841676E-01	2.596982E-03
4.036806E+03	1.826346E-01	2.538679E-03
4.046700E+03	1.811062E-01	2.482306E-03
4.056594E+03	1.795840E-01	2.427969E-03
4.066489E+03	1.780738E-01	2.375831E-03
4.076383E+03	1.765699E-01	2.325899E-03
4.086277E+03	1.750763E-01	2.278311E-03
4.096171E+03	1.735945E-01	2.233169E-03
4.106065E+03	1.721354E-01	2.190689E-03
4.115959E+03	1.706999E-01	2.150959E-03
4.125853E+03	1.692982E-01	2.114173E-03
4.135748E+03	1.679413E-01	2.080530E-03
4.145642E+03	1.666340E-01	2.050139E-03
4.155536E+03	1.653879E-01	2.023193E-03
4.165430E+03	1.642143E-01	1.999864E-03
4.175324E+03	1.631197E-01	1.980263E-03
4.185218E+03	1.621091E-01	1.964475E-03
4.195112E+03	1.611850E-01	1.952540E-03
4.205006E+03	1.603497E-01	1.944410E-03
4.214901E+03	1.596012E-01	1.939912E-03
4.224795E+03	1.589272E-01	1.938745E-03
4.234689E+03	1.583135E-01	1.940580E-03
4.244583E+03	1.577454E-01	1.945083E-03
4.254477E+03	1.571975E-01	1.951779E-03
4.264371E+03	1.566415E-01	1.960154E-03
4.274265E+03	1.560595E-01	1.969811E-03
4.284159E+03	1.554530E-01	1.980596E-03
4.294054E+03	1.548195E-01	1.992302E-03
4.303948E+03	1.541571E-01	2.004738E-03
4.313842E+03	1.534636E-01	2.017705E-03
4.323736E+03	1.527366E-01	2.031012E-03
4.333630E+03	1.519752E-01	2.044490E-03
4.343524E+03	1.511828E-01	2.058031E-03
4.353418E+03	1.503645E-01	2.071565E-03
4.363313E+03	1.495250E-01	2.085024E-03
4.373207E+03	1.486731E-01	2.098410E-03
4.383101E+03	1.478209E-01	2.111783E-03
4.392995E+03	1.469746E-01	2.125137E-03
4.402889E+03	1.461473E-01	2.138577E-03
4.412783E+03	1.453454E-01	2.152125E-03
4.422677E+03	1.445748E-01	2.165807E-03
4.432571E+03	1.438403E-01	2.179642E-03
4.442466E+03	1.431476E-01	2.193673E-03
4.452360E+03	1.424932E-01	2.207809E-03
4.462254E+03	1.418843E-01	2.222127E-03
4.472148E+03	1.413153E-01	2.236513E-03
4.482042E+03	1.407895E-01	2.250995E-03
4.491936E+03	1.403023E-01	2.265475E-03
4.501830E+03	1.398557E-01	2.279970E-03
4.511725E+03	1.394463E-01	2.294406E-03
4.521619E+03	1.390760E-01	2.308798E-03
4.531513E+03	1.387413E-01	2.323075E-03
4.541407E+03	1.384425E-01	2.337231E-03
4.551301E+03	1.381802E-01	2.351262E-03
4.561195E+03	1.379550E-01	2.365173E-03
4.571089E+03	1.377680E-01	2.378974E-03
4.580983E+03	1.376188E-01	2.392650E-03
4.590878E+03	1.375105E-01	2.406250E-03
4.600772E+03	1.374446E-01	2.419796E-03
4.610666E+03	1.374211E-01	2.433281E-03
4.620560E+03	1.374414E-01	2.446728E-03
4.630454E+03	1.375083E-01	2.460185E-03
4.640348E+03	1.376213E-01	2.473636E-03
4.650242E+03	1.377824E-01	2.487116E-03
4.660137E+03	1.379917E-01	2.500621E-03
4.670031E+03	1.382469E-01	2.514107E-03
4.679925E+03	1.385469E-01	2.527544E-03
4.689819E+03	1.388913E-01	2.540918E-03
4.699713E+03	1.392753E-01	2.554137E-03
4.709607E+03	1.396952E-01	2.567121E-03
4.719501E+03	1.401490E-01	2.579823E-03
4.729395E+03	1.406273E-01	2.592058E-03
4.739290E+03	1.411257E-01	2.603735E-03
4.749184E+03	1.416340E-01	2.614653E-03
4.759078E+03	1.421441E-01	2.624650E-03
4.768972E+03	1.426453E-01	2.633518E-03
4.778866E+03	1.431264E-01	2.641036E-03
4.788760E+03	1.435771E-01	2.647008E-03
4.798654E+03	1.439872E-01	2.651240E-03
4.808549E+03	1.443466E-01	2.653542E-03
4.818443E+03	1.446429E-01	2.653687E-03
4.828337E+03	1.448709E-01	2.651587E-03
4.838231E+03	1.450190E-01	2.647036E-03
4.848125E+03	1.450833E-01	2.639981E-03
4.858019E+03	1.450586E-01	2.630344E-03
4.867913E+03	1.449429E-01	2.618118E-03
4.877807E+03	1.447347E-01	2.603303E-03
4.887702E+03	1.444358E-01	2.585968E-03
4.897596E+03	1.440470E-01	2.566165E-03
4.907490E+03	1.435741E-01	2.544041E-03
4.917384E+03	1.430246E-01	2.519772E-03
4.927278E+03	1.424041E-01	2.493506E-03
4.937172E+03	1.417225E-01	2.465462E-03
4.947066E+03	1.409886E-01	2.435842E-03
4.956961E+03	1.402117E-01	2.404852E-03
4.966855E+03	1.394024E-01	2.372724E-03
4.976749E+03	1.385686E-01	2.339635E-03
4.986643E+03	1.377195E-01	2.305784E-03
4.996537E+03	1.368656E-01	2.271386E-03
5.006431E+03	1.360169E-01	2.236646E-03
5.016325E+03	1.351791E-01	2.201690E-03
5.026219E+03	1.343603E-01	2.166684E-03
5.036114E+03	1.335712E-01	2.131828E-03
5.046008E+03	1.328193E-01	2.097266E-03
5.055902E+03	1.321091E-01	2.063090E-03
5.065796E+03	1.314500E-01	2.029465E-03
5.075690E+03	1.308468E-01	1.996479E-03
5.085584E+03	1.303060E-01	1.964247E-03
5.095478E+03	1.298308E-01	1.932822E-03
5.105373E+03	1.294244E-01	1.902263E-03
5.115267E+03	1.290913E-01	1.872645E-03
5.125161E+03	1.288296E-01	1.843948E-03
5.135055E+03	1.286400E-01	1.816194E-03
5.144949E+03	1.285208E-01	1.789370E-03
5.154843E+03	1.284678E-01	1.763435E-03
5.164737E+03	1.284799E-01	1.738397E-03
5.174631E+03	1.285513E-01	1.714205E-03
5.184526E+03	1.286771E-01	1.690829E-03
5.194420E+03	1.288519E-01	1.668241E-03
5.204314E+03	1.290715E-01	1.646436E-03
5.214208E+03	1.293286E-01	1.625381E-03
5.224102E+03	1.296183E-01	1.605082E-03
5.233996E+03	1.299328E-01	1.585518E-03
5.243890E+03	1.302663E-01	1.566706E-03
5.253785E+03	1.306095E-01	1.548632E-03
5.263679E+03	1.309567E-01	1.531331E-03
5.273573E+03	1.312960E-01	1.514777E-03
5.283467E+03	1.316187E-01	1.498993E-03
5.293361E+03	1.319142E-01	1.483987E-03
5.303255E+03	1.321726E-01	1.469781E-03
5.313149E+03	1.323799E-01	1.456357E-03
5.323043E+03	1.325273E-01	1.443754E-03
5.332938E+03	1.326032E-01	1.431983E-03
5.342832E+03	1.325944E-01	1.421030E-03
5.352726E+03	1.324941E-01	1.410942E-03
5.362620E+03	1.322942E-01	1.401739E-03
5.372514E+03	1.319969E-01	1.393532E-03
5.382408E+03	1.316116E-01	1.386444E-03
5.392302E+03	1.311548E-01	1.380555E-03
5.402196E+03	1.306409E-01	1.375900E-03
5.412091E+03	1.300855E-01	1.372511E-03
5.421985E+03	1.295042E-01	1.370413E-03
5.431879E+03	1.289087E-01	1.369586E-03
5.441773E+03	1.283115E-01	1.370021E-03
5.451667E+03	1.277198E-01	1.371649E-03
5.461561E+03	1.271445E-01	1.374451E-03
5.471455E+03	1.265914E-01	1.378353E-03
5.481350E+03	1.260674E-01	1.383305E-03
5.491244E+03	1.255749E-01	1.389214E-03
5.501138E+03	1.251205E-01	1.396039E-03
5.511032E+03	1.247066E-01	1.403703E-03
5.520926E+03	1.243364E-01	1.412146E-03
5.530820E+03	1.240132E-01	1.421315E-03
5.540714E+03	1.237402E-01	1.431167E-03
5.550608E+03	1.235211E-01	1.441668E-03
5.560503E+03	1.233596E-01	1.452797E-03
5.570397E+03	1.232601E-01	1.464544E-03
5.580291E+03	1.232272E-01	1.476910E-03
5.590185E+03	1.232646E-01	1.489890E-03
5.600079E+03	1.233775E-01	1.503504E-03
5.609973E+03	1.235722E-01	1.517789E-03
5.619867E+03	1.238526E-01	1.532759E-03
5.629762E+03	1.242246E-01	1.548454E-03
5.639656E+03	1.246898E-01	1.564867E-03
5.649550E+03	1.252530E-01	1.582027E-03
5.659444E+03	1.259164E-01	1.599938E-03
5.669338E+03	1.266801E-01	1.618571E-03
5.679232E+03	1.275438E-01	1.637897E-03
5.689126E+03	1.285072E-01	1.657880E-03
5.699020E+03	1.295641E-01	1.678409E-03
5.708915E+03	1.307118E-01	1.699417E-03
5.718809E+03	1.319406E-01	1.720739E-03
5.728703E+03	1.332428E-01	1.742235E-03
5.738597E+03	1.346062E-01	1.763705E-03
5.748491E+03	1.360195E-01	1.784957E-03
5.758385E+03	1.374661E-01	1.805726E-03
5.768279E+03	1.389333E-01	1.825798E-03
5.778174E+03	1.404019E-01	1.844875E-03
5.788068E+03	1.418562E-01	1.862707E-03
5.797962E+03	1.432773E-01	1.879001E-03
5.807856E+03	1.446494E-01	1.893511E-03
5.817750E+03	1.459541E-01	1.905963E-03
5.827644E+03	1.471758E-01	1.916124E-03
5.837538E+03	1.483005E-01	1.923791E-03
5.847432E+03	1.493163E-01	1.928798E-03
5.857327E+03	1.502128E-01	1.931007E-03
5.867221E+03	1.509862E-01	1.930372E-03
5.877115E+03	1.516346E-01	1.926885E-03
5.887009E+03	1.521593E-01	1.920583E-03
5.896903E+03	1.525674E-01	1.911585E-03
5.906797E+03	1.528721E-01	1.900092E-03
5.916691E+03	1.530894E-01	1.886340E-03
5.926586E+03	1.532366E-01	1.870581E-03
5.936480E+03	1.533404E-01	1.853183E-03
5.946374E+03	1.534280E-01	1.834506E-03
5.956268E+03	1.535276E-01	1.814916E-03
5.966162E+03	1.536723E-01	1.794826E-03
5.976056E+03	1.538952E-01	1.774630E-03
5.985950E+03	1.542301E-01	1.754713E-03
5.995844E+03	1.547126E-01	1.735463E-03
6.005739E+03	1.553765E-01	1.717223E-03
6.015633E+03	1.562528E-01	1.700287E-03
6.025527E+03	1.573775E-01	1.684981E-03
6.035421E+03	1.587765E-01	1.671503E-03
6.045315E+03	1.604790E-01	1.660068E-03
6.055209E+03	1.625056E-01	1.650791E-03
6.065103E+03	1.648750E-01	1.643758E-03
6.074998E+03	1.675977E-01	1.638974E-03
6.084892E+03	1.706755E-01	1.636366E-03
6.094786E+03	1.740975E-01	1.635764E-03
6.104680E+03	1.778405E-01	1.636916E-03
6.114574E+03	1.818598E-01	1.639428E-03
6.124468E+03	1.860981E-01	1.642863E-03
6.134362E+03	1.904625E-01	1.646568E-03
6.144256E+03	1.948372E-01	1.649808E-03
6.154151E+03	1.990691E-01	1.651667E-03
6.164045E+03	2.029685E-01	1.651085E-03
6.173939E+03	2.063201E-01	1.646953E-03
6.183833E+03	2.088851E-01	1.638127E-03
6.193727E+03	2.104280E-01	1.623608E-03
6.203621E+03	2.107571E-01	1.602801E-03
6.213515E+03	2.098053E-01	1.576031E-03
6.223410E+03	2.077253E-01	1.545145E-03
6.233304E+03	2.048059E-01	1.512785E-03
6.243198E+03	2.013577E-01	1.481524E-03
6.253092E+03	1.976754E-01	1.453639E-03
6.262986E+03	1.940182E-01	1.431016E-03
6.272880E+03	1.905935E-01	1.414968E-03
6.282774E+03	1.875563E-01	1.406236E-03
6.292668E+03	1.850178E-01	1.405275E-03
6.302563E+03	1.830551E-01	1.412364E-03
6.312457E+03	1.817079E-01	1.427587E-03
6.322351E+03	1.809985E-01	1.450981E-03
6.332245E+03	1.809328E-01	1.482536E-03
6.342139E+03	1.814997E-01	1.522175E-03
6.352033E+03	1.826841E-01	1.569843E-03
6.361927E+03	1.844589E-01	1.625427E-03
6.371822E+03	1.867916E-01	1.688787E-03
6.381716E+03	1.896386E-01	1.759698E-03
6.391610E+03	1.929574E-01	1.837934E-03
6.401504E+03	1.966929E-01	1.923130E-03
6.411398E+03	2.007856E-01	2.014840E-03
6.421292E+03	2.051701E-01	2.112511E-03
6.431186E+03	2.097762E-01	2.215479E-03
6.441080E+03	2.145229E-01	2.322897E-03
6.450975E+03	2.193358E-01	2.433902E-03
6.460869E+03	2.241273E-01	2.547407E-03
6.470763E+03	2.288216E-01	2.662366E-03
6.480657E+03	2.333316E-01	2.777519E-03
6.490551E+03	2.375818E-01	2.891657E-03
6.500445E+03	2.414926E-01	3.003439E-03
6.510339E+03	2.449992E-01	3.111636E-03
6.520234E+03	2.480329E-01	3.214906E-03
6.530128E+03	2.505413E-01	3.312060E-03
6.540022E+03	2.524768E-01	3.401936E-03
6.549916E+03	2.538068E-01	3.483542E-03
6.559810E+03	2.545111E-01	3.556042E-03
6.569704E+03	2.545853E-01	3.618830E-03
6.579598E+03	2.540321E-01	3.671414E-03
6.589492E+03	2.528684E-01	3.713540E-03
6.599387E+03	2.511241E-01	3.745183E-03
6.609281E+03	2.488353E-01	3.766466E-03
6.619175E+03	2.460426E-01	3.777633E-03
6.629069E+03	2.428002E-01	3.779201E-03
6.638963E+03	2.391553E-01	3.771640E-03
6.648857E+03	2.351654E-01	3.755647E-03
6.658751E+03	2.308890E-01	3.731994E-03
6.668645E+03	2.263786E-01	3.701422E-03
6.678540E+03	2.216908E-01	3.664790E-03
6.688434E+03	2.168773E-01	3.622929E-03
6.698328E+03	2.119847E-01	3.576630E-03
6.708222E+03	2.070635E-01	3.526787E-03
6.718116E+03	2.021530E-01	3.474141E-03
6.728010E+03	1.972909E-01	3.419436E-03
6.737904E+03	1.925108E-01	3.363361E-03
6.747799E+03	1.878439E-01	3.306588E-03
6.757693E+03	1.833150E-01	3.249688E-03
6.767587E+03	1.789425E-01	3.193126E-03
6.777481E+03	1.747474E-01	3.137416E-03
6.787375E+03	1.707381E-01	3.082854E-03
6.797269E+03	1.669261E-01	3.029785E-03
6.807163E+03	1.633194E-01	2.978487E-03
6.817057E+03	1.599173E-01	2.929077E-03
6.826952E+03	1.567240E-01	2.881750E-03
6.836846E+03	1.537377E-01	2.836586E-03
6.846740E+03	1.509525E-01	2.793579E-03
6.856634E+03	1.483626E-01	2.752714E-03
6.866528E+03	1.459624E-01	2.713974E-03
6.876422E+03	1.437432E-01	2.677270E-03
6.886316E+03	1.416932E-01	2.642451E-03
6.896211E+03	1.398034E-01	2.609406E-03
6.906105E+03	1.380621E-01	2.577969E-03
6.915999E+03	1.364556E-01	2.547925E-03
6.925893E+03	1.349746E-01	2.519141E-03
6.935787E+03	1.336030E-01	2.491347E-03
6.945681E+03	1.323296E-01	2.464364E-03
6.955575E+03	1.311432E-01	2.438007E-03
6.965469E+03	1.300279E-01	2.412006E-03
6.975364E+03	1.289748E-01	2.386213E-03
6.985258E+03	1.279688E-01	2.360372E-03
6.995152E+03	1.270023E-01	2.334359E-03
7.005046E+03	1.260631E-01	2.307975E-03
7.014940E+03	1.251419E-01	2.281069E-03
7.024834E+03	1.242302E-01	2.253513E-03
7.034728E+03	1.233224E-01	2.225228E-03
7.044623E+03	1.224106E-01	2.196104E-03
7.054517E+03	1.214901E-01	2.166084E-03
7.064411E+03	1.205585E-01	2.135164E-03
7.074305E+03	1.196119E-01	2.103307E-03
7.084199E+03	1.186503E-01	2.070553E-03
7.094093E+03	1.176732E-01	2.036936E-03
7.103987E+03	1.166795E-01	2.002477E-03
7.113881E+03	1.156719E-01	1.967266E-03
7.123776E+03	1.146504E-01	1.931349E-03
7.133670E+03	1.136200E-01	1.894855E-03
7.143564E+03	1.125802E-01	1.857820E-03
7.153458E+03	1.115361E-01	1.820377E-03
7.163352E+03	1.104889E-01	1.782590E-03
7.173246E+03	1.094408E-01	1.744544E-03
7.183140E+03	1.083942E-01	1.706321E-03
7.193035E+03	1.073527E-01	1.668026E-03
7.202929E+03	1.063167E-01	1.629713E-03
7.212823E+03	1.052880E-01	1.591457E-03
7.222717E+03	1.042707E-01	1.553372E-03
7.232611E+03	1.032635E-01	1.515485E-03
7.242505E+03	1.022673E-01	1.477862E-03
7.252399E+03	1.012857E-01	1.440611E-03
7.262293E+03	1.003166E-01	1.403756E-03
7.272188E+03	9.936064E-02	1.367366E-03
7.282082E+03	9.841963E-02	1.331530E-03
7.291976E+03	9.749282E-02	1.296301E-03
7.301870E+03	9.658209E-02	1.261777E-03
7.311764E+03	9.568562E-02	1.228006E-03
7.321658E+03	9.480429E-02	1.195082E-03
7.331552E+03	9.394055E-02	1.163119E-03
7.341447E+03	9.309314E-02	1.132192E-03
7.351341E+03	9.226487E-02	1.102430E-03
7.361235E+03	9.145497E-02	1.073925E-03
7.371129E+03	9.066902E-02	1.046848E-03
7.381023E+03	8.990654E-02	1.021304E-03
7.390917E+03	8.917084E-02	9.974441E-04
7.400811E+03	8.846406E-02	9.754113E-04
7.410705E+03	8.778950E-02	9.553627E-04
7.420600E+03	8.714921E-02	9.374429E-04
7.430494E+03	8.654400E-02	9.217831E-04
7.440388E+03	8.597694E-02	9.085364E-04
7.450282E+03	8.544855E-02	8.978250E-04
7.460176E+03	8.496036E-02	8.897746E-04
7.470070E+03	8.451477E-02	8.845110E-04
7.479964E+03	8.411158E-02	8.821208E-04
7.489859E+03	8.375249E-02	8.826969E-04
7.499753E+03	8.343519E-02	8.862630E-04
7.509647E+03	8.316030E-02	8.927901E-04
7.519541E+03	8.292645E-02	9.021906E-04
7.529435E+03	8.273138E-02	9.143551E-04
7.539329E+03	8.257067E-02	9.291413E-04
7.549223E+03	8.243981E-02	9.463971E-04
7.559117E+03	8.233398E-02	9.659603E-04
7.569012E+03	8.224448E-02	9.876173E-04
7.578906E+03	8.216207E-02	1.011139E-03
7.588800E+03	8.207680E-02	1.036280E-03
7.598694E+03	8.197377E-02	1.062719E-03
7.608588E+03	8.184032E-02	1.090149E-03
7.618482E+03	8.166378E-02	1.118248E-03
7.628376E+03	8.143041E-02	1.146661E-03
7.638271E+03	8.113810E-02	1.175185E-03
7.648165E+03	8.079260E-02	1.203731E-03
7.658059E+03	8.040261E-02	1.232269E-03
7.667953E+03	7.997855E-02	1.260817E-03
7.677847E+03	7.952688E-02	1.289349E-03
