#wls	flux	fluxerr
1.583061E+03	7.919965E-02	7.728658E-03
1.622638E+03	8.143747E-02	7.841606E-03
1.662214E+03	8.368214E-02	7.948069E-03
1.701791E+03	8.590395E-02	8.045160E-03
1.741367E+03	8.811704E-02	8.134206E-03
1.780944E+03	9.027526E-02	8.210983E-03
1.820520E+03	9.234068E-02	8.272265E-03
1.860097E+03	9.428701E-02	8.316075E-03
1.899673E+03	9.605024E-02	8.337326E-03
1.939250E+03	9.761039E-02	8.335074E-03
1.978827E+03	9.897664E-02	8.310953E-03
2.018403E+03	1.001611E-01	8.266816E-03
2.057980E+03	1.013571E-01	8.219160E-03
2.097556E+03	1.027421E-01	8.182117E-03
2.137133E+03	1.045541E-01	8.173516E-03
2.176709E+03	1.069442E-01	8.203124E-03
2.216286E+03	1.099021E-01	8.267605E-03
2.255862E+03	1.133755E-01	8.360557E-03
2.295439E+03	1.172601E-01	8.472114E-03
2.335015E+03	1.214793E-01	8.594950E-03
2.374592E+03	1.259629E-01	8.722621E-03
2.414168E+03	1.306595E-01	8.850391E-03
2.453745E+03	1.355506E-01	8.976023E-03
2.493321E+03	1.406045E-01	9.096543E-03
2.532898E+03	1.458276E-01	9.211588E-03
2.572475E+03	1.512261E-01	9.320791E-03
2.612051E+03	1.568724E-01	9.427729E-03
2.651628E+03	1.627303E-01	9.529213E-03
2.691204E+03	1.688384E-01	9.626600E-03
2.730781E+03	1.751559E-01	9.716565E-03
2.770357E+03	1.817735E-01	9.803118E-03
2.809934E+03	1.887013E-01	9.885505E-03
2.849510E+03	1.960947E-01	9.970358E-03
2.889087E+03	2.040043E-01	1.005826E-02
2.928663E+03	2.125537E-01	1.015307E-02
2.968240E+03	2.218209E-01	1.025585E-02
2.978134E+03	2.242586E-01	1.028287E-02
2.988028E+03	2.267300E-01	1.030966E-02
2.997922E+03	2.292621E-01	1.033742E-02
3.007816E+03	2.318549E-01	1.036608E-02
3.017710E+03	2.344812E-01	1.039438E-02
3.027605E+03	2.371697E-01	1.042356E-02
3.037499E+03	2.398897E-01	1.045222E-02
3.047393E+03	2.426959E-01	1.048271E-02
3.057287E+03	2.455283E-01	1.051237E-02
3.067181E+03	2.484413E-01	1.054350E-02
3.077075E+03	2.513737E-01	1.057346E-02
3.086969E+03	2.543507E-01	1.060329E-02
3.096864E+03	2.573965E-01	1.063395E-02
3.106758E+03	2.604489E-01	1.066285E-02
3.116652E+03	2.635604E-01	1.069213E-02
3.126546E+03	2.666960E-01	1.072034E-02
3.136440E+03	2.698788E-01	1.074839E-02
3.146334E+03	2.730434E-01	1.077369E-02
3.156228E+03	2.762402E-01	1.079825E-02
3.166122E+03	2.794610E-01	1.082173E-02
3.176017E+03	2.826674E-01	1.084267E-02
3.185911E+03	2.858790E-01	1.086187E-02
3.195805E+03	2.890848E-01	1.087893E-02
3.205699E+03	2.922447E-01	1.089240E-02
3.215593E+03	2.954042E-01	1.090403E-02
3.225487E+03	2.984925E-01	1.091128E-02
3.235381E+03	3.015244E-01	1.091480E-02
3.245276E+03	3.045149E-01	1.091522E-02
3.255170E+03	3.074193E-01	1.091103E-02
3.265064E+03	3.102217E-01	1.090181E-02
3.274958E+03	3.129057E-01	1.088713E-02
3.284852E+03	3.154830E-01	1.086755E-02
3.294746E+03	3.179078E-01	1.084168E-02
3.304640E+03	3.201905E-01	1.081005E-02
3.314534E+03	3.223140E-01	1.077228E-02
3.324429E+03	3.242600E-01	1.072796E-02
3.334323E+03	3.260115E-01	1.067677E-02
3.344217E+03	3.275237E-01	1.061749E-02
3.354111E+03	3.288363E-01	1.055166E-02
3.364005E+03	3.299327E-01	1.047899E-02
3.373899E+03	3.307453E-01	1.039760E-02
3.383793E+03	3.313145E-01	1.030907E-02
3.393688E+03	3.316284E-01	1.021329E-02
3.403582E+03	3.316507E-01	1.010944E-02
3.413476E+03	3.314233E-01	9.999070E-03
3.423370E+03	3.308878E-01	9.880705E-03
3.433264E+03	3.300858E-01	9.755882E-03
3.443158E+03	3.289600E-01	9.623180E-03
3.453052E+03	3.275481E-01	9.483969E-03
3.462946E+03	3.258427E-01	9.338234E-03
3.472841E+03	3.238217E-01	9.185538E-03
3.482735E+03	3.215139E-01	9.026905E-03
3.492629E+03	3.189296E-01	8.862802E-03
3.502523E+03	3.160826E-01	8.693775E-03
3.512417E+03	3.129896E-01	8.520435E-03
3.522311E+03	3.096710E-01	8.343466E-03
3.532205E+03	3.061680E-01	8.164095E-03
3.542100E+03	3.025035E-01	7.983010E-03
3.551994E+03	2.986840E-01	7.800446E-03
3.561888E+03	2.947711E-01	7.618062E-03
3.571782E+03	2.907549E-01	7.435616E-03
3.581676E+03	2.866954E-01	7.254654E-03
3.591570E+03	2.826003E-01	7.075351E-03
3.601464E+03	2.784938E-01	6.898279E-03
3.611358E+03	2.744142E-01	6.724334E-03
3.621253E+03	2.703960E-01	6.554289E-03
3.631147E+03	2.664288E-01	6.387801E-03
3.641041E+03	2.625445E-01	6.225547E-03
3.650935E+03	2.587716E-01	6.068091E-03
3.660829E+03	2.551084E-01	5.915277E-03
3.670723E+03	2.515784E-01	5.767525E-03
3.680617E+03	2.481770E-01	5.624600E-03
3.690512E+03	2.449330E-01	5.487020E-03
3.700406E+03	2.418268E-01	5.354208E-03
3.710300E+03	2.388824E-01	5.226566E-03
3.720194E+03	2.360980E-01	5.103909E-03
3.730088E+03	2.334594E-01	4.985798E-03
3.739982E+03	2.309620E-01	4.872010E-03
3.749876E+03	2.286185E-01	4.762689E-03
3.759770E+03	2.264017E-01	4.657153E-03
3.769665E+03	2.243210E-01	4.555488E-03
3.779559E+03	2.223565E-01	4.457187E-03
3.789453E+03	2.204980E-01	4.361961E-03
3.799347E+03	2.187346E-01	4.269516E-03
3.809241E+03	2.170705E-01	4.179867E-03
3.819135E+03	2.154792E-01	4.092441E-03
3.829029E+03	2.139499E-01	4.006990E-03
3.838924E+03	2.124872E-01	3.923565E-03
3.848818E+03	2.110669E-01	3.841693E-03
3.858712E+03	2.096945E-01	3.761457E-03
3.868606E+03	2.083534E-01	3.682550E-03
3.878500E+03	2.070306E-01	3.604751E-03
3.888394E+03	2.057335E-01	3.528202E-03
3.898288E+03	2.044497E-01	3.452706E-03
3.908182E+03	2.031758E-01	3.378235E-03
3.918077E+03	2.019155E-01	3.304882E-03
3.927971E+03	2.006536E-01	3.232438E-03
3.937865E+03	1.994028E-01	3.161154E-03
3.947759E+03	1.981574E-01	3.090986E-03
3.957653E+03	1.969121E-01	3.021905E-03
3.967547E+03	1.956801E-01	2.954174E-03
3.977441E+03	1.944519E-01	2.887707E-03
3.987336E+03	1.932342E-01	2.822669E-03
3.997230E+03	1.920284E-01	2.759150E-03
4.007124E+03	1.908255E-01	2.697091E-03
4.017018E+03	1.896351E-01	2.636710E-03
4.026912E+03	1.884523E-01	2.578022E-03
4.036806E+03	1.872760E-01	2.521097E-03
4.046700E+03	1.860996E-01	2.465945E-03
4.056594E+03	1.849220E-01	2.412651E-03
4.066489E+03	1.837418E-01	2.361301E-03
4.076383E+03	1.825535E-01	2.311937E-03
4.086277E+03	1.813636E-01	2.264750E-03
4.096171E+03	1.801671E-01	2.219789E-03
4.106065E+03	1.789687E-01	2.177222E-03
4.115959E+03	1.777802E-01	2.137299E-03
4.125853E+03	1.765996E-01	2.100093E-03
4.135748E+03	1.754442E-01	2.065902E-03
4.145642E+03	1.743149E-01	2.034820E-03
4.155536E+03	1.732304E-01	2.007140E-03
4.165430E+03	1.721948E-01	1.982970E-03
4.175324E+03	1.712160E-01	1.962457E-03
4.185218E+03	1.703040E-01	1.945759E-03
4.195112E+03	1.694632E-01	1.932958E-03
4.205006E+03	1.686990E-01	1.924109E-03
4.214901E+03	1.680083E-01	1.919045E-03
4.224795E+03	1.673939E-01	1.917638E-03
4.234689E+03	1.668462E-01	1.919611E-03
4.244583E+03	1.663563E-01	1.924695E-03
4.254477E+03	1.659162E-01	1.932627E-03
4.264371E+03	1.655083E-01	1.943030E-03
4.274265E+03	1.651187E-01	1.955565E-03
4.284159E+03	1.647286E-01	1.969834E-03
4.294054E+03	1.643188E-01	1.985425E-03
4.303948E+03	1.638711E-01	2.001934E-03
4.313842E+03	1.633710E-01	2.018995E-03
4.323736E+03	1.628114E-01	2.036331E-03
4.333630E+03	1.621813E-01	2.053617E-03
4.343524E+03	1.614835E-01	2.070703E-03
4.353418E+03	1.607204E-01	2.087443E-03
4.363313E+03	1.598955E-01	2.103712E-03
4.373207E+03	1.590214E-01	2.119521E-03
4.383101E+03	1.581084E-01	2.134861E-03
4.392995E+03	1.571656E-01	2.149728E-03
4.402889E+03	1.562094E-01	2.164229E-03
4.412783E+03	1.552527E-01	2.178444E-03
4.422677E+03	1.543036E-01	2.192403E-03
4.432571E+03	1.533729E-01	2.206184E-03
4.442466E+03	1.524662E-01	2.219808E-03
4.452360E+03	1.515894E-01	2.233311E-03
4.462254E+03	1.507469E-01	2.246715E-03
4.472148E+03	1.499412E-01	2.260019E-03
4.482042E+03	1.491714E-01	2.273184E-03
4.491936E+03	1.484384E-01	2.286192E-03
4.501830E+03	1.477454E-01	2.299076E-03
4.511725E+03	1.470881E-01	2.311750E-03
4.521619E+03	1.464695E-01	2.324246E-03
4.531513E+03	1.458870E-01	2.336510E-03
4.541407E+03	1.453437E-01	2.348581E-03
4.551301E+03	1.448359E-01	2.360390E-03
4.561195E+03	1.443670E-01	2.371988E-03
4.571089E+03	1.439374E-01	2.383377E-03
4.580983E+03	1.435498E-01	2.394596E-03
4.590878E+03	1.432048E-01	2.405657E-03
4.600772E+03	1.429036E-01	2.416579E-03
4.610666E+03	1.426493E-01	2.427413E-03
4.620560E+03	1.424446E-01	2.438209E-03
4.630454E+03	1.422906E-01	2.448986E-03
4.640348E+03	1.421899E-01	2.459793E-03
4.650242E+03	1.421445E-01	2.470667E-03
4.660137E+03	1.421561E-01	2.481637E-03
4.670031E+03	1.422257E-01	2.492727E-03
4.679925E+03	1.423521E-01	2.503910E-03
4.689819E+03	1.425346E-01	2.515179E-03
4.699713E+03	1.427753E-01	2.526568E-03
4.709607E+03	1.430715E-01	2.538024E-03
4.719501E+03	1.434178E-01	2.549451E-03
4.729395E+03	1.438113E-01	2.560785E-03
4.739290E+03	1.442456E-01	2.571910E-03
4.749184E+03	1.447118E-01	2.582656E-03
4.759078E+03	1.451985E-01	2.592808E-03
4.768972E+03	1.456931E-01	2.602134E-03
4.778866E+03	1.461842E-01	2.610420E-03
4.788760E+03	1.466585E-01	2.617417E-03
4.798654E+03	1.471038E-01	2.622901E-03
4.808549E+03	1.475082E-01	2.626656E-03
4.818443E+03	1.478586E-01	2.628448E-03
4.828337E+03	1.481451E-01	2.628100E-03
4.838231E+03	1.483585E-01	2.625460E-03
4.848125E+03	1.484913E-01	2.620405E-03
4.858019E+03	1.485379E-01	2.612853E-03
4.867913E+03	1.484927E-01	2.602727E-03
4.877807E+03	1.483551E-01	2.590046E-03
4.887702E+03	1.481255E-01	2.574846E-03
4.897596E+03	1.478059E-01	2.557199E-03
4.907490E+03	1.473986E-01	2.537187E-03
4.917384E+03	1.469129E-01	2.515009E-03
4.927278E+03	1.463530E-01	2.490782E-03
4.937172E+03	1.457304E-01	2.464751E-03
4.947066E+03	1.450523E-01	2.437081E-03
4.956961E+03	1.443277E-01	2.407973E-03
4.966855E+03	1.435675E-01	2.377652E-03
4.976749E+03	1.427810E-01	2.346317E-03
4.986643E+03	1.419742E-01	2.314112E-03
4.996537E+03	1.411609E-01	2.281301E-03
5.006431E+03	1.403484E-01	2.248040E-03
5.016325E+03	1.395437E-01	2.214478E-03
5.026219E+03	1.387570E-01	2.180808E-03
5.036114E+03	1.379977E-01	2.147211E-03
5.046008E+03	1.372712E-01	2.113793E-03
5.055902E+03	1.365880E-01	2.080742E-03
5.065796E+03	1.359540E-01	2.048167E-03
5.075690E+03	1.353773E-01	2.016205E-03
5.085584E+03	1.348625E-01	1.984940E-03
5.095478E+03	1.344143E-01	1.954452E-03
5.105373E+03	1.340378E-01	1.924825E-03
5.115267E+03	1.337353E-01	1.896103E-03
5.125161E+03	1.335075E-01	1.868304E-03
5.135055E+03	1.333521E-01	1.841409E-03
5.144949E+03	1.332688E-01	1.815427E-03
5.154843E+03	1.332555E-01	1.790349E-03
5.164737E+03	1.333051E-01	1.766104E-03
5.174631E+03	1.334141E-01	1.742675E-03
5.184526E+03	1.335783E-01	1.720045E-03
5.194420E+03	1.337903E-01	1.698163E-03
5.204314E+03	1.340441E-01	1.677005E-03
5.214208E+03	1.343331E-01	1.656552E-03
5.224102E+03	1.346523E-01	1.636810E-03
5.233996E+03	1.349930E-01	1.617758E-03
5.243890E+03	1.353477E-01	1.599390E-03
5.253785E+03	1.357094E-01	1.581723E-03
5.263679E+03	1.360677E-01	1.564745E-03
5.273573E+03	1.364142E-01	1.548471E-03
5.283467E+03	1.367367E-01	1.532889E-03
5.293361E+03	1.370255E-01	1.518017E-03
5.303255E+03	1.372680E-01	1.503852E-03
5.313149E+03	1.374544E-01	1.490422E-03
5.323043E+03	1.375736E-01	1.477742E-03
5.332938E+03	1.376147E-01	1.465830E-03
5.342832E+03	1.375694E-01	1.454722E-03
5.352726E+03	1.374322E-01	1.444477E-03
5.362620E+03	1.371990E-01	1.435152E-03
5.372514E+03	1.368698E-01	1.426831E-03
5.382408E+03	1.364599E-01	1.419683E-03
5.392302E+03	1.359797E-01	1.413717E-03
5.402196E+03	1.354468E-01	1.408999E-03
5.412091E+03	1.348752E-01	1.405543E-03
5.421985E+03	1.342795E-01	1.403367E-03
5.431879E+03	1.336707E-01	1.402443E-03
5.441773E+03	1.330594E-01	1.402742E-03
5.451667E+03	1.324562E-01	1.404235E-03
5.461561E+03	1.318671E-01	1.406851E-03
5.471455E+03	1.312986E-01	1.410527E-03
5.481350E+03	1.307571E-01	1.415208E-03
5.491244E+03	1.302469E-01	1.420821E-03
5.501138E+03	1.297689E-01	1.427264E-03
5.511032E+03	1.293288E-01	1.434498E-03
5.520926E+03	1.289296E-01	1.442458E-03
5.530820E+03	1.285716E-01	1.451059E-03
5.540714E+03	1.282608E-01	1.460286E-03
5.550608E+03	1.280008E-01	1.470106E-03
5.560503E+03	1.277931E-01	1.480467E-03
5.570397E+03	1.276462E-01	1.491408E-03
5.580291E+03	1.275618E-01	1.502892E-03
5.590185E+03	1.275465E-01	1.514949E-03
5.600079E+03	1.276077E-01	1.527622E-03
5.609973E+03	1.277503E-01	1.540931E-03
5.619867E+03	1.279816E-01	1.554928E-03
5.629762E+03	1.283047E-01	1.569622E-03
5.639656E+03	1.287275E-01	1.585078E-03
5.649550E+03	1.292518E-01	1.601293E-03
5.659444E+03	1.298823E-01	1.618297E-03
5.669338E+03	1.306222E-01	1.636106E-03
5.679232E+03	1.314696E-01	1.654668E-03
5.689126E+03	1.324231E-01	1.673938E-03
5.699020E+03	1.334824E-01	1.693881E-03
5.708915E+03	1.346396E-01	1.714365E-03
5.718809E+03	1.358874E-01	1.735262E-03
5.728703E+03	1.372164E-01	1.756412E-03
5.738597E+03	1.386163E-01	1.777643E-03
5.748491E+03	1.400724E-01	1.798724E-03
5.758385E+03	1.415694E-01	1.819412E-03
5.768279E+03	1.430904E-01	1.839444E-03
5.778174E+03	1.446158E-01	1.858523E-03
5.788068E+03	1.461294E-01	1.876395E-03
5.797962E+03	1.476085E-01	1.892727E-03
5.807856E+03	1.490335E-01	1.907230E-03
5.817750E+03	1.503866E-01	1.919644E-03
5.827644E+03	1.516482E-01	1.929689E-03
5.837538E+03	1.528016E-01	1.937139E-03
5.847432E+03	1.538328E-01	1.941804E-03
5.857327E+03	1.547305E-01	1.943542E-03
5.867221E+03	1.554876E-01	1.942273E-03
5.877115E+03	1.561009E-01	1.937979E-03
5.887009E+03	1.565719E-01	1.930706E-03
5.896903E+03	1.569044E-01	1.920538E-03
5.906797E+03	1.571148E-01	1.907717E-03
5.916691E+03	1.572163E-01	1.892455E-03
5.926586E+03	1.572307E-01	1.875061E-03
5.936480E+03	1.571835E-01	1.855888E-03
5.946374E+03	1.571037E-01	1.835325E-03
5.956268E+03	1.570235E-01	1.813788E-03
5.966162E+03	1.569756E-01	1.791687E-03
5.976056E+03	1.569975E-01	1.769468E-03
5.985950E+03	1.571258E-01	1.747553E-03
5.995844E+03	1.573946E-01	1.726312E-03
6.005739E+03	1.578433E-01	1.706156E-03
6.015633E+03	1.585046E-01	1.687401E-03
6.025527E+03	1.594141E-01	1.670372E-03
6.035421E+03	1.606019E-01	1.655318E-03
6.045315E+03	1.620984E-01	1.642475E-03
6.055209E+03	1.639252E-01	1.631976E-03
6.065103E+03	1.661052E-01	1.623959E-03
6.074998E+03	1.686494E-01	1.618444E-03
6.084892E+03	1.715635E-01	1.615411E-03
6.094786E+03	1.748403E-01	1.614738E-03
6.104680E+03	1.784591E-01	1.616209E-03
6.114574E+03	1.823814E-01	1.619503E-03
6.124468E+03	1.865445E-01	1.624147E-03
6.134362E+03	1.908530E-01	1.629481E-03
6.144256E+03	1.951844E-01	1.634724E-03
6.154151E+03	1.993821E-01	1.638944E-03
6.164045E+03	2.032511E-01	1.641033E-03
6.173939E+03	2.065679E-01	1.639803E-03
6.183833E+03	2.090914E-01	1.634060E-03
6.193727E+03	2.105777E-01	1.622683E-03
6.203621E+03	2.108325E-01	1.604975E-03
6.213515E+03	2.098028E-01	1.581269E-03
6.223410E+03	2.076513E-01	1.553383E-03
6.233304E+03	2.046932E-01	1.524061E-03
6.243198E+03	2.012628E-01	1.495989E-03
6.253092E+03	1.976559E-01	1.471411E-03
6.262986E+03	1.941295E-01	1.452154E-03
6.272880E+03	1.908982E-01	1.439498E-03
6.282774E+03	1.880956E-01	1.434073E-03
6.292668E+03	1.858186E-01	1.436299E-03
6.302563E+03	1.841340E-01	1.446447E-03
6.312457E+03	1.830745E-01	1.464615E-03
6.322351E+03	1.826550E-01	1.490840E-03
6.332245E+03	1.828744E-01	1.525102E-03
6.342139E+03	1.837226E-01	1.567370E-03
6.352033E+03	1.851772E-01	1.617553E-03
6.361927E+03	1.872100E-01	1.675544E-03
6.371822E+03	1.897845E-01	1.741178E-03
6.381716E+03	1.928571E-01	1.814224E-03
6.391610E+03	1.963746E-01	1.894349E-03
6.401504E+03	2.002784E-01	1.981134E-03
6.411398E+03	2.045025E-01	2.074045E-03
6.421292E+03	2.089725E-01	2.172404E-03
6.431186E+03	2.136115E-01	2.275438E-03
6.441080E+03	2.183365E-01	2.382231E-03
6.450975E+03	2.230713E-01	2.491859E-03
6.460869E+03	2.277325E-01	2.603237E-03
6.470763E+03	2.322447E-01	2.715288E-03
6.480657E+03	2.365297E-01	2.826823E-03
6.490551E+03	2.405128E-01	2.936616E-03
6.500445E+03	2.441260E-01	3.043454E-03
6.510339E+03	2.473038E-01	3.146089E-03
6.520234E+03	2.499903E-01	3.243339E-03
6.530128E+03	2.521347E-01	3.334045E-03
6.540022E+03	2.536970E-01	3.417156E-03
6.549916E+03	2.546556E-01	3.491846E-03
6.559810E+03	2.549958E-01	3.557383E-03
6.569704E+03	2.547202E-01	3.613287E-03
6.579598E+03	2.538394E-01	3.659215E-03
6.589492E+03	2.523745E-01	3.695009E-03
6.599387E+03	2.503557E-01	3.720686E-03
6.609281E+03	2.478212E-01	3.736434E-03
6.619175E+03	2.448155E-01	3.742589E-03
6.629069E+03	2.413878E-01	3.739620E-03
6.638963E+03	2.375907E-01	3.728108E-03
6.648857E+03	2.334810E-01	3.708762E-03
6.658751E+03	2.291109E-01	3.682276E-03
6.668645E+03	2.245371E-01	3.649470E-03
6.678540E+03	2.198093E-01	3.611107E-03
6.688434E+03	2.149780E-01	3.568003E-03
6.698328E+03	2.100908E-01	3.520973E-03
6.708222E+03	2.051966E-01	3.470886E-03
6.718116E+03	2.003285E-01	3.418382E-03
6.728010E+03	1.955273E-01	3.364252E-03
6.737904E+03	1.908247E-01	3.309157E-03
6.747799E+03	1.862461E-01	3.253658E-03
6.757693E+03	1.818148E-01	3.198294E-03
6.767587E+03	1.775540E-01	3.143612E-03
6.777481E+03	1.734728E-01	3.089911E-03
6.787375E+03	1.695890E-01	3.037643E-03
6.797269E+03	1.659070E-01	2.987019E-03
6.807163E+03	1.624339E-01	2.938300E-03
6.817057E+03	1.591705E-01	2.891619E-03
6.826952E+03	1.561188E-01	2.847125E-03
6.836846E+03	1.532764E-01	2.804884E-03
6.846740E+03	1.506373E-01	2.764881E-03
6.856634E+03	1.481989E-01	2.727158E-03
6.866528E+03	1.459499E-01	2.691584E-03
6.876422E+03	1.438828E-01	2.658093E-03
6.886316E+03	1.419855E-01	2.626521E-03
6.896211E+03	1.402500E-01	2.596774E-03
6.906105E+03	1.386606E-01	2.568607E-03
6.915999E+03	1.372061E-01	2.541854E-03
6.925893E+03	1.358748E-01	2.516331E-03
6.935787E+03	1.346499E-01	2.491752E-03
6.945681E+03	1.335191E-01	2.467920E-03
6.955575E+03	1.324690E-01	2.444602E-03
6.965469E+03	1.314842E-01	2.421540E-03
6.975364E+03	1.305552E-01	2.398572E-03
6.985258E+03	1.296676E-01	2.375454E-03
6.995152E+03	1.288097E-01	2.351990E-03
7.005046E+03	1.279722E-01	2.328028E-03
7.014940E+03	1.271421E-01	2.303352E-03
7.024834E+03	1.263122E-01	2.277858E-03
7.034728E+03	1.254768E-01	2.251468E-03
7.044623E+03	1.246269E-01	2.224049E-03
7.054517E+03	1.237611E-01	2.195609E-03
7.064411E+03	1.228766E-01	2.166130E-03
7.074305E+03	1.219685E-01	2.135564E-03
7.084199E+03	1.210397E-01	2.104001E-03
7.094093E+03	1.200895E-01	2.071468E-03
7.103987E+03	1.191210E-01	2.038063E-03
7.113881E+03	1.181351E-01	2.003843E-03
7.123776E+03	1.171349E-01	1.968902E-03
7.133670E+03	1.161249E-01	1.933363E-03
7.143564E+03	1.151085E-01	1.897325E-03
7.153458E+03	1.140877E-01	1.860864E-03
7.163352E+03	1.130672E-01	1.824100E-03
7.173246E+03	1.120485E-01	1.787101E-03
7.183140E+03	1.110359E-01	1.749977E-03
7.193035E+03	1.100315E-01	1.712807E-03
7.202929E+03	1.090360E-01	1.675642E-03
7.212823E+03	1.080522E-01	1.638570E-03
7.222717E+03	1.070810E-01	1.601651E-03
7.232611E+03	1.061230E-01	1.564940E-03
7.242505E+03	1.051786E-01	1.528487E-03
7.252399E+03	1.042460E-01	1.492321E-03
7.262293E+03	1.033266E-01	1.456513E-03
7.272188E+03	1.024210E-01	1.421131E-03
7.282082E+03	1.015276E-01	1.386210E-03
7.291976E+03	1.006448E-01	1.351792E-03
7.301870E+03	9.977624E-02	1.317998E-03
7.311764E+03	9.891943E-02	1.284864E-03
7.321658E+03	9.807481E-02	1.252475E-03
7.331552E+03	9.724568E-02	1.220954E-03
7.341447E+03	9.643301E-02	1.190399E-03
7.351341E+03	9.563687E-02	1.160902E-03
7.361235E+03	9.486147E-02	1.132608E-03
7.371129E+03	9.410481E-02	1.105594E-03
7.381023E+03	9.337159E-02	1.080021E-03
7.390917E+03	9.266159E-02	1.055994E-03
7.400811E+03	9.197839E-02	1.033668E-03
7.410705E+03	9.132190E-02	1.013158E-03
7.420600E+03	9.069573E-02	9.946225E-04
7.430494E+03	9.010087E-02	9.781915E-04
7.440388E+03	8.954075E-02	9.640204E-04
7.450282E+03	8.901612E-02	9.522325E-04
7.460176E+03	8.852885E-02	9.429585E-04
7.470070E+03	8.807947E-02	9.363075E-04
7.479964E+03	8.767187E-02	9.324152E-04
7.489859E+03	8.730475E-02	9.313508E-04
7.499753E+03	8.698008E-02	9.332051E-04
7.509647E+03	8.669678E-02	9.379970E-04
7.519541E+03	8.645549E-02	9.456851E-04
7.529435E+03	8.625461E-02	9.561818E-04
7.539329E+03	8.609036E-02	9.693658E-04
7.549223E+03	8.595882E-02	9.851050E-04
7.559117E+03	8.585566E-02	1.003255E-03
7.569012E+03	8.577143E-02	1.023604E-03
7.578906E+03	8.569930E-02	1.045963E-03
7.588800E+03	8.562712E-02	1.070070E-03
7.598694E+03	8.553852E-02	1.095595E-03
7.608588E+03	8.542028E-02	1.122231E-03
7.618482E+03	8.525257E-02	1.149566E-03
7.628376E+03	8.502307E-02	1.177266E-03
7.638271E+03	8.472726E-02	1.205089E-03
7.648165E+03	8.437407E-02	1.232987E-03
7.658059E+03	8.397248E-02	1.260925E-03
7.667953E+03	8.353659E-02	1.288968E-03
7.677847E+03	8.307562E-02	1.317130E-03
