#wls	flux	fluxerr
1.583061E+03	7.275622E-02	7.629628E-03
1.622638E+03	7.479314E-02	7.740966E-03
1.662214E+03	7.681467E-02	7.843754E-03
1.701791E+03	7.879264E-02	7.935126E-03
1.741367E+03	8.072430E-02	8.014911E-03
1.780944E+03	8.259971E-02	8.082257E-03
1.820520E+03	8.437418E-02	8.133033E-03
1.860097E+03	8.603097E-02	8.166035E-03
1.899673E+03	8.753925E-02	8.178859E-03
1.939250E+03	8.887779E-02	8.170192E-03
1.978827E+03	9.005190E-02	8.141263E-03
2.018403E+03	9.111895E-02	8.097924E-03
2.057980E+03	9.224553E-02	8.055227E-03
2.097556E+03	9.359847E-02	8.027224E-03
2.137133E+03	9.541037E-02	8.032456E-03
2.176709E+03	9.777989E-02	8.076915E-03
2.216286E+03	1.007231E-01	8.159225E-03
2.255862E+03	1.041816E-01	8.271935E-03
2.295439E+03	1.080370E-01	8.403294E-03
2.335015E+03	1.122397E-01	8.547511E-03
2.374592E+03	1.167172E-01	8.697381E-03
2.414168E+03	1.214612E-01	8.850872E-03
2.453745E+03	1.264857E-01	9.007588E-03
2.493321E+03	1.318041E-01	9.167005E-03
2.532898E+03	1.374708E-01	9.331307E-03
2.572475E+03	1.435620E-01	9.503780E-03
2.612051E+03	1.501598E-01	9.687595E-03
2.651628E+03	1.572704E-01	9.880638E-03
2.691204E+03	1.648951E-01	1.008049E-02
2.730781E+03	1.730063E-01	1.028303E-02
2.770357E+03	1.815817E-01	1.048461E-02
2.809934E+03	1.906050E-01	1.068214E-02
2.849510E+03	2.000866E-01	1.087416E-02
2.889087E+03	2.100312E-01	1.105891E-02
2.928663E+03	2.204511E-01	1.123515E-02
2.968240E+03	2.312475E-01	1.139621E-02
2.978134E+03	2.339936E-01	1.143339E-02
2.988028E+03	2.367942E-01	1.147104E-02
2.997922E+03	2.395642E-01	1.150504E-02
3.007816E+03	2.423828E-01	1.153918E-02
3.017710E+03	2.452213E-01	1.157209E-02
3.027605E+03	2.480505E-01	1.160238E-02
3.037499E+03	2.508928E-01	1.163113E-02
3.047393E+03	2.537707E-01	1.165937E-02
3.057287E+03	2.566237E-01	1.168432E-02
3.067181E+03	2.594733E-01	1.170701E-02
3.077075E+03	2.623411E-01	1.172842E-02
3.086969E+03	2.651654E-01	1.174583E-02
3.096864E+03	2.679946E-01	1.176143E-02
3.106758E+03	2.708215E-01	1.177494E-02
3.116652E+03	2.735833E-01	1.178367E-02
3.126546E+03	2.763271E-01	1.178974E-02
3.136440E+03	2.790171E-01	1.179170E-02
3.146334E+03	2.816725E-01	1.179042E-02
3.156228E+03	2.842841E-01	1.178562E-02
3.166122E+03	2.868147E-01	1.177584E-02
3.176017E+03	2.892827E-01	1.176196E-02
3.185911E+03	2.916779E-01	1.174368E-02
3.195805E+03	2.939904E-01	1.172072E-02
3.205699E+03	2.961823E-01	1.169172E-02
3.215593E+03	2.982979E-01	1.165859E-02
3.225487E+03	3.002724E-01	1.161894E-02
3.235381E+03	3.021496E-01	1.157466E-02
3.245276E+03	3.038920E-01	1.152446E-02
3.255170E+03	3.054897E-01	1.146818E-02
3.265064E+03	3.069591E-01	1.140662E-02
3.274958E+03	3.082644E-01	1.133864E-02
3.284852E+03	3.094225E-01	1.126509E-02
3.294746E+03	3.104247E-01	1.118585E-02
3.304640E+03	3.112378E-01	1.109996E-02
3.314534E+03	3.118802E-01	1.100829E-02
3.324429E+03	3.123459E-01	1.091088E-02
3.334323E+03	3.126295E-01	1.080774E-02
3.344217E+03	3.127272E-01	1.069899E-02
3.354111E+03	3.126596E-01	1.058555E-02
3.364005E+03	3.124012E-01	1.046677E-02
3.373899E+03	3.119516E-01	1.034288E-02
3.383793E+03	3.113347E-01	1.021486E-02
3.393688E+03	3.105296E-01	1.008225E-02
3.403582E+03	3.095621E-01	9.946089E-03
3.413476E+03	3.084358E-01	9.806670E-03
3.423370E+03	3.071551E-01	9.664311E-03
3.433264E+03	3.057250E-01	9.519330E-03
3.443158E+03	3.041690E-01	9.372606E-03
3.453052E+03	3.024476E-01	9.223020E-03
3.462946E+03	3.006021E-01	9.071905E-03
3.472841E+03	2.986320E-01	8.919298E-03
3.482735E+03	2.965201E-01	8.764737E-03
3.492629E+03	2.943070E-01	8.609472E-03
3.502523E+03	2.919611E-01	8.452613E-03
3.512417E+03	2.895078E-01	8.294934E-03
3.522311E+03	2.869717E-01	8.137165E-03
3.532205E+03	2.843285E-01	7.978634E-03
3.542100E+03	2.816380E-01	7.821025E-03
3.551994E+03	2.788781E-01	7.663714E-03
3.561888E+03	2.760759E-01	7.507430E-03
3.571782E+03	2.732278E-01	7.352061E-03
3.581676E+03	2.703747E-01	7.198673E-03
3.591570E+03	2.675130E-01	7.047120E-03
3.601464E+03	2.646529E-01	6.897626E-03
3.611358E+03	2.618046E-01	6.750404E-03
3.621253E+03	2.590036E-01	6.606300E-03
3.631147E+03	2.562313E-01	6.464764E-03
3.641041E+03	2.534956E-01	6.325930E-03
3.650935E+03	2.508272E-01	6.190484E-03
3.660829E+03	2.482185E-01	6.058151E-03
3.670723E+03	2.456728E-01	5.928933E-03
3.680617E+03	2.432031E-01	5.803056E-03
3.690512E+03	2.407994E-01	5.680197E-03
3.700406E+03	2.384720E-01	5.560519E-03
3.710300E+03	2.362091E-01	5.443665E-03
3.720194E+03	2.340281E-01	5.329966E-03
3.730088E+03	2.319155E-01	5.219034E-03
3.739982E+03	2.298573E-01	5.110488E-03
3.749876E+03	2.278679E-01	5.004593E-03
3.759770E+03	2.259407E-01	4.901140E-03
3.769665E+03	2.240610E-01	4.799764E-03
3.779559E+03	2.222227E-01	4.700293E-03
3.789453E+03	2.204358E-01	4.602905E-03
3.799347E+03	2.186766E-01	4.507072E-03
3.809241E+03	2.169386E-01	4.412650E-03
3.819135E+03	2.152303E-01	4.319798E-03
3.829029E+03	2.135358E-01	4.228193E-03
3.838924E+03	2.118487E-01	4.137716E-03
3.848818E+03	2.101619E-01	4.048238E-03
3.858712E+03	2.084692E-01	3.959668E-03
3.868606E+03	2.067657E-01	3.871941E-03
3.878500E+03	2.050471E-01	3.785019E-03
3.888394E+03	2.033169E-01	3.699005E-03
3.898288E+03	2.015616E-01	3.613700E-03
3.908182E+03	1.997927E-01	3.529370E-03
3.918077E+03	1.980059E-01	3.445986E-03
3.927971E+03	1.962035E-01	3.363652E-03
3.937865E+03	1.943818E-01	3.282361E-03
3.947759E+03	1.925550E-01	3.202418E-03
3.957653E+03	1.907164E-01	3.123767E-03
3.967547E+03	1.888742E-01	3.046609E-03
3.977441E+03	1.870273E-01	2.970988E-03
3.987336E+03	1.851852E-01	2.897121E-03
3.997230E+03	1.833467E-01	2.825049E-03
4.007124E+03	1.815161E-01	2.754906E-03
4.017018E+03	1.796938E-01	2.686763E-03
4.026912E+03	1.778879E-01	2.620805E-03
4.036806E+03	1.760940E-01	2.557035E-03
4.046700E+03	1.743249E-01	2.495706E-03
4.056594E+03	1.725792E-01	2.436859E-03
4.066489E+03	1.708523E-01	2.380495E-03
4.076383E+03	1.691526E-01	2.326798E-03
4.086277E+03	1.674845E-01	2.275892E-03
4.096171E+03	1.658499E-01	2.227861E-03
4.106065E+03	1.642558E-01	2.182858E-03
4.115959E+03	1.627075E-01	2.141002E-03
4.125853E+03	1.612112E-01	2.102426E-03
4.135748E+03	1.597809E-01	2.067350E-03
4.145642E+03	1.584237E-01	2.035900E-03
4.155536E+03	1.571470E-01	2.008202E-03
4.165430E+03	1.559609E-01	1.984404E-03
4.175324E+03	1.548698E-01	1.964582E-03
4.185218E+03	1.538798E-01	1.948825E-03
4.195112E+03	1.529918E-01	1.937139E-03
4.205006E+03	1.522042E-01	1.929406E-03
4.214901E+03	1.515099E-01	1.925384E-03
4.224795E+03	1.508978E-01	1.924786E-03
4.234689E+03	1.503570E-01	1.927323E-03
4.244583E+03	1.498673E-01	1.932588E-03
4.254477E+03	1.494061E-01	1.940138E-03
4.264371E+03	1.489501E-01	1.949511E-03
4.274265E+03	1.484872E-01	1.960393E-03
4.284159E+03	1.480102E-01	1.972520E-03
4.294054E+03	1.475135E-01	1.985659E-03
4.303948E+03	1.469961E-01	1.999633E-03
4.313842E+03	1.464503E-01	2.014180E-03
4.323736E+03	1.458780E-01	2.029169E-03
4.333630E+03	1.452773E-01	2.044425E-03
4.343524E+03	1.446492E-01	2.059817E-03
4.353418E+03	1.439965E-01	2.075248E-03
4.363313E+03	1.433206E-01	2.090612E-03
4.373207E+03	1.426306E-01	2.105918E-03
4.383101E+03	1.419281E-01	2.121085E-03
4.392995E+03	1.412202E-01	2.136115E-03
4.402889E+03	1.405158E-01	2.151056E-03
4.412783E+03	1.398186E-01	2.165884E-03
4.422677E+03	1.391379E-01	2.180676E-03
4.432571E+03	1.384784E-01	2.195446E-03
4.442466E+03	1.378450E-01	2.210222E-03
4.452360E+03	1.372379E-01	2.224961E-03
4.462254E+03	1.366622E-01	2.239710E-03
4.472148E+03	1.361205E-01	2.254478E-03
4.482042E+03	1.356112E-01	2.269214E-03
4.491936E+03	1.351359E-01	2.283919E-03
4.501830E+03	1.346978E-01	2.298625E-03
4.511725E+03	1.342942E-01	2.313275E-03
4.521619E+03	1.339279E-01	2.327896E-03
4.531513E+03	1.335997E-01	2.342496E-03
4.541407E+03	1.333074E-01	2.357022E-03
4.551301E+03	1.330552E-01	2.371542E-03
4.561195E+03	1.328414E-01	2.386019E-03
4.571089E+03	1.326693E-01	2.400505E-03
4.580983E+03	1.325403E-01	2.415024E-03
4.590878E+03	1.324563E-01	2.429606E-03
4.600772E+03	1.324191E-01	2.444283E-03
4.610666E+03	1.324286E-01	2.459051E-03
4.620560E+03	1.324894E-01	2.473995E-03
4.630454E+03	1.325994E-01	2.489076E-03
4.640348E+03	1.327624E-01	2.504363E-03
4.650242E+03	1.329755E-01	2.519799E-03
4.660137E+03	1.332397E-01	2.535402E-03
4.670031E+03	1.335540E-01	2.551149E-03
4.679925E+03	1.339139E-01	2.566948E-03
4.689819E+03	1.343172E-01	2.582751E-03
4.699713E+03	1.347594E-01	2.598465E-03
4.709607E+03	1.352352E-01	2.613977E-03
4.719501E+03	1.357367E-01	2.629125E-03
4.729395E+03	1.362583E-01	2.643786E-03
4.739290E+03	1.367877E-01	2.657714E-03
4.749184E+03	1.373225E-01	2.670845E-03
4.759078E+03	1.378517E-01	2.682956E-03
4.768972E+03	1.383677E-01	2.693886E-03
4.778866E+03	1.388608E-01	2.703434E-03
4.788760E+03	1.393241E-01	2.711457E-03
4.798654E+03	1.397426E-01	2.717658E-03
4.808549E+03	1.401091E-01	2.721891E-03
4.818443E+03	1.404126E-01	2.723945E-03
4.828337E+03	1.406457E-01	2.723679E-03
4.838231E+03	1.408007E-01	2.720952E-03
4.848125E+03	1.408727E-01	2.715682E-03
4.858019E+03	1.408556E-01	2.707768E-03
4.867913E+03	1.407491E-01	2.697231E-03
4.877807E+03	1.405515E-01	2.684064E-03
4.887702E+03	1.402631E-01	2.668303E-03
4.897596E+03	1.398855E-01	2.650017E-03
4.907490E+03	1.394222E-01	2.629312E-03
4.917384E+03	1.388811E-01	2.606382E-03
4.927278E+03	1.382704E-01	2.581422E-03
4.937172E+03	1.376000E-01	2.554664E-03
4.947066E+03	1.368756E-01	2.526260E-03
4.956961E+03	1.361103E-01	2.496498E-03
4.966855E+03	1.353103E-01	2.465534E-03
4.976749E+03	1.344846E-01	2.433580E-03
4.986643E+03	1.336464E-01	2.400914E-03
4.996537E+03	1.328002E-01	2.367659E-03
5.006431E+03	1.319571E-01	2.334047E-03
5.016325E+03	1.311234E-01	2.300228E-03
5.026219E+03	1.303082E-01	2.266389E-03
5.036114E+03	1.295185E-01	2.232688E-03
5.046008E+03	1.287615E-01	2.199268E-03
5.055902E+03	1.280436E-01	2.166265E-03
5.065796E+03	1.273713E-01	2.133809E-03
5.075690E+03	1.267518E-01	2.102040E-03
5.085584E+03	1.261892E-01	2.071035E-03
5.095478E+03	1.256873E-01	2.040875E-03
5.105373E+03	1.252507E-01	2.011644E-03
5.115267E+03	1.248815E-01	1.983386E-03
5.125161E+03	1.245787E-01	1.956097E-03
5.135055E+03	1.243444E-01	1.929820E-03
5.144949E+03	1.241742E-01	1.904503E-03
5.154843E+03	1.240665E-01	1.880137E-03
5.164737E+03	1.240188E-01	1.856708E-03
5.174631E+03	1.240254E-01	1.834155E-03
5.184526E+03	1.240819E-01	1.812445E-03
5.194420E+03	1.241834E-01	1.791545E-03
5.204314E+03	1.243271E-01	1.771457E-03
5.214208E+03	1.245043E-01	1.752110E-03
5.224102E+03	1.247137E-01	1.733540E-03
5.233996E+03	1.249469E-01	1.715697E-03
5.243890E+03	1.252006E-01	1.698604E-03
5.253785E+03	1.254659E-01	1.682217E-03
5.263679E+03	1.257379E-01	1.666557E-03
5.273573E+03	1.260090E-01	1.651611E-03
5.283467E+03	1.262690E-01	1.637343E-03
5.293361E+03	1.265102E-01	1.623753E-03
5.303255E+03	1.267226E-01	1.610819E-03
5.313149E+03	1.268972E-01	1.598534E-03
5.323043E+03	1.270220E-01	1.586857E-03
5.332938E+03	1.270874E-01	1.575773E-03
5.342832E+03	1.270840E-01	1.565272E-03
5.352726E+03	1.269996E-01	1.555300E-03
5.362620E+03	1.268289E-01	1.545884E-03
5.372514E+03	1.265712E-01	1.537090E-03
5.382408E+03	1.262344E-01	1.529049E-03
5.392302E+03	1.258336E-01	1.521876E-03
5.402196E+03	1.253813E-01	1.515629E-03
5.412091E+03	1.248912E-01	1.510371E-03
5.421985E+03	1.243775E-01	1.506160E-03
5.431879E+03	1.238518E-01	1.503026E-03
5.441773E+03	1.233236E-01	1.500970E-03
5.451667E+03	1.228025E-01	1.499990E-03
5.461561E+03	1.222978E-01	1.500091E-03
5.471455E+03	1.218169E-01	1.501256E-03
5.481350E+03	1.213646E-01	1.503437E-03
5.491244E+03	1.209458E-01	1.506598E-03
5.501138E+03	1.205652E-01	1.510703E-03
5.511032E+03	1.202264E-01	1.515708E-03
5.520926E+03	1.199325E-01	1.521572E-03
5.530820E+03	1.196856E-01	1.528243E-03
5.540714E+03	1.194889E-01	1.535690E-03
5.550608E+03	1.193469E-01	1.543905E-03
5.560503E+03	1.192608E-01	1.552841E-03
5.570397E+03	1.192345E-01	1.562495E-03
5.580291E+03	1.192734E-01	1.572885E-03
5.590185E+03	1.193807E-01	1.584004E-03
5.600079E+03	1.195608E-01	1.595868E-03
5.609973E+03	1.198183E-01	1.608496E-03
5.619867E+03	1.201560E-01	1.621891E-03
5.629762E+03	1.205779E-01	1.636067E-03
5.639656E+03	1.210870E-01	1.651035E-03
5.649550E+03	1.216874E-01	1.666816E-03
5.659444E+03	1.223780E-01	1.683361E-03
5.669338E+03	1.231595E-01	1.700647E-03
5.679232E+03	1.240326E-01	1.718651E-03
5.689126E+03	1.249937E-01	1.737287E-03
5.699020E+03	1.260391E-01	1.756467E-03
5.708915E+03	1.271652E-01	1.776102E-03
5.718809E+03	1.283624E-01	1.796016E-03
5.728703E+03	1.296220E-01	1.816046E-03
5.738597E+03	1.309369E-01	1.836048E-03
5.748491E+03	1.322919E-01	1.855762E-03
5.758385E+03	1.336769E-01	1.875000E-03
5.768279E+03	1.350785E-01	1.893530E-03
5.778174E+03	1.364802E-01	1.911071E-03
5.788068E+03	1.378686E-01	1.927396E-03
5.797962E+03	1.392308E-01	1.942279E-03
5.807856E+03	1.405496E-01	1.955447E-03
5.817750E+03	1.418112E-01	1.966675E-03
5.827644E+03	1.430057E-01	1.975796E-03
5.837538E+03	1.441177E-01	1.982582E-03
5.847432E+03	1.451408E-01	1.986930E-03
5.857327E+03	1.460679E-01	1.988737E-03
5.867221E+03	1.468927E-01	1.987922E-03
5.877115E+03	1.476174E-01	1.984526E-03
5.887009E+03	1.482433E-01	1.978580E-03
5.896903E+03	1.487767E-01	1.970194E-03
5.906797E+03	1.492318E-01	1.959582E-03
5.916691E+03	1.496215E-01	1.946940E-03
5.926586E+03	1.499647E-01	1.932545E-03
5.936480E+03	1.502829E-01	1.916702E-03
5.946374E+03	1.505996E-01	1.899731E-03
5.956268E+03	1.509415E-01	1.881986E-03
5.966162E+03	1.513377E-01	1.863839E-03
5.976056E+03	1.518136E-01	1.845599E-03
5.985950E+03	1.524029E-01	1.827662E-03
5.995844E+03	1.531317E-01	1.810313E-03
6.005739E+03	1.540312E-01	1.793879E-03
6.015633E+03	1.551248E-01	1.778581E-03
6.025527E+03	1.564422E-01	1.764691E-03
6.035421E+03	1.580027E-01	1.752352E-03
6.045315E+03	1.598294E-01	1.741732E-03
6.055209E+03	1.619337E-01	1.732870E-03
6.065103E+03	1.643286E-01	1.725814E-03
6.074998E+03	1.670132E-01	1.720476E-03
6.084892E+03	1.699833E-01	1.716747E-03
6.094786E+03	1.732237E-01	1.714436E-03
6.104680E+03	1.766980E-01	1.713182E-03
6.114574E+03	1.803651E-01	1.712637E-03
6.124468E+03	1.841648E-01	1.712347E-03
6.134362E+03	1.880181E-01	1.711771E-03
6.144256E+03	1.918225E-01	1.710260E-03
6.154151E+03	1.954582E-01	1.707137E-03
6.164045E+03	1.987579E-01	1.701442E-03
6.173939E+03	2.015482E-01	1.692313E-03
6.183833E+03	2.036514E-01	1.678982E-03
6.193727E+03	2.048806E-01	1.660701E-03
6.203621E+03	2.051007E-01	1.637205E-03
6.213515E+03	2.042720E-01	1.608967E-03
6.223410E+03	2.024989E-01	1.577490E-03
6.233304E+03	1.999771E-01	1.544810E-03
6.243198E+03	1.969554E-01	1.513178E-03
6.253092E+03	1.936782E-01	1.484637E-03
6.262986E+03	1.903736E-01	1.460975E-03
6.272880E+03	1.872408E-01	1.443634E-03
6.282774E+03	1.844284E-01	1.433430E-03
6.292668E+03	1.820456E-01	1.430831E-03
6.302563E+03	1.801768E-01	1.436179E-03
6.312457E+03	1.788717E-01	1.449619E-03
6.322351E+03	1.781616E-01	1.471238E-03
6.332245E+03	1.780604E-01	1.501059E-03
6.342139E+03	1.785717E-01	1.539095E-03
6.352033E+03	1.796813E-01	1.585272E-03
6.361927E+03	1.813747E-01	1.639559E-03
6.371822E+03	1.836248E-01	1.701848E-03
6.381716E+03	1.863952E-01	1.771959E-03
6.391610E+03	1.896478E-01	1.849699E-03
6.401504E+03	1.933326E-01	1.934748E-03
6.411398E+03	1.973898E-01	2.026650E-03
6.421292E+03	2.017585E-01	2.124898E-03
6.431186E+03	2.063681E-01	2.228820E-03
6.441080E+03	2.111480E-01	2.337676E-03
6.450975E+03	2.160122E-01	2.450478E-03
6.460869E+03	2.208904E-01	2.566329E-03
6.470763E+03	2.256990E-01	2.684095E-03
6.480657E+03	2.303597E-01	2.802619E-03
6.490551E+03	2.347897E-01	2.920599E-03
6.500445E+03	2.389205E-01	3.036829E-03
6.510339E+03	2.426707E-01	3.149866E-03
6.520234E+03	2.459771E-01	3.258428E-03
6.530128E+03	2.487778E-01	3.361189E-03
6.540022E+03	2.510167E-01	3.456853E-03
6.549916E+03	2.526551E-01	3.544322E-03
6.559810E+03	2.536684E-01	3.622678E-03
6.569704E+03	2.540411E-01	3.691129E-03
6.579598E+03	2.537744E-01	3.749138E-03
6.589492E+03	2.528778E-01	3.796316E-03
6.599387E+03	2.513803E-01	3.832602E-03
6.609281E+03	2.493128E-01	3.858019E-03
6.619175E+03	2.467173E-01	3.872817E-03
6.629069E+03	2.436414E-01	3.877392E-03
6.638963E+03	2.401400E-01	3.872329E-03
6.648857E+03	2.362681E-01	3.858273E-03
6.658751E+03	2.320815E-01	3.835957E-03
6.668645E+03	2.276362E-01	3.806171E-03
6.678540E+03	2.229893E-01	3.769786E-03
6.688434E+03	2.181911E-01	3.727614E-03
6.698328E+03	2.132922E-01	3.680517E-03
6.708222E+03	2.083424E-01	3.629388E-03
6.718116E+03	2.033854E-01	3.575049E-03
6.728010E+03	1.984605E-01	3.518279E-03
6.737904E+03	1.936029E-01	3.459812E-03
6.747799E+03	1.888456E-01	3.400359E-03
6.757693E+03	1.842129E-01	3.340492E-03
6.767587E+03	1.797292E-01	3.280795E-03
6.777481E+03	1.754107E-01	3.221706E-03
6.787375E+03	1.712735E-01	3.163667E-03
6.797269E+03	1.673277E-01	3.107010E-03
6.807163E+03	1.635807E-01	3.052008E-03
6.817057E+03	1.600362E-01	2.998866E-03
6.826952E+03	1.566972E-01	2.947765E-03
6.836846E+03	1.535589E-01	2.898734E-03
6.846740E+03	1.506216E-01	2.851884E-03
6.856634E+03	1.478782E-01	2.807183E-03
6.866528E+03	1.453237E-01	2.764627E-03
6.876422E+03	1.429482E-01	2.724108E-03
6.886316E+03	1.407443E-01	2.685557E-03
6.896211E+03	1.387003E-01	2.648813E-03
6.906105E+03	1.368070E-01	2.613761E-03
6.915999E+03	1.350532E-01	2.580233E-03
6.925893E+03	1.334256E-01	2.548020E-03
6.935787E+03	1.319126E-01	2.516935E-03
6.945681E+03	1.305055E-01	2.486846E-03
6.955575E+03	1.291893E-01	2.457496E-03
6.965469E+03	1.279539E-01	2.428720E-03
6.975364E+03	1.267866E-01	2.400300E-03
6.985258E+03	1.256779E-01	2.372079E-03
6.995152E+03	1.246161E-01	2.343858E-03
7.005046E+03	1.235929E-01	2.315502E-03
7.014940E+03	1.225990E-01	2.286863E-03
7.024834E+03	1.216247E-01	2.257783E-03
7.034728E+03	1.206642E-01	2.228180E-03
7.044623E+03	1.197093E-01	2.197931E-03
7.054517E+03	1.187548E-01	2.166970E-03
7.064411E+03	1.177976E-01	2.135277E-03
7.074305E+03	1.168327E-01	2.102795E-03
7.084199E+03	1.158578E-01	2.069521E-03
7.094093E+03	1.148728E-01	2.035492E-03
7.103987E+03	1.138738E-01	2.000683E-03
7.113881E+03	1.128635E-01	1.965186E-03
7.123776E+03	1.118411E-01	1.929030E-03
7.133670E+03	1.108071E-01	1.892273E-03
7.143564E+03	1.097627E-01	1.854984E-03
7.153458E+03	1.087093E-01	1.817236E-03
7.163352E+03	1.076469E-01	1.779081E-03
7.173246E+03	1.065802E-01	1.740644E-03
7.183140E+03	1.055093E-01	1.701985E-03
7.193035E+03	1.044361E-01	1.663183E-03
7.202929E+03	1.033625E-01	1.624323E-03
7.212823E+03	1.022903E-01	1.585490E-03
7.222717E+03	1.012213E-01	1.546766E-03
7.232611E+03	1.001573E-01	1.508237E-03
7.242505E+03	9.910018E-02	1.469988E-03
7.252399E+03	9.805284E-02	1.432122E-03
7.262293E+03	9.701670E-02	1.394720E-03
7.272188E+03	9.599304E-02	1.357863E-03
7.282082E+03	9.498312E-02	1.321635E-03
7.291976E+03	9.398935E-02	1.286136E-03
7.301870E+03	9.301296E-02	1.251453E-03
7.311764E+03	9.205635E-02	1.217692E-03
7.321658E+03	9.112080E-02	1.184946E-03
7.331552E+03	9.020765E-02	1.153313E-03
7.341447E+03	8.932072E-02	1.122927E-03
7.351341E+03	8.846028E-02	1.093878E-03
7.361235E+03	8.762676E-02	1.066264E-03
7.371129E+03	8.682192E-02	1.040206E-03
7.381023E+03	8.604630E-02	1.015810E-03
7.390917E+03	8.530177E-02	9.932056E-04
7.400811E+03	8.458903E-02	9.725085E-04
7.410705E+03	8.390876E-02	9.538376E-04
7.420600E+03	8.326276E-02	9.373243E-04
7.430494E+03	8.265271E-02	9.230975E-04
7.440388E+03	8.207794E-02	9.112562E-04
7.450282E+03	8.154204E-02	9.019414E-04
7.460176E+03	8.104393E-02	8.952341E-04
7.470070E+03	8.058446E-02	8.912274E-04
7.479964E+03	8.016525E-02	8.900104E-04
7.489859E+03	7.978415E-02	8.916161E-04
7.499753E+03	7.944295E-02	8.960644E-04
7.509647E+03	7.913847E-02	9.032545E-04
7.519541E+03	7.887121E-02	9.131125E-04
7.529435E+03	7.863658E-02	9.254975E-04
7.539329E+03	7.843243E-02	9.402890E-04
7.549223E+03	7.825455E-02	9.573365E-04
7.559117E+03	7.809784E-02	9.764736E-04
7.569012E+03	7.795619E-02	9.975163E-04
7.578906E+03	7.782261E-02	1.020265E-03
7.588800E+03	7.768831E-02	1.044488E-03
7.598694E+03	7.754720E-02	1.069987E-03
7.608588E+03	7.738904E-02	1.096496E-03
7.618482E+03	7.720841E-02	1.123812E-03
7.628376E+03	7.699731E-02	1.151685E-03
7.638271E+03	7.675505E-02	1.179972E-03
7.648165E+03	7.648100E-02	1.208532E-03
7.658059E+03	7.617753E-02	1.237276E-03
7.667953E+03	7.584906E-02	1.266159E-03
7.677847E+03	7.549838E-02	1.295120E-03
