#wls	flux	fluxerr
1.583061E+03	6.204850E-02	7.734132E-03
1.622638E+03	6.362496E-02	7.834324E-03
1.662214E+03	6.515404E-02	7.922598E-03
1.701791E+03	6.662751E-02	7.998097E-03
1.741367E+03	6.803680E-02	8.059985E-03
1.780944E+03	6.938112E-02	8.108399E-03
1.820520E+03	7.063502E-02	8.140654E-03
1.860097E+03	7.179748E-02	8.157014E-03
1.899673E+03	7.285806E-02	8.156715E-03
1.939250E+03	7.381471E-02	8.140003E-03
1.978827E+03	7.468579E-02	8.109365E-03
2.018403E+03	7.554193E-02	8.072772E-03
2.057980E+03	7.649957E-02	8.042532E-03
2.097556E+03	7.772631E-02	8.035435E-03
2.137133E+03	7.938723E-02	8.066824E-03
2.176709E+03	8.158916E-02	8.145029E-03
2.216286E+03	8.432860E-02	8.266754E-03
2.255862E+03	8.754088E-02	8.422780E-03
2.295439E+03	9.116577E-02	8.604736E-03
2.335015E+03	9.515435E-02	8.805701E-03
2.374592E+03	9.950814E-02	9.023658E-03
2.414168E+03	1.042451E-01	9.258019E-03
2.453745E+03	1.094220E-01	9.511439E-03
2.493321E+03	1.150829E-01	9.785018E-03
2.532898E+03	1.213520E-01	1.008620E-02
2.572475E+03	1.282805E-01	1.041552E-02
2.612051E+03	1.359990E-01	1.077945E-02
2.651628E+03	1.445387E-01	1.117570E-02
2.691204E+03	1.538724E-01	1.159740E-02
2.730781E+03	1.639747E-01	1.203802E-02
2.770357E+03	1.747680E-01	1.248749E-02
2.809934E+03	1.861163E-01	1.293234E-02
2.849510E+03	1.978901E-01	1.336063E-02
2.889087E+03	2.098953E-01	1.375732E-02
2.928663E+03	2.218919E-01	1.410610E-02
2.968240E+03	2.336420E-01	1.439281E-02
2.978134E+03	2.364928E-01	1.445208E-02
2.988028E+03	2.392920E-01	1.450549E-02
2.997922E+03	2.420588E-01	1.455426E-02
3.007816E+03	2.447621E-01	1.459663E-02
3.017710E+03	2.474229E-01	1.463392E-02
3.027605E+03	2.500116E-01	1.466448E-02
3.037499E+03	2.525464E-01	1.468950E-02
3.047393E+03	2.549944E-01	1.470715E-02
3.057287E+03	2.573740E-01	1.471864E-02
3.067181E+03	2.596523E-01	1.472223E-02
3.077075E+03	2.618479E-01	1.471911E-02
3.086969E+03	2.639533E-01	1.470901E-02
3.096864E+03	2.659361E-01	1.469030E-02
3.106758E+03	2.678152E-01	1.466419E-02
3.116652E+03	2.695835E-01	1.463048E-02
3.126546E+03	2.712351E-01	1.458903E-02
3.136440E+03	2.727379E-01	1.453831E-02
3.146334E+03	2.741116E-01	1.447961E-02
3.156228E+03	2.753510E-01	1.441285E-02
3.166122E+03	2.764758E-01	1.433927E-02
3.176017E+03	2.774311E-01	1.425622E-02
3.185911E+03	2.782377E-01	1.416505E-02
3.195805E+03	2.788921E-01	1.406581E-02
3.205699E+03	2.793912E-01	1.395856E-02
3.215593E+03	2.797327E-01	1.384346E-02
3.225487E+03	2.799388E-01	1.372181E-02
3.235381E+03	2.799601E-01	1.359144E-02
3.245276E+03	2.798442E-01	1.345492E-02
3.255170E+03	2.795675E-01	1.331134E-02
3.265064E+03	2.791544E-01	1.316207E-02
3.274958E+03	2.785608E-01	1.300529E-02
3.284852E+03	2.778576E-01	1.284453E-02
3.294746E+03	2.769805E-01	1.267702E-02
3.304640E+03	2.760006E-01	1.250623E-02
3.314534E+03	2.748572E-01	1.232961E-02
3.324429E+03	2.736208E-01	1.215051E-02
3.334323E+03	2.722549E-01	1.196746E-02
3.344217E+03	2.707881E-01	1.178192E-02
3.354111E+03	2.692078E-01	1.159347E-02
3.364005E+03	2.675429E-01	1.140351E-02
3.373899E+03	2.658025E-01	1.121255E-02
3.383793E+03	2.640149E-01	1.102187E-02
3.393688E+03	2.621327E-01	1.082959E-02
3.403582E+03	2.602228E-01	1.063857E-02
3.413476E+03	2.582764E-01	1.044850E-02
3.423370E+03	2.563208E-01	1.026052E-02
3.433264E+03	2.543292E-01	1.007359E-02
3.443158E+03	2.523276E-01	9.888760E-03
3.453052E+03	2.503403E-01	9.706950E-03
3.462946E+03	2.483572E-01	9.527710E-03
3.472841E+03	2.464026E-01	9.351907E-03
3.482735E+03	2.444687E-01	9.179164E-03
3.492629E+03	2.425635E-01	9.009709E-03
3.502523E+03	2.407104E-01	8.844326E-03
3.512417E+03	2.389158E-01	8.683142E-03
3.522311E+03	2.371715E-01	8.525754E-03
3.532205E+03	2.354985E-01	8.372803E-03
3.542100E+03	2.339018E-01	8.224351E-03
3.551994E+03	2.323862E-01	8.080440E-03
3.561888E+03	2.309417E-01	7.940595E-03
3.571782E+03	2.295989E-01	7.805741E-03
3.581676E+03	2.283328E-01	7.674898E-03
3.591570E+03	2.271710E-01	7.548857E-03
3.601464E+03	2.261004E-01	7.427049E-03
3.611358E+03	2.251197E-01	7.309303E-03
3.621253E+03	2.242269E-01	7.195430E-03
3.631147E+03	2.234304E-01	7.085573E-03
3.641041E+03	2.227130E-01	6.979071E-03
3.650935E+03	2.220686E-01	6.875626E-03
3.660829E+03	2.215010E-01	6.775261E-03
3.670723E+03	2.210011E-01	6.677599E-03
3.680617E+03	2.205476E-01	6.581918E-03
3.690512E+03	2.201411E-01	6.488178E-03
3.700406E+03	2.197596E-01	6.395678E-03
3.710300E+03	2.194021E-01	6.304358E-03
3.720194E+03	2.190567E-01	6.213851E-03
3.730088E+03	2.187117E-01	6.123813E-03
3.739982E+03	2.183557E-01	6.033933E-03
3.749876E+03	2.179769E-01	5.943907E-03
3.759770E+03	2.175645E-01	5.853473E-03
3.769665E+03	2.171076E-01	5.762390E-03
3.779559E+03	2.165869E-01	5.670208E-03
3.789453E+03	2.160109E-01	5.577236E-03
3.799347E+03	2.153702E-01	5.483310E-03
3.809241E+03	2.146376E-01	5.387835E-03
3.819135E+03	2.138233E-01	5.291184E-03
3.829029E+03	2.129019E-01	5.192853E-03
3.838924E+03	2.118932E-01	5.093458E-03
3.848818E+03	2.107663E-01	4.992394E-03
3.858712E+03	2.095338E-01	4.890110E-03
3.868606E+03	2.081853E-01	4.786514E-03
3.878500E+03	2.067194E-01	4.681736E-03
3.888394E+03	2.051444E-01	4.576124E-03
3.898288E+03	2.034468E-01	4.469536E-03
3.908182E+03	2.016526E-01	4.362705E-03
3.918077E+03	1.997444E-01	4.255407E-03
3.927971E+03	1.977428E-01	4.148237E-03
3.937865E+03	1.956485E-01	4.041349E-03
3.947759E+03	1.934698E-01	3.935058E-03
3.957653E+03	1.912232E-01	3.829831E-03
3.967547E+03	1.889066E-01	3.725739E-03
3.977441E+03	1.865442E-01	3.623373E-03
3.987336E+03	1.841412E-01	3.522931E-03
3.997230E+03	1.817040E-01	3.424624E-03
4.007124E+03	1.792555E-01	3.328960E-03
4.017018E+03	1.767954E-01	3.235996E-03
4.026912E+03	1.743389E-01	3.146068E-03
4.036806E+03	1.718946E-01	3.059377E-03
4.046700E+03	1.694647E-01	2.976003E-03
4.056594E+03	1.670610E-01	2.896181E-03
4.066489E+03	1.646797E-01	2.819873E-03
4.076383E+03	1.623368E-01	2.747373E-03
4.086277E+03	1.600389E-01	2.678800E-03
4.096171E+03	1.577804E-01	2.614062E-03
4.106065E+03	1.555839E-01	2.553530E-03
4.115959E+03	1.534511E-01	2.497219E-03
4.125853E+03	1.513979E-01	2.445363E-03
4.135748E+03	1.494324E-01	2.398061E-03
4.145642E+03	1.475633E-01	2.355418E-03
4.155536E+03	1.458107E-01	2.317706E-03
4.165430E+03	1.441775E-01	2.284929E-03
4.175324E+03	1.426765E-01	2.257237E-03
4.185218E+03	1.413072E-01	2.234516E-03
4.195112E+03	1.400803E-01	2.216754E-03
4.205006E+03	1.389892E-01	2.203665E-03
4.214901E+03	1.380340E-01	2.195081E-03
4.224795E+03	1.372044E-01	2.190677E-03
4.234689E+03	1.364894E-01	2.190126E-03
4.244583E+03	1.358709E-01	2.192994E-03
4.254477E+03	1.353336E-01	2.198892E-03
4.264371E+03	1.348528E-01	2.207280E-03
4.274265E+03	1.344039E-01	2.217615E-03
4.284159E+03	1.339730E-01	2.229528E-03
4.294054E+03	1.335326E-01	2.242414E-03
4.303948E+03	1.330710E-01	2.255930E-03
4.313842E+03	1.325676E-01	2.269572E-03
4.323736E+03	1.320137E-01	2.283038E-03
4.333630E+03	1.313989E-01	2.295989E-03
4.343524E+03	1.307195E-01	2.308205E-03
4.353418E+03	1.299732E-01	2.319497E-03
4.363313E+03	1.291670E-01	2.329841E-03
4.373207E+03	1.283026E-01	2.339132E-03
4.383101E+03	1.273944E-01	2.347506E-03
4.392995E+03	1.264480E-01	2.354954E-03
4.402889E+03	1.254749E-01	2.361587E-03
4.412783E+03	1.244865E-01	2.367530E-03
4.422677E+03	1.234958E-01	2.372959E-03
4.432571E+03	1.225058E-01	2.377868E-03
4.442466E+03	1.215299E-01	2.382462E-03
4.452360E+03	1.205734E-01	2.386805E-03
4.462254E+03	1.196427E-01	2.390991E-03
4.472148E+03	1.187435E-01	2.395108E-03
4.482042E+03	1.178784E-01	2.399192E-03
4.491936E+03	1.170538E-01	2.403358E-03
4.501830E+03	1.162713E-01	2.407632E-03
4.511725E+03	1.155320E-01	2.412035E-03
4.521619E+03	1.148430E-01	2.416712E-03
4.531513E+03	1.142048E-01	2.421678E-03
4.541407E+03	1.136178E-01	2.426949E-03
4.551301E+03	1.130861E-01	2.432618E-03
4.561195E+03	1.126096E-01	2.438693E-03
4.571089E+03	1.121901E-01	2.445221E-03
4.580983E+03	1.118309E-01	2.452286E-03
4.590878E+03	1.115312E-01	2.459883E-03
4.600772E+03	1.112939E-01	2.468083E-03
4.610666E+03	1.111159E-01	2.476829E-03
4.620560E+03	1.110012E-01	2.486219E-03
4.630454E+03	1.109459E-01	2.496176E-03
4.640348E+03	1.109532E-01	2.506777E-03
4.650242E+03	1.110203E-01	2.517965E-03
4.660137E+03	1.111440E-01	2.529669E-03
4.670031E+03	1.113257E-01	2.541925E-03
4.679925E+03	1.115610E-01	2.554633E-03
4.689819E+03	1.118485E-01	2.567755E-03
4.699713E+03	1.121806E-01	2.581116E-03
4.709607E+03	1.125562E-01	2.594682E-03
4.719501E+03	1.129680E-01	2.608278E-03
4.729395E+03	1.134116E-01	2.621793E-03
4.739290E+03	1.138781E-01	2.635012E-03
4.749184E+03	1.143597E-01	2.647743E-03
4.759078E+03	1.148517E-01	2.659861E-03
4.768972E+03	1.153413E-01	2.671062E-03
4.778866E+03	1.158208E-01	2.681157E-03
4.788760E+03	1.162805E-01	2.689908E-03
4.798654E+03	1.167104E-01	2.697080E-03
4.808549E+03	1.171026E-01	2.702486E-03
4.818443E+03	1.174464E-01	2.705872E-03
4.828337E+03	1.177335E-01	2.707055E-03
4.838231E+03	1.179588E-01	2.705921E-03
4.848125E+03	1.181183E-01	2.702393E-03
4.858019E+03	1.182030E-01	2.696275E-03
4.867913E+03	1.182174E-01	2.687694E-03
4.877807E+03	1.181556E-01	2.676539E-03
4.887702E+03	1.180221E-01	2.662942E-03
4.897596E+03	1.178179E-01	2.646955E-03
4.907490E+03	1.175487E-01	2.628743E-03
4.917384E+03	1.172182E-01	2.608426E-03
4.927278E+03	1.168362E-01	2.586260E-03
4.937172E+03	1.164079E-01	2.562397E-03
4.947066E+03	1.159388E-01	2.537001E-03
4.956961E+03	1.154414E-01	2.510381E-03
4.966855E+03	1.149179E-01	2.482625E-03
4.976749E+03	1.143789E-01	2.453997E-03
4.986643E+03	1.138314E-01	2.424680E-03
4.996537E+03	1.132820E-01	2.394851E-03
5.006431E+03	1.127356E-01	2.364639E-03
5.016325E+03	1.121997E-01	2.334233E-03
5.026219E+03	1.116816E-01	2.303809E-03
5.036114E+03	1.111833E-01	2.273432E-03
5.046008E+03	1.107131E-01	2.243291E-03
5.055902E+03	1.102737E-01	2.213460E-03
5.065796E+03	1.098694E-01	2.184041E-03
5.075690E+03	1.095037E-01	2.155118E-03
5.085584E+03	1.091813E-01	2.126797E-03
5.095478E+03	1.089030E-01	2.099104E-03
5.105373E+03	1.086706E-01	2.072085E-03
5.115267E+03	1.084866E-01	2.045798E-03
5.125161E+03	1.083511E-01	2.020259E-03
5.135055E+03	1.082623E-01	1.995443E-03
5.144949E+03	1.082188E-01	1.971343E-03
5.154843E+03	1.082192E-01	1.947948E-03
5.164737E+03	1.082626E-01	1.925268E-03
5.174631E+03	1.083468E-01	1.903285E-03
5.184526E+03	1.084661E-01	1.881930E-03
5.194420E+03	1.086210E-01	1.861246E-03
5.204314E+03	1.088072E-01	1.841200E-03
5.214208E+03	1.090221E-01	1.821793E-03
5.224102E+03	1.092644E-01	1.803056E-03
5.233996E+03	1.095285E-01	1.784947E-03
5.243890E+03	1.098128E-01	1.767507E-03
5.253785E+03	1.101141E-01	1.750753E-03
5.263679E+03	1.104291E-01	1.734704E-03
5.273573E+03	1.107541E-01	1.719381E-03
5.283467E+03	1.110848E-01	1.704806E-03
5.293361E+03	1.114151E-01	1.690974E-03
5.303255E+03	1.117414E-01	1.677925E-03
5.313149E+03	1.120560E-01	1.665645E-03
5.323043E+03	1.123533E-01	1.654153E-03
5.332938E+03	1.126234E-01	1.643410E-03
5.342832E+03	1.128570E-01	1.633385E-03
5.352726E+03	1.130456E-01	1.624065E-03
5.362620E+03	1.131787E-01	1.615401E-03
5.372514E+03	1.132526E-01	1.607438E-03
5.382408E+03	1.132719E-01	1.600329E-03
5.392302E+03	1.132460E-01	1.594278E-03
5.402196E+03	1.131819E-01	1.589378E-03
5.412091E+03	1.130867E-01	1.585653E-03
5.421985E+03	1.129713E-01	1.583169E-03
5.431879E+03	1.128428E-01	1.581931E-03
5.441773E+03	1.127046E-01	1.581886E-03
5.451667E+03	1.125655E-01	1.583054E-03
5.461561E+03	1.124290E-01	1.585380E-03
5.471455E+03	1.123011E-01	1.588843E-03
5.481350E+03	1.121828E-01	1.593352E-03
5.491244E+03	1.120822E-01	1.598920E-03
5.501138E+03	1.119996E-01	1.605451E-03
5.511032E+03	1.119395E-01	1.612913E-03
5.520926E+03	1.119032E-01	1.621233E-03
5.530820E+03	1.118966E-01	1.630407E-03
5.540714E+03	1.119194E-01	1.640349E-03
5.550608E+03	1.119775E-01	1.651063E-03
5.560503E+03	1.120723E-01	1.662494E-03
5.570397E+03	1.122064E-01	1.674616E-03
5.580291E+03	1.123844E-01	1.687427E-03
5.590185E+03	1.126076E-01	1.700885E-03
5.600079E+03	1.128801E-01	1.714997E-03
5.609973E+03	1.132044E-01	1.729745E-03
5.619867E+03	1.135826E-01	1.745113E-03
5.629762E+03	1.140167E-01	1.761079E-03
5.639656E+03	1.145095E-01	1.777643E-03
5.649550E+03	1.150587E-01	1.794723E-03
5.659444E+03	1.156674E-01	1.812328E-03
5.669338E+03	1.163352E-01	1.830407E-03
5.679232E+03	1.170591E-01	1.848872E-03
5.689126E+03	1.178386E-01	1.867673E-03
5.699020E+03	1.186707E-01	1.886722E-03
5.708915E+03	1.195518E-01	1.905917E-03
5.718809E+03	1.204772E-01	1.925143E-03
5.728703E+03	1.214418E-01	1.944273E-03
5.738597E+03	1.224398E-01	1.963173E-03
5.748491E+03	1.234652E-01	1.981699E-03
5.758385E+03	1.245114E-01	1.999706E-03
5.768279E+03	1.255737E-01	2.017073E-03
5.778174E+03	1.266441E-01	2.033628E-03
5.788068E+03	1.277162E-01	2.049230E-03
5.797962E+03	1.287862E-01	2.063776E-03
5.807856E+03	1.298470E-01	2.077118E-03
5.817750E+03	1.308961E-01	2.089179E-03
5.827644E+03	1.319282E-01	2.099846E-03
5.837538E+03	1.329411E-01	2.109053E-03
5.847432E+03	1.339357E-01	2.116791E-03
5.857327E+03	1.349108E-01	2.123019E-03
5.867221E+03	1.358689E-01	2.127758E-03
5.877115E+03	1.368162E-01	2.131088E-03
5.887009E+03	1.377570E-01	2.133063E-03
5.896903E+03	1.387014E-01	2.133826E-03
5.906797E+03	1.396556E-01	2.133459E-03
5.916691E+03	1.406351E-01	2.132188E-03
5.926586E+03	1.416513E-01	2.130169E-03
5.936480E+03	1.427187E-01	2.127603E-03
5.946374E+03	1.438528E-01	2.124701E-03
5.956268E+03	1.450697E-01	2.121674E-03
5.966162E+03	1.463880E-01	2.118762E-03
5.976056E+03	1.478199E-01	2.116103E-03
5.985950E+03	1.493811E-01	2.113879E-03
5.995844E+03	1.510905E-01	2.112310E-03
6.005739E+03	1.529592E-01	2.111496E-03
6.015633E+03	1.549960E-01	2.111499E-03
6.025527E+03	1.572087E-01	2.112370E-03
6.035421E+03	1.596060E-01	2.114169E-03
6.045315E+03	1.621830E-01	2.116779E-03
6.055209E+03	1.649330E-01	2.120078E-03
6.065103E+03	1.678451E-01	2.123903E-03
6.074998E+03	1.708949E-01	2.127949E-03
6.084892E+03	1.740505E-01	2.131857E-03
6.094786E+03	1.772712E-01	2.135210E-03
6.104680E+03	1.804980E-01	2.137432E-03
6.114574E+03	1.836632E-01	2.137921E-03
6.124468E+03	1.866760E-01	2.135892E-03
6.134362E+03	1.894404E-01	2.130605E-03
6.144256E+03	1.918384E-01	2.121175E-03
6.154151E+03	1.937422E-01	2.106723E-03
6.164045E+03	1.950156E-01	2.086387E-03
6.173939E+03	1.955222E-01	2.059397E-03
6.183833E+03	1.951390E-01	2.025188E-03
6.193727E+03	1.937601E-01	1.983411E-03
6.203621E+03	1.913443E-01	1.934355E-03
6.213515E+03	1.879487E-01	1.879216E-03
6.223410E+03	1.837888E-01	1.820617E-03
6.233304E+03	1.791614E-01	1.761776E-03
6.243198E+03	1.743655E-01	1.705737E-03
6.253092E+03	1.696687E-01	1.655091E-03
6.262986E+03	1.652868E-01	1.611840E-03
6.272880E+03	1.613870E-01	1.577491E-03
6.282774E+03	1.580860E-01	1.552994E-03
6.292668E+03	1.554612E-01	1.538807E-03
6.302563E+03	1.535528E-01	1.535098E-03
6.312457E+03	1.523773E-01	1.541897E-03
6.322351E+03	1.519356E-01	1.559171E-03
6.332245E+03	1.522158E-01	1.586838E-03
6.342139E+03	1.531966E-01	1.624789E-03
6.352033E+03	1.548566E-01	1.672970E-03
6.361927E+03	1.571682E-01	1.731304E-03
6.371822E+03	1.600976E-01	1.799669E-03
6.381716E+03	1.636110E-01	1.877961E-03
6.391610E+03	1.676671E-01	1.965983E-03
6.401504E+03	1.722181E-01	2.063451E-03
6.411398E+03	1.772120E-01	2.169992E-03
6.421292E+03	1.825814E-01	2.285002E-03
6.431186E+03	1.882624E-01	2.407850E-03
6.441080E+03	1.941762E-01	2.537642E-03
6.450975E+03	2.002434E-01	2.673389E-03
6.460869E+03	2.063748E-01	2.813868E-03
6.470763E+03	2.124833E-01	2.957782E-03
6.480657E+03	2.184764E-01	3.103650E-03
6.490551E+03	2.242568E-01	3.249811E-03
6.500445E+03	2.297381E-01	3.394648E-03
6.510339E+03	2.348223E-01	3.536272E-03
6.520234E+03	2.394308E-01	3.672980E-03
6.530128E+03	2.434817E-01	3.802937E-03
6.540022E+03	2.469083E-01	3.924466E-03
6.549916E+03	2.496621E-01	4.036122E-03
6.559810E+03	2.517055E-01	4.136605E-03
6.569704E+03	2.530133E-01	4.224803E-03
6.579598E+03	2.535821E-01	4.299966E-03
6.589492E+03	2.534204E-01	4.361575E-03
6.599387E+03	2.525491E-01	4.409364E-03
6.609281E+03	2.510016E-01	4.443335E-03
6.619175E+03	2.488219E-01	4.463745E-03
6.629069E+03	2.460653E-01	4.471125E-03
6.638963E+03	2.427853E-01	4.466054E-03
6.648857E+03	2.390440E-01	4.449345E-03
6.658751E+03	2.349088E-01	4.421995E-03
6.668645E+03	2.304442E-01	4.385016E-03
6.678540E+03	2.257098E-01	4.339409E-03
6.688434E+03	2.207742E-01	4.286410E-03
6.698328E+03	2.156882E-01	4.226977E-03
6.708222E+03	2.105098E-01	4.162257E-03
6.718116E+03	2.052921E-01	4.093349E-03
6.728010E+03	2.000729E-01	4.021094E-03
6.737904E+03	1.948988E-01	3.946530E-03
6.747799E+03	1.898007E-01	3.870416E-03
6.757693E+03	1.848082E-01	3.793495E-03
6.767587E+03	1.799488E-01	3.716486E-03
6.777481E+03	1.752396E-01	3.639896E-03
6.787375E+03	1.706963E-01	3.564216E-03
6.797269E+03	1.663336E-01	3.489912E-03
6.807163E+03	1.621574E-01	3.417261E-03
6.817057E+03	1.581758E-01	3.346586E-03
6.826952E+03	1.543913E-01	3.278086E-03
6.836846E+03	1.508018E-01	3.211854E-03
6.846740E+03	1.474059E-01	3.147984E-03
6.856634E+03	1.442027E-01	3.086576E-03
6.866528E+03	1.411875E-01	3.027639E-03
6.876422E+03	1.383542E-01	2.971142E-03
6.886316E+03	1.356914E-01	2.916930E-03
6.896211E+03	1.331983E-01	2.865067E-03
6.906105E+03	1.308620E-01	2.815349E-03
6.915999E+03	1.286738E-01	2.767655E-03
6.925893E+03	1.266268E-01	2.721894E-03
6.935787E+03	1.247117E-01	2.677917E-03
6.945681E+03	1.229171E-01	2.635524E-03
6.955575E+03	1.212335E-01	2.594555E-03
6.965469E+03	1.196517E-01	2.554850E-03
6.975364E+03	1.181646E-01	2.516289E-03
6.985258E+03	1.167612E-01	2.478670E-03
6.995152E+03	1.154349E-01	2.441879E-03
7.005046E+03	1.141734E-01	2.405685E-03
7.014940E+03	1.129708E-01	2.369989E-03
7.024834E+03	1.118195E-01	2.334660E-03
7.034728E+03	1.107145E-01	2.299616E-03
7.044623E+03	1.096434E-01	2.264632E-03
7.054517E+03	1.086061E-01	2.229731E-03
7.064411E+03	1.075934E-01	2.194758E-03
7.074305E+03	1.066025E-01	2.159684E-03
7.084199E+03	1.056272E-01	2.124422E-03
7.094093E+03	1.046659E-01	2.088975E-03
7.103987E+03	1.037137E-01	2.053282E-03
7.113881E+03	1.027682E-01	2.017337E-03
7.123776E+03	1.018254E-01	1.981108E-03
7.133670E+03	1.008874E-01	1.944678E-03
7.143564E+03	9.995090E-02	1.908034E-03
7.153458E+03	9.901332E-02	1.871175E-03
7.163352E+03	9.807562E-02	1.834173E-03
7.173246E+03	9.713727E-02	1.797073E-03
7.183140E+03	9.619625E-02	1.759896E-03
7.193035E+03	9.525245E-02	1.722698E-03
7.202929E+03	9.430582E-02	1.685542E-03
7.212823E+03	9.335649E-02	1.648495E-03
7.222717E+03	9.240621E-02	1.611655E-03
7.232611E+03	9.145209E-02	1.575042E-03
7.242505E+03	9.049606E-02	1.538760E-03
7.252399E+03	8.953701E-02	1.502866E-03
7.262293E+03	8.857705E-02	1.467473E-03
7.272188E+03	8.761680E-02	1.432671E-03
7.282082E+03	8.665553E-02	1.398530E-03
7.291976E+03	8.569418E-02	1.365150E-03
7.301870E+03	8.473536E-02	1.332658E-03
7.311764E+03	8.377888E-02	1.301139E-03
7.321658E+03	8.282627E-02	1.270705E-03
7.331552E+03	8.187785E-02	1.241452E-03
7.341447E+03	8.093836E-02	1.213541E-03
7.351341E+03	8.000851E-02	1.187072E-03
7.361235E+03	7.909050E-02	1.162165E-03
7.371129E+03	7.818534E-02	1.138922E-03
7.381023E+03	7.729818E-02	1.117498E-03
7.390917E+03	7.642878E-02	1.097971E-03
7.400811E+03	7.558093E-02	1.080468E-03
7.410705E+03	7.475710E-02	1.065091E-03
7.420600E+03	7.395831E-02	1.051916E-03
7.430494E+03	7.318825E-02	1.041049E-03
7.440388E+03	7.244915E-02	1.032565E-03
7.450282E+03	7.174319E-02	1.026530E-03
7.460176E+03	7.107120E-02	1.022982E-03
7.470070E+03	7.043640E-02	1.021969E-03
7.479964E+03	6.984055E-02	1.023455E-03
7.489859E+03	6.928410E-02	1.027367E-03
7.499753E+03	6.877088E-02	1.033677E-03
7.509647E+03	6.829966E-02	1.042286E-03
7.519541E+03	6.787129E-02	1.053127E-03
7.529435E+03	6.748861E-02	1.066168E-03
7.539329E+03	6.714920E-02	1.081300E-03
7.549223E+03	6.685341E-02	1.098463E-03
7.559117E+03	6.659955E-02	1.117569E-03
7.569012E+03	6.638464E-02	1.138515E-03
7.578906E+03	6.620439E-02	1.161174E-03
7.588800E+03	6.605153E-02	1.185370E-03
7.598694E+03	6.591963E-02	1.210935E-03
7.608588E+03	6.579978E-02	1.237649E-03
7.618482E+03	6.568222E-02	1.265266E-03
7.628376E+03	6.555782E-02	1.293540E-03
7.638271E+03	6.542098E-02	1.322282E-03
7.648165E+03	6.526892E-02	1.351354E-03
7.658059E+03	6.510278E-02	1.380698E-03
7.667953E+03	6.492310E-02	1.410250E-03
7.677847E+03	6.473062E-02	1.439952E-03
