#wls	flux	fluxerr
1.583061E+03	5.940018E-02	7.629401E-03
1.622638E+03	6.080383E-02	7.709371E-03
1.662214E+03	6.213907E-02	7.774716E-03
1.701791E+03	6.343372E-02	7.829131E-03
1.741367E+03	6.466288E-02	7.869716E-03
1.780944E+03	6.581907E-02	7.895843E-03
1.820520E+03	6.691686E-02	7.909556E-03
1.860097E+03	6.793763E-02	7.908943E-03
1.899673E+03	6.887554E-02	7.893706E-03
1.939250E+03	6.973143E-02	7.864357E-03
1.978827E+03	7.053538E-02	7.824658E-03
2.018403E+03	7.132974E-02	7.779502E-03
2.057980E+03	7.223331E-02	7.741668E-03
2.097556E+03	7.340165E-02	7.726904E-03
2.137133E+03	7.497890E-02	7.748576E-03
2.176709E+03	7.707857E-02	7.815801E-03
2.216286E+03	7.968556E-02	7.923978E-03
2.255862E+03	8.275244E-02	8.065416E-03
2.295439E+03	8.620314E-02	8.230028E-03
2.335015E+03	9.002935E-02	8.414631E-03
2.374592E+03	9.420408E-02	8.614381E-03
2.414168E+03	9.878280E-02	8.832012E-03
2.453745E+03	1.037981E-01	9.067796E-03
2.493321E+03	1.093239E-01	9.325275E-03
2.532898E+03	1.154269E-01	9.606751E-03
2.572475E+03	1.221909E-01	9.915405E-03
2.612051E+03	1.296563E-01	1.025027E-02
2.651628E+03	1.378683E-01	1.061047E-02
2.691204E+03	1.468386E-01	1.099226E-02
2.730781E+03	1.565063E-01	1.138661E-02
2.770357E+03	1.668141E-01	1.178528E-02
2.809934E+03	1.776485E-01	1.217679E-02
2.849510E+03	1.888813E-01	1.254971E-02
2.889087E+03	2.002989E-01	1.288843E-02
2.928663E+03	2.117474E-01	1.318300E-02
2.968240E+03	2.229158E-01	1.341553E-02
2.978134E+03	2.256235E-01	1.346189E-02
2.988028E+03	2.283040E-01	1.350407E-02
2.997922E+03	2.309529E-01	1.354189E-02
3.007816E+03	2.335384E-01	1.357356E-02
3.017710E+03	2.360852E-01	1.360064E-02
3.027605E+03	2.385628E-01	1.362146E-02
3.037499E+03	2.409932E-01	1.363740E-02
3.047393E+03	2.433711E-01	1.364827E-02
3.057287E+03	2.456631E-01	1.365232E-02
3.067181E+03	2.478921E-01	1.365096E-02
3.077075E+03	2.500523E-01	1.364402E-02
3.086969E+03	2.521109E-01	1.362984E-02
3.096864E+03	2.540911E-01	1.360986E-02
3.106758E+03	2.559595E-01	1.358245E-02
3.116652E+03	2.577681E-01	1.355055E-02
3.126546E+03	2.594558E-01	1.351110E-02
3.136440E+03	2.610186E-01	1.346411E-02
3.146334E+03	2.624805E-01	1.341101E-02
3.156228E+03	2.638377E-01	1.335181E-02
3.166122E+03	2.650869E-01	1.328653E-02
3.176017E+03	2.662249E-01	1.321519E-02
3.185911E+03	2.672202E-01	1.313646E-02
3.195805E+03	2.680988E-01	1.305183E-02
3.205699E+03	2.688301E-01	1.296003E-02
3.215593E+03	2.694405E-01	1.286257E-02
3.225487E+03	2.699561E-01	1.276090E-02
3.235381E+03	2.702922E-01	1.265120E-02
3.245276E+03	2.705315E-01	1.253760E-02
3.255170E+03	2.706180E-01	1.241771E-02
3.265064E+03	2.706068E-01	1.229426E-02
3.274958E+03	2.704431E-01	1.216496E-02
3.284852E+03	2.701286E-01	1.203012E-02
3.294746E+03	2.697177E-01	1.189237E-02
3.304640E+03	2.691585E-01	1.174961E-02
3.314534E+03	2.684794E-01	1.160329E-02
3.324429E+03	2.676829E-01	1.145369E-02
3.334323E+03	2.667710E-01	1.130108E-02
3.344217E+03	2.657464E-01	1.114574E-02
3.354111E+03	2.645877E-01	1.098695E-02
3.364005E+03	2.633232E-01	1.082605E-02
3.373899E+03	2.619569E-01	1.066337E-02
3.383793E+03	2.604925E-01	1.049918E-02
3.393688E+03	2.589340E-01	1.033379E-02
3.403582E+03	2.572858E-01	1.016747E-02
3.413476E+03	2.555523E-01	1.000053E-02
3.423370E+03	2.537154E-01	9.832362E-03
3.433264E+03	2.518034E-01	9.664174E-03
3.443158E+03	2.498215E-01	9.496224E-03
3.453052E+03	2.477978E-01	9.329593E-03
3.462946E+03	2.456754E-01	9.162121E-03
3.472841E+03	2.435312E-01	8.996679E-03
3.482735E+03	2.413559E-01	8.832879E-03
3.492629E+03	2.391628E-01	8.671160E-03
3.502523E+03	2.369442E-01	8.511193E-03
3.512417E+03	2.347535E-01	8.354833E-03
3.522311E+03	2.325620E-01	8.200973E-03
3.532205E+03	2.304199E-01	8.051297E-03
3.542100E+03	2.282985E-01	7.904702E-03
3.551994E+03	2.262259E-01	7.762069E-03
3.561888E+03	2.242094E-01	7.623544E-03
3.571782E+03	2.222561E-01	7.489250E-03
3.581676E+03	2.203709E-01	7.359246E-03
3.591570E+03	2.185581E-01	7.233561E-03
3.601464E+03	2.168038E-01	7.111620E-03
3.611358E+03	2.151441E-01	6.994504E-03
3.621253E+03	2.135626E-01	6.881556E-03
3.631147E+03	2.120424E-01	6.772129E-03
3.641041E+03	2.106153E-01	6.667138E-03
3.650935E+03	2.092458E-01	6.565360E-03
3.660829E+03	2.079631E-01	6.467621E-03
3.670723E+03	2.067308E-01	6.372698E-03
3.680617E+03	2.055601E-01	6.280862E-03
3.690512E+03	2.044452E-01	6.191868E-03
3.700406E+03	2.033801E-01	6.105463E-03
3.710300E+03	2.023578E-01	6.021386E-03
3.720194E+03	2.013714E-01	5.939381E-03
3.730088E+03	2.003996E-01	5.858781E-03
3.739982E+03	1.994638E-01	5.780185E-03
3.749876E+03	1.985422E-01	5.702931E-03
3.759770E+03	1.976135E-01	5.626390E-03
3.769665E+03	1.966846E-01	5.550763E-03
3.779559E+03	1.957485E-01	5.475849E-03
3.789453E+03	1.947982E-01	5.401462E-03
3.799347E+03	1.938272E-01	5.327432E-03
3.809241E+03	1.928292E-01	5.253610E-03
3.819135E+03	1.917856E-01	5.179516E-03
3.829029E+03	1.907169E-01	5.105746E-03
3.838924E+03	1.895930E-01	5.031526E-03
3.848818E+03	1.884229E-01	4.957142E-03
3.858712E+03	1.872034E-01	4.882561E-03
3.868606E+03	1.859202E-01	4.807461E-03
3.878500E+03	1.845842E-01	4.732185E-03
3.888394E+03	1.832068E-01	4.657070E-03
3.898288E+03	1.817533E-01	4.581296E-03
3.908182E+03	1.802601E-01	4.505841E-03
3.918077E+03	1.787068E-01	4.430244E-03
3.927971E+03	1.771078E-01	4.354921E-03
3.937865E+03	1.754669E-01	4.280018E-03
3.947759E+03	1.737779E-01	4.205435E-03
3.957653E+03	1.720568E-01	4.131602E-03
3.967547E+03	1.703089E-01	4.058691E-03
3.977441E+03	1.685296E-01	3.986634E-03
3.987336E+03	1.667351E-01	3.915849E-03
3.997230E+03	1.649215E-01	3.846277E-03
4.007124E+03	1.631046E-01	3.778312E-03
4.017018E+03	1.612804E-01	3.711889E-03
4.026912E+03	1.594641E-01	3.647375E-03
4.036806E+03	1.576606E-01	3.584898E-03
4.046700E+03	1.558660E-01	3.524380E-03
4.056594E+03	1.540854E-01	3.465947E-03
4.066489E+03	1.523321E-01	3.409904E-03
4.076383E+03	1.506020E-01	3.356162E-03
4.086277E+03	1.489079E-01	3.305005E-03
4.096171E+03	1.472378E-01	3.256162E-03
4.106065E+03	1.456200E-01	3.210255E-03
4.115959E+03	1.440345E-01	3.166835E-03
4.125853E+03	1.425008E-01	3.126318E-03
4.135748E+03	1.410144E-01	3.088595E-03
4.145642E+03	1.395782E-01	3.053713E-03
4.155536E+03	1.382015E-01	3.021859E-03
4.165430E+03	1.368708E-01	2.992715E-03
4.175324E+03	1.356006E-01	2.966506E-03
4.185218E+03	1.343823E-01	2.942935E-03
4.195112E+03	1.332133E-01	2.921834E-03
4.205006E+03	1.320829E-01	2.902863E-03
4.214901E+03	1.309990E-01	2.886092E-03
4.224795E+03	1.299480E-01	2.871122E-03
4.234689E+03	1.289219E-01	2.857678E-03
4.244583E+03	1.279120E-01	2.845472E-03
4.254477E+03	1.269094E-01	2.834205E-03
4.264371E+03	1.258990E-01	2.823450E-03
4.274265E+03	1.248854E-01	2.813213E-03
4.284159E+03	1.238500E-01	2.802981E-03
4.294054E+03	1.227937E-01	2.792682E-03
4.303948E+03	1.217129E-01	2.782140E-03
4.313842E+03	1.205994E-01	2.771077E-03
4.323736E+03	1.194579E-01	2.759516E-03
4.333630E+03	1.182887E-01	2.747377E-03
4.343524E+03	1.170880E-01	2.734492E-03
4.353418E+03	1.158641E-01	2.720979E-03
4.363313E+03	1.146209E-01	2.706858E-03
4.373207E+03	1.133580E-01	2.692054E-03
4.383101E+03	1.120861E-01	2.676762E-03
4.392995E+03	1.108061E-01	2.660949E-03
4.402889E+03	1.095290E-01	2.644835E-03
4.412783E+03	1.082562E-01	2.628409E-03
4.422677E+03	1.069937E-01	2.611783E-03
4.432571E+03	1.057519E-01	2.595183E-03
4.442466E+03	1.045314E-01	2.578600E-03
4.452360E+03	1.033371E-01	2.562136E-03
4.462254E+03	1.021779E-01	2.545996E-03
4.472148E+03	1.010532E-01	2.530156E-03
4.482042E+03	9.996634E-02	2.514696E-03
4.491936E+03	9.892475E-02	2.499796E-03
4.501830E+03	9.792258E-02	2.485310E-03
4.511725E+03	9.697049E-02	2.471507E-03
4.521619E+03	9.606628E-02	2.458337E-03
4.531513E+03	9.521163E-02	2.445847E-03
4.541407E+03	9.441190E-02	2.434180E-03
4.551301E+03	9.366035E-02	2.423170E-03
4.561195E+03	9.296188E-02	2.412949E-03
4.571089E+03	9.231715E-02	2.403543E-03
4.580983E+03	9.173042E-02	2.395068E-03
4.590878E+03	9.119440E-02	2.387342E-03
4.600772E+03	9.071655E-02	2.380565E-03
4.610666E+03	9.028929E-02	2.374547E-03
4.620560E+03	8.991594E-02	2.369376E-03
4.630454E+03	8.959937E-02	2.365135E-03
4.640348E+03	8.933155E-02	2.361612E-03
4.650242E+03	8.911496E-02	2.358876E-03
4.660137E+03	8.894816E-02	2.356889E-03
4.670031E+03	8.882953E-02	2.355607E-03
4.679925E+03	8.875368E-02	2.354884E-03
4.689819E+03	8.872539E-02	2.354845E-03
4.699713E+03	8.873526E-02	2.355236E-03
4.709607E+03	8.878744E-02	2.356161E-03
4.719501E+03	8.887206E-02	2.357353E-03
4.729395E+03	8.898585E-02	2.358718E-03
4.739290E+03	8.913218E-02	2.360337E-03
4.749184E+03	8.930385E-02	2.362012E-03
4.759078E+03	8.949358E-02	2.363542E-03
4.768972E+03	8.970074E-02	2.364903E-03
4.778866E+03	8.992122E-02	2.365979E-03
4.788760E+03	9.014755E-02	2.366567E-03
4.798654E+03	9.038247E-02	2.366733E-03
4.808549E+03	9.061533E-02	2.366192E-03
4.818443E+03	9.084589E-02	2.364936E-03
4.828337E+03	9.107092E-02	2.362878E-03
4.838231E+03	9.128415E-02	2.359856E-03
4.848125E+03	9.148661E-02	2.355898E-03
4.858019E+03	9.167645E-02	2.350959E-03
4.867913E+03	9.185246E-02	2.345013E-03
4.877807E+03	9.201056E-02	2.337963E-03
4.887702E+03	9.215414E-02	2.329902E-03
4.897596E+03	9.228368E-02	2.320853E-03
4.907490E+03	9.240026E-02	2.310852E-03
4.917384E+03	9.250213E-02	2.299866E-03
4.927278E+03	9.259463E-02	2.288041E-03
4.937172E+03	9.268012E-02	2.275445E-03
4.947066E+03	9.276121E-02	2.262155E-03
4.956961E+03	9.283747E-02	2.248171E-03
4.966855E+03	9.291852E-02	2.233737E-03
4.976749E+03	9.300083E-02	2.218778E-03
4.986643E+03	9.308754E-02	2.203378E-03
4.996537E+03	9.318840E-02	2.187777E-03
5.006431E+03	9.329987E-02	2.171899E-03
5.016325E+03	9.342826E-02	2.155896E-03
5.026219E+03	9.357647E-02	2.139840E-03
5.036114E+03	9.374392E-02	2.123722E-03
5.046008E+03	9.393978E-02	2.107752E-03
5.055902E+03	9.415978E-02	2.091837E-03
5.065796E+03	9.440936E-02	2.076097E-03
5.075690E+03	9.469034E-02	2.060575E-03
5.085584E+03	9.500095E-02	2.045231E-03
5.095478E+03	9.534894E-02	2.030235E-03
5.105373E+03	9.572850E-02	2.015461E-03
5.115267E+03	9.614335E-02	2.000992E-03
5.125161E+03	9.659340E-02	1.986830E-03
5.135055E+03	9.707821E-02	1.972971E-03
5.144949E+03	9.759346E-02	1.959335E-03
5.154843E+03	9.814113E-02	1.945976E-03
5.164737E+03	9.872275E-02	1.932938E-03
5.174631E+03	9.932929E-02	1.920064E-03
5.184526E+03	9.996138E-02	1.907393E-03
5.194420E+03	1.006159E-01	1.894895E-03
5.204314E+03	1.012857E-01	1.882476E-03
5.214208E+03	1.019737E-01	1.870231E-03
5.224102E+03	1.026718E-01	1.858065E-03
5.233996E+03	1.033715E-01	1.845882E-03
5.243890E+03	1.040706E-01	1.833713E-03
5.253785E+03	1.047665E-01	1.821586E-03
5.263679E+03	1.054451E-01	1.809345E-03
5.273573E+03	1.061027E-01	1.797017E-03
5.283467E+03	1.067311E-01	1.784568E-03
5.293361E+03	1.073215E-01	1.771963E-03
5.303255E+03	1.078647E-01	1.759168E-03
5.313149E+03	1.083509E-01	1.746151E-03
5.323043E+03	1.087700E-01	1.732881E-03
5.332938E+03	1.091121E-01	1.719337E-03
5.342832E+03	1.093678E-01	1.705508E-03
5.352726E+03	1.095291E-01	1.691405E-03
5.362620E+03	1.095865E-01	1.677019E-03
5.372514E+03	1.095466E-01	1.662577E-03
5.382408E+03	1.094112E-01	1.648216E-03
5.392302E+03	1.091889E-01	1.634167E-03
5.402196E+03	1.088904E-01	1.620673E-03
5.412091E+03	1.085270E-01	1.607967E-03
5.421985E+03	1.081103E-01	1.596211E-03
5.431879E+03	1.076553E-01	1.585538E-03
5.441773E+03	1.071655E-01	1.575898E-03
5.451667E+03	1.066547E-01	1.567387E-03
5.461561E+03	1.061356E-01	1.560079E-03
5.471455E+03	1.056098E-01	1.553880E-03
5.481350E+03	1.050921E-01	1.548892E-03
5.491244E+03	1.045859E-01	1.545050E-03
5.501138E+03	1.040975E-01	1.542335E-03
5.511032E+03	1.036327E-01	1.540722E-03
5.520926E+03	1.031964E-01	1.540182E-03
5.530820E+03	1.027934E-01	1.540684E-03
5.540714E+03	1.024310E-01	1.542249E-03
5.550608E+03	1.021097E-01	1.544793E-03
5.560503E+03	1.018327E-01	1.548285E-03
5.570397E+03	1.016031E-01	1.552695E-03
5.580291E+03	1.014237E-01	1.557993E-03
5.590185E+03	1.013003E-01	1.564205E-03
5.600079E+03	1.012316E-01	1.571253E-03
5.609973E+03	1.012197E-01	1.579109E-03
5.619867E+03	1.012662E-01	1.587748E-03
5.629762E+03	1.013761E-01	1.597199E-03
5.639656E+03	1.015470E-01	1.607380E-03
5.649550E+03	1.017800E-01	1.618264E-03
5.659444E+03	1.020792E-01	1.629874E-03
5.669338E+03	1.024380E-01	1.642070E-03
5.679232E+03	1.028671E-01	1.654979E-03
5.689126E+03	1.033560E-01	1.668397E-03
5.699020E+03	1.039113E-01	1.682395E-03
5.708915E+03	1.045291E-01	1.696870E-03
5.718809E+03	1.052122E-01	1.711832E-03
5.728703E+03	1.059527E-01	1.727114E-03
5.738597E+03	1.067603E-01	1.742835E-03
5.748491E+03	1.076234E-01	1.758768E-03
5.758385E+03	1.085519E-01	1.775033E-03
5.768279E+03	1.095340E-01	1.791397E-03
5.778174E+03	1.105761E-01	1.807925E-03
5.788068E+03	1.116742E-01	1.824504E-03
5.797962E+03	1.128315E-01	1.841148E-03
5.807856E+03	1.140482E-01	1.857812E-03
5.817750E+03	1.153169E-01	1.874332E-03
5.827644E+03	1.166502E-01	1.890865E-03
5.837538E+03	1.180378E-01	1.907196E-03
5.847432E+03	1.194894E-01	1.923435E-03
5.857327E+03	1.210078E-01	1.939574E-03
5.867221E+03	1.225921E-01	1.955550E-03
5.877115E+03	1.242504E-01	1.971438E-03
5.887009E+03	1.259833E-01	1.987193E-03
5.896903E+03	1.278002E-01	2.002907E-03
5.906797E+03	1.297029E-01	2.018547E-03
5.916691E+03	1.317023E-01	2.034221E-03
5.926586E+03	1.338052E-01	2.049973E-03
5.936480E+03	1.360146E-01	2.065776E-03
5.946374E+03	1.383375E-01	2.081671E-03
5.956268E+03	1.407908E-01	2.097836E-03
5.966162E+03	1.433670E-01	2.114088E-03
5.976056E+03	1.460869E-01	2.130654E-03
5.985950E+03	1.489460E-01	2.147392E-03
5.995844E+03	1.519480E-01	2.164281E-03
6.005739E+03	1.551053E-01	2.181423E-03
6.015633E+03	1.584070E-01	2.198598E-03
6.025527E+03	1.618498E-01	2.215702E-03
6.035421E+03	1.654319E-01	2.232668E-03
6.045315E+03	1.691423E-01	2.249317E-03
6.055209E+03	1.729650E-01	2.265431E-03
6.065103E+03	1.768718E-01	2.280667E-03
6.074998E+03	1.808402E-01	2.294796E-03
6.084892E+03	1.848281E-01	2.307392E-03
6.094786E+03	1.888048E-01	2.318226E-03
6.104680E+03	1.927059E-01	2.326723E-03
6.114574E+03	1.964781E-01	2.332523E-03
6.124468E+03	2.000470E-01	2.335099E-03
6.134362E+03	2.033451E-01	2.334093E-03
6.144256E+03	2.062930E-01	2.329099E-03
6.154151E+03	2.088089E-01	2.319768E-03
6.164045E+03	2.108047E-01	2.305762E-03
6.173939E+03	2.122126E-01	2.287026E-03
6.183833E+03	2.129700E-01	2.263597E-03
6.193727E+03	2.130341E-01	2.235731E-03
6.203621E+03	2.123921E-01	2.203969E-03
6.213515E+03	2.110680E-01	2.169172E-03
6.223410E+03	2.091613E-01	2.132874E-03
6.233304E+03	2.068020E-01	2.096788E-03
6.243198E+03	2.041356E-01	2.062656E-03
6.253092E+03	2.013085E-01	2.032113E-03
6.262986E+03	1.984513E-01	2.006541E-03
6.272880E+03	1.956928E-01	1.987208E-03
6.282774E+03	1.931354E-01	1.974858E-03
6.292668E+03	1.908615E-01	1.969953E-03
6.302563E+03	1.889335E-01	1.972793E-03
6.312457E+03	1.873953E-01	1.983545E-03
6.322351E+03	1.862752E-01	2.002270E-03
6.332245E+03	1.855808E-01	2.028876E-03
6.342139E+03	1.853278E-01	2.063413E-03
6.352033E+03	1.854964E-01	2.105592E-03
6.361927E+03	1.860781E-01	2.155287E-03
6.371822E+03	1.870511E-01	2.212249E-03
6.381716E+03	1.883944E-01	2.276255E-03
6.391610E+03	1.900619E-01	2.346783E-03
6.401504E+03	1.920226E-01	2.423482E-03
6.411398E+03	1.942278E-01	2.505759E-03
6.421292E+03	1.966458E-01	2.593206E-03
6.431186E+03	1.992209E-01	2.685075E-03
6.441080E+03	2.019019E-01	2.780619E-03
6.450975E+03	2.046358E-01	2.879015E-03
6.460869E+03	2.073680E-01	2.979362E-03
6.470763E+03	2.100441E-01	3.080699E-03
6.480657E+03	2.126024E-01	3.181896E-03
6.490551E+03	2.150052E-01	3.282123E-03
6.500445E+03	2.171951E-01	3.380197E-03
6.510339E+03	2.191251E-01	3.475045E-03
6.520234E+03	2.207530E-01	3.565619E-03
6.530128E+03	2.220418E-01	3.650920E-03
6.540022E+03	2.229606E-01	3.730016E-03
6.549916E+03	2.234854E-01	3.802074E-03
6.559810E+03	2.235995E-01	3.866369E-03
6.569704E+03	2.232934E-01	3.922309E-03
6.579598E+03	2.225731E-01	3.969580E-03
6.589492E+03	2.214278E-01	4.007585E-03
6.599387E+03	2.198769E-01	4.036299E-03
6.609281E+03	2.179457E-01	4.055842E-03
6.619175E+03	2.156489E-01	4.066179E-03
6.629069E+03	2.130055E-01	4.067393E-03
6.638963E+03	2.100612E-01	4.060120E-03
6.648857E+03	2.068409E-01	4.044650E-03
6.658751E+03	2.033789E-01	4.021502E-03
6.668645E+03	1.997104E-01	3.991255E-03
6.678540E+03	1.958781E-01	3.954684E-03
6.688434E+03	1.919023E-01	3.912157E-03
6.698328E+03	1.878310E-01	3.864640E-03
6.708222E+03	1.836827E-01	3.812528E-03
6.718116E+03	1.795012E-01	3.756775E-03
6.728010E+03	1.753079E-01	3.697891E-03
6.737904E+03	1.711285E-01	3.636501E-03
6.747799E+03	1.669861E-01	3.573191E-03
6.757693E+03	1.629074E-01	3.508640E-03
6.767587E+03	1.588981E-01	3.443088E-03
6.777481E+03	1.549854E-01	3.377246E-03
6.787375E+03	1.511762E-01	3.311390E-03
6.797269E+03	1.474812E-01	3.245879E-03
6.807163E+03	1.439086E-01	3.181022E-03
6.817057E+03	1.404648E-01	3.117083E-03
6.826952E+03	1.371545E-01	3.054282E-03
6.836846E+03	1.339854E-01	2.992910E-03
6.846740E+03	1.309489E-01	2.932882E-03
6.856634E+03	1.280550E-01	2.874526E-03
6.866528E+03	1.252977E-01	2.817805E-03
6.876422E+03	1.226751E-01	2.762765E-03
6.886316E+03	1.201842E-01	2.709425E-03
6.896211E+03	1.178260E-01	2.657883E-03
6.906105E+03	1.155876E-01	2.607917E-03
6.915999E+03	1.134731E-01	2.559686E-03
6.925893E+03	1.114690E-01	2.512946E-03
6.935787E+03	1.095786E-01	2.467820E-03
6.945681E+03	1.077923E-01	2.424140E-03
6.955575E+03	1.061045E-01	2.381827E-03
6.965469E+03	1.045098E-01	2.340795E-03
6.975364E+03	1.030025E-01	2.300955E-03
6.985258E+03	1.015810E-01	2.262300E-03
6.995152E+03	1.002321E-01	2.224568E-03
7.005046E+03	9.895452E-02	2.187755E-03
7.014940E+03	9.774676E-02	2.151855E-03
7.024834E+03	9.659644E-02	2.116618E-03
7.034728E+03	9.550623E-02	2.082125E-03
7.044623E+03	9.446796E-02	2.048220E-03
7.054517E+03	9.347743E-02	2.014832E-03
7.064411E+03	9.252715E-02	1.981822E-03
7.074305E+03	9.162053E-02	1.949286E-03
7.084199E+03	9.075063E-02	1.917097E-03
7.094093E+03	8.991433E-02	1.885212E-03
7.103987E+03	8.910876E-02	1.853594E-03
7.113881E+03	8.832799E-02	1.822146E-03
7.123776E+03	8.757639E-02	1.790985E-03
7.133670E+03	8.684849E-02	1.760026E-03
7.143564E+03	8.614233E-02	1.729258E-03
7.153458E+03	8.545626E-02	1.698679E-03
7.163352E+03	8.478547E-02	1.668228E-03
7.173246E+03	8.413515E-02	1.638042E-03
7.183140E+03	8.349765E-02	1.608009E-03
7.193035E+03	8.287833E-02	1.578274E-03
7.202929E+03	8.226994E-02	1.548740E-03
7.212823E+03	8.167802E-02	1.519557E-03
7.222717E+03	8.109567E-02	1.490644E-03
7.232611E+03	8.052548E-02	1.462102E-03
7.242505E+03	7.996714E-02	1.433979E-03
7.252399E+03	7.942028E-02	1.406326E-03
7.262293E+03	7.888178E-02	1.379151E-03
7.272188E+03	7.835768E-02	1.352624E-03
7.282082E+03	7.784201E-02	1.326710E-03
7.291976E+03	7.734101E-02	1.301590E-03
7.301870E+03	7.684903E-02	1.277243E-03
7.311764E+03	7.636953E-02	1.253808E-03
7.321658E+03	7.590010E-02	1.231332E-03
7.331552E+03	7.544741E-02	1.210009E-03
7.341447E+03	7.500628E-02	1.189847E-03
7.351341E+03	7.458054E-02	1.171002E-03
7.361235E+03	7.417114E-02	1.153586E-03
7.371129E+03	7.377612E-02	1.137665E-03
7.381023E+03	7.340230E-02	1.123446E-03
7.390917E+03	7.304483E-02	1.110953E-03
7.400811E+03	7.270477E-02	1.100302E-03
7.410705E+03	7.238865E-02	1.091689E-03
7.420600E+03	7.209160E-02	1.085134E-03
7.430494E+03	7.181713E-02	1.080779E-03
7.440388E+03	7.156575E-02	1.078715E-03
7.450282E+03	7.133494E-02	1.078980E-03
7.460176E+03	7.112762E-02	1.081684E-03
7.470070E+03	7.094358E-02	1.086880E-03
7.479964E+03	7.077951E-02	1.094504E-03
7.489859E+03	7.063727E-02	1.104539E-03
7.499753E+03	7.051552E-02	1.116907E-03
7.509647E+03	7.040956E-02	1.131469E-03
7.519541E+03	7.031968E-02	1.148162E-03
7.529435E+03	7.023989E-02	1.166813E-03
7.539329E+03	7.017180E-02	1.187368E-03
7.549223E+03	7.010218E-02	1.209521E-03
7.559117E+03	7.003364E-02	1.233225E-03
7.569012E+03	6.995392E-02	1.258169E-03
7.578906E+03	6.985546E-02	1.284111E-03
7.588800E+03	6.973567E-02	1.310891E-03
7.598694E+03	6.957744E-02	1.338065E-03
7.608588E+03	6.938052E-02	1.365494E-03
7.618482E+03	6.913148E-02	1.392769E-03
7.628376E+03	6.882420E-02	1.419611E-03
7.638271E+03	6.845953E-02	1.445875E-03
7.648165E+03	6.803977E-02	1.471447E-03
7.658059E+03	6.756655E-02	1.496207E-03
7.667953E+03	6.704814E-02	1.520189E-03
7.677847E+03	6.648773E-02	1.543326E-03
