#wls	flux	fluxerr
1.583061E+03	5.952854E-02	7.515204E-03
1.622638E+03	6.096374E-02	7.596482E-03
1.662214E+03	6.234980E-02	7.665578E-03
1.701791E+03	6.367065E-02	7.720701E-03
1.741367E+03	6.494310E-02	7.764113E-03
1.780944E+03	6.613653E-02	7.792380E-03
1.820520E+03	6.726417E-02	7.807387E-03
1.860097E+03	6.830603E-02	7.807141E-03
1.899673E+03	6.926694E-02	7.792593E-03
1.939250E+03	7.014760E-02	7.764227E-03
1.978827E+03	7.095514E-02	7.723227E-03
2.018403E+03	7.175635E-02	7.677129E-03
2.057980E+03	7.267217E-02	7.638669E-03
2.097556E+03	7.384855E-02	7.622255E-03
2.137133E+03	7.544267E-02	7.642309E-03
2.176709E+03	7.755667E-02	7.706548E-03
2.216286E+03	8.020036E-02	7.812854E-03
2.255862E+03	8.330162E-02	7.951154E-03
2.295439E+03	8.679525E-02	8.112549E-03
2.335015E+03	9.065660E-02	8.292333E-03
2.374592E+03	9.489745E-02	8.489230E-03
2.414168E+03	9.953056E-02	8.701941E-03
2.453745E+03	1.046021E-01	8.931907E-03
2.493321E+03	1.102036E-01	9.183967E-03
2.532898E+03	1.164077E-01	9.460661E-03
2.572475E+03	1.232897E-01	9.764157E-03
2.612051E+03	1.309152E-01	1.009525E-02
2.651628E+03	1.393128E-01	1.045142E-02
2.691204E+03	1.485247E-01	1.083097E-02
2.730781E+03	1.584630E-01	1.122268E-02
2.770357E+03	1.690794E-01	1.161881E-02
2.809934E+03	1.802256E-01	1.200548E-02
2.849510E+03	1.918001E-01	1.237317E-02
2.889087E+03	2.035709E-01	1.270525E-02
2.928663E+03	2.153079E-01	1.298730E-02
2.968240E+03	2.267159E-01	1.320328E-02
2.978134E+03	2.295009E-01	1.324642E-02
2.988028E+03	2.322201E-01	1.328311E-02
2.997922E+03	2.348939E-01	1.331463E-02
3.007816E+03	2.375433E-01	1.334224E-02
3.017710E+03	2.401126E-01	1.336292E-02
3.027605E+03	2.426245E-01	1.337805E-02
3.037499E+03	2.450462E-01	1.338597E-02
3.047393E+03	2.474247E-01	1.338937E-02
3.057287E+03	2.497268E-01	1.338657E-02
3.067181E+03	2.519470E-01	1.337742E-02
3.077075E+03	2.540525E-01	1.336035E-02
3.086969E+03	2.560909E-01	1.333804E-02
3.096864E+03	2.580296E-01	1.330894E-02
3.106758E+03	2.598635E-01	1.327297E-02
3.116652E+03	2.615602E-01	1.322868E-02
3.126546E+03	2.631686E-01	1.317876E-02
3.136440E+03	2.646571E-01	1.312179E-02
3.146334E+03	2.660212E-01	1.305777E-02
3.156228E+03	2.672568E-01	1.298672E-02
3.166122E+03	2.683604E-01	1.290869E-02
3.176017E+03	2.693284E-01	1.282374E-02
3.185911E+03	2.701843E-01	1.273321E-02
3.195805E+03	2.708731E-01	1.263471E-02
3.205699E+03	2.714450E-01	1.253086E-02
3.215593E+03	2.718725E-01	1.242057E-02
3.225487E+03	2.721542E-01	1.230405E-02
3.235381E+03	2.722900E-01	1.218152E-02
3.245276E+03	2.723052E-01	1.205433E-02
3.255170E+03	2.721745E-01	1.192158E-02
3.265064E+03	2.718992E-01	1.178356E-02
3.274958E+03	2.714810E-01	1.164056E-02
3.284852E+03	2.709469E-01	1.149396E-02
3.294746E+03	2.702745E-01	1.134301E-02
3.304640E+03	2.694671E-01	1.118805E-02
3.314534E+03	2.685526E-01	1.103043E-02
3.324429E+03	2.675113E-01	1.086952E-02
3.334323E+03	2.663479E-01	1.070569E-02
3.344217E+03	2.650910E-01	1.054026E-02
3.354111E+03	2.637228E-01	1.037267E-02
3.364005E+03	2.622720E-01	1.020420E-02
3.373899E+03	2.607227E-01	1.003435E-02
3.383793E+03	2.591035E-01	9.864334E-03
3.393688E+03	2.573996E-01	9.693707E-03
3.403582E+03	2.556189E-01	9.522871E-03
3.413476E+03	2.537896E-01	9.352967E-03
3.423370E+03	2.519187E-01	9.184302E-03
3.433264E+03	2.499924E-01	9.016439E-03
3.443158E+03	2.480376E-01	8.850382E-03
3.453052E+03	2.460415E-01	8.685655E-03
3.462946E+03	2.440322E-01	8.523209E-03
3.472841E+03	2.420011E-01	8.362683E-03
3.482735E+03	2.399786E-01	8.205066E-03
3.492629E+03	2.379754E-01	8.050643E-03
3.502523E+03	2.359850E-01	7.899099E-03
3.512417E+03	2.340359E-01	7.751296E-03
3.522311E+03	2.321201E-01	7.606865E-03
3.532205E+03	2.302808E-01	7.467102E-03
3.542100E+03	2.284920E-01	7.331034E-03
3.551994E+03	2.267610E-01	7.198782E-03
3.561888E+03	2.251261E-01	7.071434E-03
3.571782E+03	2.235603E-01	6.947995E-03
3.581676E+03	2.220828E-01	6.828944E-03
3.591570E+03	2.206970E-01	6.714240E-03
3.601464E+03	2.193894E-01	6.603345E-03
3.611358E+03	2.181761E-01	6.496620E-03
3.621253E+03	2.170563E-01	6.393910E-03
3.631147E+03	2.160282E-01	6.295031E-03
3.641041E+03	2.150881E-01	6.199755E-03
3.650935E+03	2.142172E-01	6.107436E-03
3.660829E+03	2.134235E-01	6.018197E-03
3.670723E+03	2.126995E-01	5.931735E-03
3.680617E+03	2.120365E-01	5.847715E-03
3.690512E+03	2.114251E-01	5.765807E-03
3.700406E+03	2.108558E-01	5.685685E-03
3.710300E+03	2.103060E-01	5.606692E-03
3.720194E+03	2.097784E-01	5.528869E-03
3.730088E+03	2.092758E-01	5.452254E-03
3.739982E+03	2.087505E-01	5.375589E-03
3.749876E+03	2.082309E-01	5.299609E-03
3.759770E+03	2.076944E-01	5.223744E-03
3.769665E+03	2.071203E-01	5.147488E-03
3.779559E+03	2.065235E-01	5.071248E-03
3.789453E+03	2.058715E-01	4.994261E-03
3.799347E+03	2.051674E-01	4.916660E-03
3.809241E+03	2.044033E-01	4.838318E-03
3.819135E+03	2.035598E-01	4.758851E-03
3.829029E+03	2.026526E-01	4.678709E-03
3.838924E+03	2.016528E-01	4.597311E-03
3.848818E+03	2.005662E-01	4.514899E-03
3.858712E+03	1.993889E-01	4.431486E-03
3.868606E+03	1.981073E-01	4.346887E-03
3.878500E+03	1.967310E-01	4.261433E-03
3.888394E+03	1.952599E-01	4.175243E-03
3.898288E+03	1.936956E-01	4.088469E-03
3.908182E+03	1.920318E-01	4.001105E-03
3.918077E+03	1.902829E-01	3.913571E-03
3.927971E+03	1.884546E-01	3.826104E-03
3.937865E+03	1.865451E-01	3.738781E-03
3.947759E+03	1.845719E-01	3.652064E-03
3.957653E+03	1.825349E-01	3.566057E-03
3.967547E+03	1.804527E-01	3.481217E-03
3.977441E+03	1.783266E-01	3.397659E-03
3.987336E+03	1.761751E-01	3.315818E-03
3.997230E+03	1.739998E-01	3.235800E-03
4.007124E+03	1.718105E-01	3.157856E-03
4.017018E+03	1.696242E-01	3.082354E-03
4.026912E+03	1.674484E-01	3.009483E-03
4.036806E+03	1.652752E-01	2.939147E-03
4.046700E+03	1.631259E-01	2.871767E-03
4.056594E+03	1.609914E-01	2.807216E-03
4.066489E+03	1.588908E-01	2.745860E-03
4.076383E+03	1.568220E-01	2.687682E-03
4.086277E+03	1.547903E-01	2.632793E-03
4.096171E+03	1.528016E-01	2.581302E-03
4.106065E+03	1.508623E-01	2.533324E-03
4.115959E+03	1.489797E-01	2.488977E-03
4.125853E+03	1.471556E-01	2.448284E-03
4.135748E+03	1.454099E-01	2.411563E-03
4.145642E+03	1.437389E-01	2.378728E-03
4.155536E+03	1.421502E-01	2.349882E-03
4.165430E+03	1.406613E-01	2.325280E-03
4.175324E+03	1.392598E-01	2.304607E-03
4.185218E+03	1.379591E-01	2.287913E-03
4.195112E+03	1.367586E-01	2.275028E-03
4.205006E+03	1.356496E-01	2.265647E-03
4.214901E+03	1.346257E-01	2.259515E-03
4.224795E+03	1.336773E-01	2.256323E-03
4.234689E+03	1.327959E-01	2.255789E-03
4.244583E+03	1.319553E-01	2.257329E-03
4.254477E+03	1.311461E-01	2.260645E-03
4.264371E+03	1.303383E-01	2.265077E-03
4.274265E+03	1.295189E-01	2.270257E-03
4.284159E+03	1.286754E-01	2.275820E-03
4.294054E+03	1.277971E-01	2.281431E-03
4.303948E+03	1.268704E-01	2.286696E-03
4.313842E+03	1.258927E-01	2.291425E-03
4.323736E+03	1.248605E-01	2.295405E-03
4.333630E+03	1.237643E-01	2.298325E-03
4.343524E+03	1.226191E-01	2.300324E-03
4.353418E+03	1.214176E-01	2.301138E-03
4.363313E+03	1.201753E-01	2.300944E-03
4.373207E+03	1.188973E-01	2.299731E-03
4.383101E+03	1.175937E-01	2.297600E-03
4.392995E+03	1.162715E-01	2.294605E-03
4.402889E+03	1.149490E-01	2.291037E-03
4.412783E+03	1.136323E-01	2.286960E-03
4.422677E+03	1.123306E-01	2.282516E-03
4.432571E+03	1.110484E-01	2.277757E-03
4.442466E+03	1.097959E-01	2.272868E-03
4.452360E+03	1.085786E-01	2.267946E-03
4.462254E+03	1.073978E-01	2.263005E-03
4.472148E+03	1.062609E-01	2.258194E-03
4.482042E+03	1.051710E-01	2.253582E-03
4.491936E+03	1.041246E-01	2.249095E-03
4.501830E+03	1.031338E-01	2.245002E-03
4.511725E+03	1.021912E-01	2.241154E-03
4.521619E+03	1.013049E-01	2.237739E-03
4.531513E+03	1.004736E-01	2.234742E-03
4.541407E+03	9.969859E-02	2.232210E-03
4.551301E+03	9.898127E-02	2.230189E-03
4.561195E+03	9.832264E-02	2.228719E-03
4.571089E+03	9.772646E-02	2.227902E-03
4.580983E+03	9.718764E-02	2.227640E-03
4.590878E+03	9.670949E-02	2.228024E-03
4.600772E+03	9.629502E-02	2.229141E-03
4.610666E+03	9.593869E-02	2.230876E-03
4.620560E+03	9.564299E-02	2.233302E-03
4.630454E+03	9.540743E-02	2.236418E-03
4.640348E+03	9.523122E-02	2.240216E-03
4.650242E+03	9.511058E-02	2.244617E-03
4.660137E+03	9.504941E-02	2.249719E-03
4.670031E+03	9.504067E-02	2.255360E-03
4.679925E+03	9.508486E-02	2.261555E-03
4.689819E+03	9.517684E-02	2.268182E-03
4.699713E+03	9.531888E-02	2.275295E-03
4.709607E+03	9.550241E-02	2.282687E-03
4.719501E+03	9.572357E-02	2.290259E-03
4.729395E+03	9.598324E-02	2.298028E-03
4.739290E+03	9.627136E-02	2.305745E-03
4.749184E+03	9.658267E-02	2.313275E-03
4.759078E+03	9.691660E-02	2.320597E-03
4.768972E+03	9.726189E-02	2.327431E-03
4.778866E+03	9.761471E-02	2.333677E-03
4.788760E+03	9.796588E-02	2.339107E-03
4.798654E+03	9.831126E-02	2.343615E-03
4.808549E+03	9.864420E-02	2.347037E-03
4.818443E+03	9.895594E-02	2.349160E-03
4.828337E+03	9.924347E-02	2.349914E-03
4.838231E+03	9.950202E-02	2.349185E-03
4.848125E+03	9.972765E-02	2.346886E-03
4.858019E+03	9.991503E-02	2.342899E-03
4.867913E+03	1.000650E-01	2.337253E-03
4.877807E+03	1.001743E-01	2.329887E-03
4.887702E+03	1.002485E-01	2.320947E-03
4.897596E+03	1.002842E-01	2.310369E-03
4.907490E+03	1.002865E-01	2.298291E-03
4.917384E+03	1.002563E-01	2.284758E-03
4.927278E+03	1.002030E-01	2.270002E-03
4.937172E+03	1.001262E-01	2.254036E-03
4.947066E+03	1.000330E-01	2.237043E-03
4.956961E+03	9.992821E-02	2.219152E-03
4.966855E+03	9.981411E-02	2.200432E-03
4.976749E+03	9.970039E-02	2.181117E-03
4.986643E+03	9.958672E-02	2.161216E-03
4.996537E+03	9.948252E-02	2.140952E-03
5.006431E+03	9.938721E-02	2.120325E-03
5.016325E+03	9.930738E-02	2.099490E-03
5.026219E+03	9.924702E-02	2.078542E-03
5.036114E+03	9.920988E-02	2.057570E-03
5.046008E+03	9.919956E-02	2.036656E-03
5.055902E+03	9.921938E-02	2.015873E-03
5.065796E+03	9.927010E-02	1.995244E-03
5.075690E+03	9.935931E-02	1.974924E-03
5.085584E+03	9.948705E-02	1.954917E-03
5.095478E+03	9.965530E-02	1.935262E-03
5.105373E+03	9.986549E-02	1.915989E-03
5.115267E+03	1.001185E-01	1.897117E-03
5.125161E+03	1.004143E-01	1.878653E-03
5.135055E+03	1.007526E-01	1.860592E-03
5.144949E+03	1.011322E-01	1.842921E-03
5.154843E+03	1.015536E-01	1.825665E-03
5.164737E+03	1.020099E-01	1.808711E-03
5.174631E+03	1.025008E-01	1.792078E-03
5.184526E+03	1.030256E-01	1.775783E-03
5.194420E+03	1.035787E-01	1.759761E-03
5.204314E+03	1.041566E-01	1.743992E-03
5.214208E+03	1.047555E-01	1.728463E-03
5.224102E+03	1.053714E-01	1.713165E-03
5.233996E+03	1.060025E-01	1.698133E-03
5.243890E+03	1.066389E-01	1.683280E-03
5.253785E+03	1.072801E-01	1.668686E-03
5.263679E+03	1.079176E-01	1.654307E-03
5.273573E+03	1.085444E-01	1.640141E-03
5.283467E+03	1.091555E-01	1.626223E-03
5.293361E+03	1.097397E-01	1.612509E-03
5.303255E+03	1.102874E-01	1.598991E-03
5.313149E+03	1.107884E-01	1.585657E-03
5.323043E+03	1.112338E-01	1.572530E-03
5.332938E+03	1.116062E-01	1.559514E-03
5.342832E+03	1.119007E-01	1.546694E-03
5.352726E+03	1.120968E-01	1.533942E-03
5.362620E+03	1.121887E-01	1.521328E-03
5.372514E+03	1.121707E-01	1.508916E-03
5.382408E+03	1.120545E-01	1.496990E-03
5.392302E+03	1.118512E-01	1.485802E-03
5.402196E+03	1.115750E-01	1.475627E-03
5.412091E+03	1.112428E-01	1.466709E-03
5.421985E+03	1.108651E-01	1.459099E-03
5.431879E+03	1.104541E-01	1.452843E-03
5.441773E+03	1.100232E-01	1.447994E-03
5.451667E+03	1.095822E-01	1.444550E-03
5.461561E+03	1.091372E-01	1.442456E-03
5.471455E+03	1.086957E-01	1.441677E-03
5.481350E+03	1.082670E-01	1.442200E-03
5.491244E+03	1.078569E-01	1.443971E-03
5.501138E+03	1.074679E-01	1.446899E-03
5.511032E+03	1.071046E-01	1.450921E-03
5.520926E+03	1.067759E-01	1.456045E-03
5.530820E+03	1.064780E-01	1.462109E-03
5.540714E+03	1.062217E-01	1.469158E-03
5.550608E+03	1.060051E-01	1.477073E-03
5.560503E+03	1.058334E-01	1.485840E-03
5.570397E+03	1.057071E-01	1.495383E-03
5.580291E+03	1.056313E-01	1.505700E-03
5.590185E+03	1.056084E-01	1.516758E-03
5.600079E+03	1.056409E-01	1.528528E-03
5.609973E+03	1.057308E-01	1.540986E-03
5.619867E+03	1.058777E-01	1.554071E-03
5.629762E+03	1.060857E-01	1.567794E-03
5.639656E+03	1.063561E-01	1.582129E-03
5.649550E+03	1.066899E-01	1.597048E-03
5.659444E+03	1.070877E-01	1.612518E-03
5.669338E+03	1.075471E-01	1.628464E-03
5.679232E+03	1.080726E-01	1.644918E-03
5.689126E+03	1.086586E-01	1.661753E-03
5.699020E+03	1.093086E-01	1.678988E-03
5.708915E+03	1.100157E-01	1.696479E-03
5.718809E+03	1.107829E-01	1.714232E-03
5.728703E+03	1.116024E-01	1.732087E-03
5.738597E+03	1.124763E-01	1.750038E-03
5.748491E+03	1.133964E-01	1.767914E-03
5.758385E+03	1.143646E-01	1.785705E-03
5.768279E+03	1.153750E-01	1.803276E-03
5.778174E+03	1.164245E-01	1.820534E-03
5.788068E+03	1.175100E-01	1.837388E-03
5.797962E+03	1.186288E-01	1.853752E-03
5.807856E+03	1.197813E-01	1.869590E-03
5.817750E+03	1.209600E-01	1.884741E-03
5.827644E+03	1.221694E-01	1.899231E-03
5.837538E+03	1.234060E-01	1.912964E-03
5.847432E+03	1.246701E-01	1.925902E-03
5.857327E+03	1.259659E-01	1.938069E-03
5.867221E+03	1.272929E-01	1.949417E-03
5.877115E+03	1.286547E-01	1.959959E-03
5.887009E+03	1.300562E-01	1.969728E-03
5.896903E+03	1.315067E-01	1.978824E-03
5.906797E+03	1.330106E-01	1.987268E-03
5.916691E+03	1.345764E-01	1.995143E-03
5.926586E+03	1.362169E-01	2.002591E-03
5.936480E+03	1.379396E-01	2.009668E-03
5.946374E+03	1.397553E-01	2.016479E-03
5.956268E+03	1.416789E-01	2.023177E-03
5.966162E+03	1.437184E-01	2.029813E-03
5.976056E+03	1.458851E-01	2.036477E-03
5.985950E+03	1.481930E-01	2.043291E-03
5.995844E+03	1.506481E-01	2.050259E-03
6.005739E+03	1.532620E-01	2.057461E-03
6.015633E+03	1.560366E-01	2.064843E-03
6.025527E+03	1.589788E-01	2.072417E-03
6.035421E+03	1.620802E-01	2.080004E-03
6.045315E+03	1.653472E-01	2.087627E-03
6.055209E+03	1.687615E-01	2.095008E-03
6.065103E+03	1.723056E-01	2.101913E-03
6.074998E+03	1.759585E-01	2.108094E-03
6.084892E+03	1.796816E-01	2.113143E-03
6.094786E+03	1.834346E-01	2.116690E-03
6.104680E+03	1.871563E-01	2.118194E-03
6.114574E+03	1.907819E-01	2.117167E-03
6.124468E+03	1.942293E-01	2.113020E-03
6.134362E+03	1.973927E-01	2.105026E-03
6.144256E+03	2.001785E-01	2.092712E-03
6.154151E+03	2.024598E-01	2.075375E-03
6.164045E+03	2.041127E-01	2.052469E-03
6.173939E+03	2.050254E-01	2.023676E-03
6.183833E+03	2.050719E-01	1.988613E-03
6.193727E+03	2.041785E-01	1.947448E-03
6.203621E+03	2.022872E-01	1.900486E-03
6.213515E+03	1.994585E-01	1.849062E-03
6.223410E+03	1.958687E-01	1.795419E-03
6.233304E+03	1.917806E-01	1.742379E-03
6.243198E+03	1.874553E-01	1.692533E-03
6.253092E+03	1.831439E-01	1.648210E-03
6.262986E+03	1.790447E-01	1.611155E-03
6.272880E+03	1.753248E-01	1.582768E-03
6.282774E+03	1.721102E-01	1.563923E-03
6.292668E+03	1.694844E-01	1.554981E-03
6.302563E+03	1.674974E-01	1.556077E-03
6.312457E+03	1.661666E-01	1.567143E-03
6.322351E+03	1.654844E-01	1.587965E-03
6.332245E+03	1.654401E-01	1.618381E-03
6.342139E+03	1.660126E-01	1.658194E-03
6.352033E+03	1.671759E-01	1.707218E-03
6.361927E+03	1.688966E-01	1.765228E-03
6.371822E+03	1.711501E-01	1.832116E-03
6.381716E+03	1.738901E-01	1.907560E-03
6.391610E+03	1.770782E-01	1.991312E-03
6.401504E+03	1.806698E-01	2.083043E-03
6.411398E+03	1.846004E-01	2.182155E-03
6.421292E+03	1.888133E-01	2.288088E-03
6.431186E+03	1.932424E-01	2.400105E-03
6.441080E+03	1.978172E-01	2.517342E-03
6.450975E+03	2.024646E-01	2.638816E-03
6.460869E+03	2.071111E-01	2.763447E-03
6.470763E+03	2.116827E-01	2.890061E-03
6.480657E+03	2.161111E-01	3.017469E-03
6.490551E+03	2.203128E-01	3.144182E-03
6.500445E+03	2.242227E-01	3.268878E-03
6.510339E+03	2.277786E-01	3.390202E-03
6.520234E+03	2.309109E-01	3.506620E-03
6.530128E+03	2.335621E-01	3.616710E-03
6.540022E+03	2.356848E-01	3.719153E-03
6.549916E+03	2.372448E-01	3.812802E-03
6.559810E+03	2.382270E-01	3.896801E-03
6.569704E+03	2.386094E-01	3.970185E-03
6.579598E+03	2.384060E-01	4.032595E-03
6.589492E+03	2.376288E-01	4.083677E-03
6.599387E+03	2.362865E-01	4.123062E-03
6.609281E+03	2.344210E-01	4.151001E-03
6.619175E+03	2.320685E-01	4.167714E-03
6.629069E+03	2.292584E-01	4.173359E-03
6.638963E+03	2.260479E-01	4.168659E-03
6.648857E+03	2.224845E-01	4.154237E-03
6.658751E+03	2.186052E-01	4.130583E-03
6.668645E+03	2.144709E-01	4.098693E-03
6.678540E+03	2.101296E-01	4.059388E-03
6.688434E+03	2.056226E-01	4.013416E-03
6.698328E+03	2.010006E-01	3.961750E-03
6.708222E+03	1.962955E-01	3.905042E-03
6.718116E+03	1.915622E-01	3.844442E-03
6.728010E+03	1.868262E-01	3.780544E-03
6.737904E+03	1.821196E-01	3.714103E-03
6.747799E+03	1.774757E-01	3.645917E-03
6.757693E+03	1.729141E-01	3.576524E-03
6.767587E+03	1.684601E-01	3.506591E-03
6.777481E+03	1.641265E-01	3.436533E-03
6.787375E+03	1.599316E-01	3.366882E-03
6.797269E+03	1.558818E-01	3.297927E-03
6.807163E+03	1.519897E-01	3.230077E-03
6.817057E+03	1.482566E-01	3.163509E-03
6.826952E+03	1.446901E-01	3.098518E-03
6.836846E+03	1.412914E-01	3.035265E-03
6.846740E+03	1.380530E-01	2.973709E-03
6.856634E+03	1.349845E-01	2.914172E-03
6.866528E+03	1.320754E-01	2.856536E-03
6.876422E+03	1.293220E-01	2.800819E-03
6.886316E+03	1.267230E-01	2.747082E-03
6.896211E+03	1.242694E-01	2.695213E-03
6.906105E+03	1.219585E-01	2.645225E-03
6.915999E+03	1.197837E-01	2.597043E-03
6.925893E+03	1.177347E-01	2.550505E-03
6.935787E+03	1.158046E-01	2.505514E-03
6.945681E+03	1.139894E-01	2.462029E-03
6.955575E+03	1.122785E-01	2.419870E-03
6.965469E+03	1.106650E-01	2.378919E-03
6.975364E+03	1.091445E-01	2.339122E-03
6.985258E+03	1.077102E-01	2.300359E-03
6.995152E+03	1.063521E-01	2.262449E-03
7.005046E+03	1.050637E-01	2.225278E-03
7.014940E+03	1.038386E-01	2.188739E-03
7.024834E+03	1.026737E-01	2.152786E-03
7.034728E+03	1.015632E-01	2.117322E-03
7.044623E+03	1.004960E-01	2.082140E-03
7.054517E+03	9.947296E-02	2.047280E-03
7.064411E+03	9.848662E-02	2.012613E-03
7.074305E+03	9.753292E-02	1.978081E-03
7.084199E+03	9.661091E-02	1.943692E-03
7.094093E+03	9.571467E-02	1.909351E-03
7.103987E+03	9.484136E-02	1.875032E-03
7.113881E+03	9.398851E-02	1.840717E-03
7.123776E+03	9.315402E-02	1.806395E-03
7.133670E+03	9.233850E-02	1.772114E-03
7.143564E+03	9.153528E-02	1.737779E-03
7.153458E+03	9.074802E-02	1.703498E-03
7.163352E+03	8.997289E-02	1.669239E-03
7.173246E+03	8.920638E-02	1.634980E-03
7.183140E+03	8.845252E-02	1.600839E-03
7.193035E+03	8.770801E-02	1.566803E-03
7.202929E+03	8.696976E-02	1.532868E-03
7.212823E+03	8.624205E-02	1.499163E-03
7.222717E+03	8.552198E-02	1.465693E-03
7.232611E+03	8.480678E-02	1.432471E-03
7.242505E+03	8.410095E-02	1.399637E-03
7.252399E+03	8.339960E-02	1.367177E-03
7.262293E+03	8.270501E-02	1.335201E-03
7.272188E+03	8.201724E-02	1.303785E-03
7.282082E+03	8.133419E-02	1.272977E-03
7.291976E+03	8.066075E-02	1.242940E-03
7.301870E+03	7.999290E-02	1.213699E-03
7.311764E+03	7.933361E-02	1.185394E-03
7.321658E+03	7.868379E-02	1.158139E-03
7.331552E+03	7.804230E-02	1.132018E-03
7.341447E+03	7.741262E-02	1.107190E-03
7.351341E+03	7.679625E-02	1.083786E-03
7.361235E+03	7.619260E-02	1.061910E-03
7.371129E+03	7.560556E-02	1.041731E-03
7.381023E+03	7.503479E-02	1.023359E-03
7.390917E+03	7.448427E-02	1.006963E-03
7.400811E+03	7.395583E-02	9.926803E-04
7.410705E+03	7.344910E-02	9.806125E-04
7.420600E+03	7.296785E-02	9.709128E-04
7.430494E+03	7.251163E-02	9.636690E-04
7.440388E+03	7.208396E-02	9.590125E-04
7.450282E+03	7.168413E-02	9.570070E-04
7.460176E+03	7.131330E-02	9.577284E-04
7.470070E+03	7.097439E-02	9.612434E-04
7.479964E+03	7.066811E-02	9.675115E-04
7.489859E+03	7.039281E-02	9.764357E-04
7.499753E+03	7.014856E-02	9.879349E-04
7.509647E+03	6.993507E-02	1.001917E-03
7.519541E+03	6.975338E-02	1.018308E-03
7.529435E+03	6.960195E-02	1.036994E-03
7.539329E+03	6.947640E-02	1.057819E-03
7.549223E+03	6.937338E-02	1.080643E-03
7.559117E+03	6.928836E-02	1.105302E-03
7.569012E+03	6.921749E-02	1.131644E-03
7.578906E+03	6.915084E-02	1.159414E-03
7.588800E+03	6.907812E-02	1.188340E-03
7.598694E+03	6.898718E-02	1.218102E-03
7.608588E+03	6.886670E-02	1.248377E-03
7.618482E+03	6.870081E-02	1.278741E-03
7.628376E+03	6.847956E-02	1.308852E-03
7.638271E+03	6.819446E-02	1.338380E-03
7.648165E+03	6.785305E-02	1.367300E-03
7.658059E+03	6.745964E-02	1.395540E-03
7.667953E+03	6.702137E-02	1.423097E-03
7.677847E+03	6.654710E-02	1.450027E-03
