#wls	flux	fluxerr
1.583061E+03	5.649124E-02	7.319055E-03
1.622638E+03	5.781261E-02	7.400845E-03
1.662214E+03	5.910598E-02	7.473709E-03
1.701791E+03	6.034966E-02	7.534991E-03
1.741367E+03	6.155210E-02	7.585903E-03
1.780944E+03	6.270786E-02	7.625912E-03
1.820520E+03	6.382106E-02	7.655685E-03
1.860097E+03	6.486258E-02	7.671935E-03
1.899673E+03	6.584735E-02	7.676717E-03
1.939250E+03	6.676288E-02	7.668847E-03
1.978827E+03	6.763461E-02	7.651531E-03
2.018403E+03	6.848745E-02	7.627749E-03
2.057980E+03	6.944258E-02	7.610863E-03
2.097556E+03	7.064596E-02	7.616048E-03
2.137133E+03	7.223374E-02	7.656375E-03
2.176709E+03	7.429000E-02	7.738471E-03
2.216286E+03	7.683391E-02	7.861666E-03
2.255862E+03	7.978097E-02	8.014675E-03
2.295439E+03	8.306700E-02	8.188812E-03
2.335015E+03	8.668250E-02	8.381120E-03
2.374592E+03	9.059721E-02	8.586729E-03
2.414168E+03	9.486104E-02	8.808424E-03
2.453745E+03	9.948203E-02	9.044787E-03
2.493321E+03	1.045366E-01	9.300410E-03
2.532898E+03	1.100425E-01	9.574183E-03
2.572475E+03	1.160816E-01	9.870287E-03
2.612051E+03	1.226788E-01	1.018753E-02
2.651628E+03	1.298747E-01	1.052580E-02
2.691204E+03	1.376490E-01	1.087986E-02
2.730781E+03	1.459987E-01	1.124597E-02
2.770357E+03	1.548571E-01	1.161568E-02
2.809934E+03	1.641540E-01	1.198079E-02
2.849510E+03	1.738449E-01	1.233558E-02
2.889087E+03	1.837660E-01	1.266655E-02
2.928663E+03	1.937748E-01	1.296304E-02
2.968240E+03	2.037619E-01	1.321782E-02
2.978134E+03	2.062238E-01	1.327305E-02
2.988028E+03	2.086916E-01	1.332621E-02
2.997922E+03	2.111048E-01	1.337348E-02
3.007816E+03	2.135183E-01	1.341840E-02
3.017710E+03	2.159017E-01	1.345910E-02
3.027605E+03	2.182534E-01	1.349552E-02
3.037499E+03	2.205697E-01	1.352750E-02
3.047393E+03	2.228465E-01	1.355486E-02
3.057287E+03	2.251098E-01	1.357924E-02
3.067181E+03	2.273259E-01	1.359865E-02
3.077075E+03	2.294904E-01	1.361293E-02
3.086969E+03	2.315996E-01	1.362195E-02
3.096864E+03	2.336492E-01	1.362556E-02
3.106758E+03	2.356667E-01	1.362545E-02
3.116652E+03	2.375853E-01	1.361786E-02
3.126546E+03	2.394638E-01	1.360630E-02
3.136440E+03	2.412671E-01	1.358886E-02
3.146334E+03	2.430227E-01	1.356723E-02
3.156228E+03	2.446634E-01	1.353776E-02
3.166122E+03	2.462488E-01	1.350391E-02
3.176017E+03	2.477432E-01	1.346385E-02
3.185911E+03	2.491426E-01	1.341753E-02
3.195805E+03	2.504430E-01	1.336488E-02
3.205699E+03	2.516408E-01	1.330587E-02
3.215593E+03	2.527648E-01	1.324220E-02
3.225487E+03	2.537784E-01	1.317210E-02
3.235381E+03	2.546780E-01	1.309555E-02
3.245276E+03	2.554601E-01	1.301258E-02
3.255170E+03	2.561208E-01	1.292317E-02
3.265064E+03	2.566893E-01	1.282898E-02
3.274958E+03	2.571292E-01	1.272837E-02
3.284852E+03	2.574375E-01	1.262138E-02
3.294746E+03	2.576106E-01	1.250807E-02
3.304640E+03	2.576453E-01	1.238848E-02
3.314534E+03	2.575706E-01	1.226422E-02
3.324429E+03	2.573192E-01	1.213227E-02
3.334323E+03	2.569525E-01	1.199579E-02
3.344217E+03	2.564359E-01	1.185333E-02
3.354111E+03	2.557983E-01	1.170646E-02
3.364005E+03	2.549751E-01	1.155243E-02
3.373899E+03	2.540270E-01	1.139423E-02
3.383793E+03	2.528906E-01	1.122923E-02
3.393688E+03	2.516574E-01	1.106171E-02
3.403582E+03	2.502355E-01	1.088783E-02
3.413476E+03	2.486559E-01	1.070917E-02
3.423370E+03	2.469494E-01	1.052727E-02
3.433264E+03	2.450594E-01	1.033991E-02
3.443158E+03	2.430480E-01	1.014990E-02
3.453052E+03	2.408915E-01	9.956378E-03
3.462946E+03	2.386266E-01	9.760983E-03
3.472841E+03	2.362097E-01	9.562044E-03
3.482735E+03	2.337120E-01	9.362562E-03
3.492629E+03	2.311216E-01	9.162123E-03
3.502523E+03	2.284548E-01	8.961440E-03
3.512417E+03	2.257289E-01	8.761233E-03
3.522311E+03	2.229599E-01	8.562147E-03
3.532205E+03	2.201890E-01	8.365764E-03
3.542100E+03	2.173800E-01	8.170683E-03
3.551994E+03	2.145972E-01	7.979305E-03
3.561888E+03	2.118284E-01	7.791111E-03
3.571782E+03	2.090857E-01	7.606492E-03
3.581676E+03	2.064031E-01	7.426608E-03
3.591570E+03	2.037433E-01	7.250028E-03
3.601464E+03	2.011612E-01	7.078629E-03
3.611358E+03	1.986186E-01	6.910963E-03
3.621253E+03	1.961668E-01	6.748722E-03
3.631147E+03	1.937883E-01	6.591185E-03
3.641041E+03	1.915087E-01	6.439101E-03
3.650935E+03	1.892883E-01	6.291023E-03
3.660829E+03	1.871717E-01	6.148326E-03
3.670723E+03	1.851189E-01	6.009575E-03
3.680617E+03	1.831714E-01	5.876018E-03
3.690512E+03	1.813086E-01	5.746867E-03
3.700406E+03	1.795296E-01	5.621992E-03
3.710300E+03	1.778333E-01	5.501251E-03
3.720194E+03	1.762367E-01	5.385064E-03
3.730088E+03	1.746991E-01	5.272090E-03
3.739982E+03	1.732555E-01	5.163301E-03
3.749876E+03	1.718838E-01	5.057942E-03
3.759770E+03	1.705623E-01	4.955305E-03
3.769665E+03	1.693239E-01	4.856277E-03
3.779559E+03	1.681638E-01	4.760643E-03
3.789453E+03	1.670425E-01	4.667213E-03
3.799347E+03	1.659736E-01	4.576334E-03
3.809241E+03	1.649527E-01	4.487844E-03
3.819135E+03	1.639928E-01	4.402047E-03
3.829029E+03	1.630720E-01	4.318321E-03
3.838924E+03	1.621695E-01	4.236096E-03
3.848818E+03	1.613148E-01	4.156134E-03
3.858712E+03	1.604870E-01	4.077880E-03
3.868606E+03	1.596824E-01	4.001236E-03
3.878500E+03	1.588972E-01	3.926118E-03
3.888394E+03	1.581281E-01	3.852456E-03
3.898288E+03	1.573720E-01	3.780193E-03
3.908182E+03	1.566259E-01	3.709285E-03
3.918077E+03	1.559030E-01	3.640067E-03
3.927971E+03	1.551694E-01	3.571785E-03
3.937865E+03	1.544544E-01	3.505155E-03
3.947759E+03	1.537253E-01	3.439480E-03
3.957653E+03	1.530113E-01	3.375471E-03
3.967547E+03	1.522809E-01	3.312483E-03
3.977441E+03	1.515634E-01	3.251215E-03
3.987336E+03	1.508430E-01	3.191385E-03
3.997230E+03	1.501047E-01	3.132744E-03
4.007124E+03	1.493777E-01	3.075973E-03
4.017018E+03	1.486473E-01	3.020833E-03
4.026912E+03	1.478994E-01	2.967110E-03
4.036806E+03	1.471629E-01	2.915463E-03
4.046700E+03	1.464238E-01	2.865680E-03
4.056594E+03	1.456826E-01	2.817844E-03
4.066489E+03	1.449398E-01	2.772038E-03
4.076383E+03	1.441958E-01	2.728341E-03
4.086277E+03	1.434375E-01	2.686581E-03
4.096171E+03	1.426926E-01	2.647344E-03
4.106065E+03	1.419476E-01	2.610441E-03
4.115959E+03	1.412028E-01	2.575936E-03
4.125853E+03	1.404580E-01	2.543885E-03
4.135748E+03	1.397001E-01	2.514101E-03
4.145642E+03	1.389548E-01	2.487093E-03
4.155536E+03	1.382083E-01	2.462647E-03
4.165430E+03	1.374471E-01	2.440552E-03
4.175324E+03	1.366956E-01	2.421259E-03
4.185218E+03	1.359271E-01	2.404298E-03
4.195112E+03	1.351650E-01	2.390000E-03
4.205006E+03	1.343829E-01	2.377759E-03
4.214901E+03	1.336033E-01	2.367831E-03
4.224795E+03	1.327999E-01	2.359600E-03
4.234689E+03	1.319828E-01	2.353092E-03
4.244583E+03	1.311498E-01	2.348112E-03
4.254477E+03	1.302988E-01	2.344464E-03
4.264371E+03	1.294280E-01	2.341955E-03
4.274265E+03	1.285361E-01	2.340407E-03
4.284159E+03	1.276229E-01	2.339655E-03
4.294054E+03	1.266770E-01	2.339340E-03
4.303948E+03	1.257214E-01	2.339731E-03
4.313842E+03	1.247343E-01	2.340281E-03
4.323736E+03	1.237387E-01	2.341278E-03
4.333630E+03	1.227140E-01	2.342198E-03
4.343524E+03	1.216723E-01	2.343145E-03
4.353418E+03	1.206155E-01	2.344032E-03
4.363313E+03	1.195453E-01	2.344782E-03
4.373207E+03	1.184641E-01	2.345332E-03
4.383101E+03	1.173641E-01	2.345432E-03
4.392995E+03	1.162682E-01	2.345447E-03
4.402889E+03	1.151590E-01	2.344947E-03
4.412783E+03	1.140496E-01	2.344121E-03
4.422677E+03	1.129429E-01	2.342961E-03
4.432571E+03	1.118419E-01	2.341472E-03
4.442466E+03	1.107402E-01	2.339469E-03
4.452360E+03	1.096597E-01	2.337365E-03
4.462254E+03	1.085846E-01	2.334792E-03
4.472148E+03	1.075272E-01	2.331976E-03
4.482042E+03	1.064901E-01	2.328952E-03
4.491936E+03	1.054761E-01	2.325757E-03
4.501830E+03	1.044877E-01	2.322432E-03
4.511725E+03	1.035185E-01	2.318823E-03
4.521619E+03	1.025796E-01	2.315170E-03
4.531513E+03	1.016729E-01	2.311512E-03
4.541407E+03	1.008004E-01	2.307894E-03
4.551301E+03	9.995539E-02	2.304165E-03
4.561195E+03	9.915597E-02	2.300745E-03
4.571089E+03	9.838705E-02	2.297293E-03
4.580983E+03	9.765794E-02	2.294032E-03
4.590878E+03	9.696956E-02	2.290994E-03
4.600772E+03	9.631475E-02	2.288018E-03
4.610666E+03	9.570196E-02	2.285316E-03
4.620560E+03	9.513916E-02	2.283090E-03
4.630454E+03	9.460337E-02	2.280800E-03
4.640348E+03	9.411747E-02	2.279007E-03
4.650242E+03	9.366591E-02	2.277345E-03
4.660137E+03	9.325575E-02	2.275997E-03
4.670031E+03	9.288616E-02	2.274951E-03
4.679925E+03	9.255614E-02	2.274193E-03
4.689819E+03	9.225718E-02	2.273521E-03
4.699713E+03	9.199525E-02	2.273088E-03
4.709607E+03	9.176876E-02	2.272861E-03
4.719501E+03	9.157594E-02	2.272803E-03
4.729395E+03	9.140766E-02	2.272690E-03
4.739290E+03	9.127630E-02	2.272835E-03
4.749184E+03	9.115814E-02	2.272649E-03
4.759078E+03	9.107246E-02	2.272615E-03
4.768972E+03	9.100262E-02	2.272320E-03
4.778866E+03	9.095342E-02	2.271884E-03
4.788760E+03	9.092250E-02	2.271250E-03
4.798654E+03	9.090757E-02	2.270360E-03
4.808549E+03	9.089929E-02	2.268984E-03
4.818443E+03	9.090266E-02	2.267246E-03
4.828337E+03	9.091562E-02	2.265097E-03
4.838231E+03	9.092937E-02	2.262319E-03
4.848125E+03	9.095629E-02	2.259223E-03
4.858019E+03	9.098094E-02	2.255427E-03
4.867913E+03	9.100219E-02	2.250907E-03
4.877807E+03	9.103304E-02	2.245990E-03
4.887702E+03	9.105889E-02	2.240319E-03
4.897596E+03	9.107934E-02	2.233891E-03
4.907490E+03	9.110811E-02	2.227051E-03
4.917384E+03	9.113140E-02	2.219466E-03
4.927278E+03	9.115648E-02	2.211323E-03
4.937172E+03	9.118388E-02	2.202643E-03
4.947066E+03	9.120741E-02	2.193285E-03
4.956961E+03	9.123491E-02	2.183447E-03
4.966855E+03	9.126740E-02	2.173165E-03
4.976749E+03	9.130607E-02	2.162476E-03
4.986643E+03	9.134528E-02	2.151258E-03
4.996537E+03	9.139325E-02	2.139715E-03
5.006431E+03	9.145129E-02	2.127888E-03
5.016325E+03	9.151388E-02	2.115660E-03
5.026219E+03	9.158916E-02	2.103233E-03
5.036114E+03	9.167836E-02	2.090643E-03
5.046008E+03	9.178257E-02	2.077928E-03
5.055902E+03	9.189594E-02	2.064965E-03
5.065796E+03	9.202615E-02	2.051942E-03
5.075690E+03	9.217381E-02	2.038883E-03
5.085584E+03	9.233251E-02	2.025660E-03
5.095478E+03	9.251614E-02	2.012593E-03
5.105373E+03	9.270410E-02	1.999247E-03
5.115267E+03	9.291662E-02	1.986077E-03
5.125161E+03	9.313937E-02	1.972795E-03
5.135055E+03	9.337841E-02	1.959548E-03
5.144949E+03	9.363252E-02	1.946334E-03
5.154843E+03	9.390029E-02	1.933146E-03
5.164737E+03	9.417307E-02	1.919834E-03
5.174631E+03	9.445580E-02	1.906532E-03
5.184526E+03	9.473925E-02	1.893087E-03
5.194420E+03	9.503485E-02	1.879767E-03
5.204314E+03	9.532598E-02	1.866281E-03
5.214208E+03	9.561669E-02	1.852757E-03
5.224102E+03	9.589690E-02	1.839049E-03
5.233996E+03	9.617744E-02	1.825420E-03
5.243890E+03	9.644102E-02	1.811597E-03
5.253785E+03	9.668424E-02	1.797584E-03
5.263679E+03	9.691791E-02	1.783646E-03
5.273573E+03	9.712466E-02	1.769534E-03
5.283467E+03	9.730841E-02	1.755393E-03
5.293361E+03	9.746616E-02	1.741245E-03
5.303255E+03	9.758809E-02	1.726994E-03
5.313149E+03	9.767889E-02	1.712804E-03
5.323043E+03	9.773647E-02	1.698719E-03
5.332938E+03	9.775925E-02	1.684792E-03
5.342832E+03	9.773901E-02	1.670961E-03
5.352726E+03	9.768241E-02	1.657418E-03
5.362620E+03	9.758967E-02	1.644243E-03
5.372514E+03	9.746199E-02	1.631525E-03
5.382408E+03	9.729447E-02	1.619248E-03
5.392302E+03	9.709708E-02	1.607638E-03
5.402196E+03	9.687325E-02	1.596805E-03
5.412091E+03	9.662682E-02	1.586857E-03
5.421985E+03	9.635495E-02	1.577745E-03
5.431879E+03	9.606895E-02	1.569595E-03
5.441773E+03	9.577337E-02	1.562415E-03
5.451667E+03	9.547283E-02	1.556209E-03
5.461561E+03	9.516514E-02	1.550869E-03
5.471455E+03	9.486868E-02	1.546619E-03
5.481350E+03	9.457439E-02	1.543236E-03
5.491244E+03	9.428678E-02	1.540718E-03
5.501138E+03	9.402382E-02	1.539284E-03
5.511032E+03	9.377612E-02	1.538708E-03
5.520926E+03	9.355444E-02	1.539096E-03
5.530820E+03	9.336258E-02	1.540443E-03
5.540714E+03	9.320408E-02	1.542744E-03
5.550608E+03	9.307563E-02	1.545882E-03
5.560503E+03	9.298707E-02	1.549961E-03
5.570397E+03	9.294131E-02	1.554978E-03
5.580291E+03	9.294102E-02	1.560923E-03
5.590185E+03	9.298869E-02	1.567793E-03
5.600079E+03	9.307990E-02	1.575466E-03
5.609973E+03	9.322335E-02	1.584047E-03
5.619867E+03	9.342090E-02	1.593529E-03
5.629762E+03	9.367417E-02	1.603901E-03
5.639656E+03	9.397793E-02	1.615037E-03
5.649550E+03	9.434686E-02	1.627157E-03
5.659444E+03	9.476860E-02	1.640015E-03
5.669338E+03	9.525077E-02	1.653711E-03
5.679232E+03	9.579419E-02	1.668229E-03
5.689126E+03	9.639257E-02	1.683430E-03
5.699020E+03	9.705326E-02	1.699411E-03
5.708915E+03	9.778368E-02	1.716274E-03
5.718809E+03	9.857017E-02	1.733751E-03
5.728703E+03	9.942002E-02	1.751938E-03
5.738597E+03	1.003262E-01	1.770684E-03
5.748491E+03	1.013034E-01	1.790215E-03
5.758385E+03	1.023374E-01	1.810251E-03
5.768279E+03	1.034356E-01	1.830892E-03
5.778174E+03	1.045987E-01	1.852115E-03
5.788068E+03	1.058271E-01	1.873899E-03
5.797962E+03	1.071140E-01	1.896087E-03
5.807856E+03	1.084757E-01	1.918933E-03
5.817750E+03	1.098979E-01	1.942152E-03
5.827644E+03	1.113898E-01	1.965870E-03
5.837538E+03	1.129535E-01	1.990085E-03
5.847432E+03	1.145908E-01	2.014797E-03
5.857327E+03	1.163046E-01	2.040014E-03
5.867221E+03	1.180890E-01	2.065598E-03
5.877115E+03	1.199642E-01	2.091862E-03
5.887009E+03	1.219166E-01	2.118528E-03
5.896903E+03	1.239585E-01	2.145771E-03
5.906797E+03	1.260938E-01	2.173617E-03
5.916691E+03	1.283267E-01	2.202099E-03
5.926586E+03	1.306520E-01	2.231087E-03
5.936480E+03	1.330925E-01	2.260928E-03
5.946374E+03	1.356333E-01	2.291327E-03
5.956268E+03	1.382971E-01	2.322631E-03
5.966162E+03	1.410676E-01	2.354524E-03
5.976056E+03	1.439566E-01	2.387173E-03
5.985950E+03	1.469657E-01	2.420569E-03
5.995844E+03	1.500842E-01	2.454511E-03
6.005739E+03	1.533321E-01	2.489306E-03
6.015633E+03	1.566846E-01	2.524536E-03
6.025527E+03	1.601588E-01	2.560475E-03
6.035421E+03	1.637245E-01	2.596645E-03
6.045315E+03	1.673828E-01	2.633089E-03
6.055209E+03	1.711205E-01	2.669641E-03
6.065103E+03	1.749217E-01	2.706108E-03
6.074998E+03	1.787667E-01	2.742267E-03
6.084892E+03	1.826327E-01	2.777873E-03
6.094786E+03	1.864801E-01	2.812457E-03
6.104680E+03	1.903060E-01	2.846137E-03
6.114574E+03	1.940510E-01	2.878212E-03
6.124468E+03	1.977081E-01	2.908799E-03
6.134362E+03	2.012124E-01	2.937196E-03
6.144256E+03	2.045408E-01	2.963343E-03
6.154151E+03	2.076564E-01	2.987011E-03
6.164045E+03	2.105239E-01	3.008016E-03
6.173939E+03	2.131112E-01	3.026241E-03
6.183833E+03	2.153912E-01	3.041648E-03
6.193727E+03	2.173275E-01	3.054074E-03
6.203621E+03	2.189393E-01	3.064132E-03
6.213515E+03	2.201929E-01	3.071677E-03
6.223410E+03	2.211293E-01	3.077584E-03
6.233304E+03	2.217358E-01	3.081948E-03
6.243198E+03	2.220560E-01	3.085615E-03
6.253092E+03	2.221399E-01	3.089482E-03
6.262986E+03	2.219937E-01	3.093802E-03
6.272880E+03	2.216740E-01	3.099482E-03
6.282774E+03	2.212220E-01	3.107038E-03
6.292668E+03	2.206779E-01	3.116840E-03
6.302563E+03	2.200633E-01	3.128988E-03
6.312457E+03	2.194448E-01	3.144208E-03
6.322351E+03	2.188365E-01	3.162495E-03
6.332245E+03	2.182644E-01	3.184011E-03
6.342139E+03	2.177334E-01	3.208628E-03
6.352033E+03	2.172911E-01	3.236854E-03
6.361927E+03	2.169167E-01	3.268205E-03
6.371822E+03	2.166319E-01	3.302838E-03
6.381716E+03	2.164536E-01	3.340861E-03
6.391610E+03	2.163472E-01	3.381596E-03
6.401504E+03	2.163211E-01	3.425030E-03
6.411398E+03	2.163644E-01	3.470855E-03
6.421292E+03	2.164626E-01	3.518708E-03
6.431186E+03	2.166144E-01	3.568436E-03
6.441080E+03	2.167689E-01	3.619063E-03
6.450975E+03	2.169203E-01	3.670342E-03
6.460869E+03	2.170302E-01	3.721466E-03
6.470763E+03	2.171068E-01	3.772410E-03
6.480657E+03	2.171104E-01	3.822321E-03
6.490551E+03	2.170177E-01	3.870604E-03
6.500445E+03	2.168059E-01	3.916663E-03
6.510339E+03	2.164377E-01	3.959621E-03
6.520234E+03	2.159254E-01	3.999492E-03
6.530128E+03	2.152198E-01	4.035155E-03
6.540022E+03	2.143375E-01	4.066706E-03
6.549916E+03	2.132508E-01	4.093408E-03
6.559810E+03	2.119349E-01	4.114570E-03
6.569704E+03	2.103999E-01	4.130171E-03
6.579598E+03	2.086585E-01	4.140268E-03
6.589492E+03	2.066807E-01	4.144074E-03
6.599387E+03	2.045009E-01	4.142101E-03
6.609281E+03	2.020958E-01	4.133714E-03
6.619175E+03	1.994902E-01	4.119271E-03
6.629069E+03	1.966965E-01	4.098898E-03
6.638963E+03	1.937291E-01	4.072786E-03
6.648857E+03	1.906184E-01	4.041486E-03
6.658751E+03	1.873538E-01	4.004706E-03
6.668645E+03	1.839685E-01	3.963101E-03
6.678540E+03	1.804822E-01	3.917063E-03
6.688434E+03	1.769150E-01	3.867015E-03
6.698328E+03	1.732870E-01	3.813399E-03
6.708222E+03	1.696180E-01	3.756671E-03
6.718116E+03	1.659272E-01	3.697292E-03
6.728010E+03	1.622211E-01	3.635450E-03
6.737904E+03	1.585414E-01	3.572136E-03
6.747799E+03	1.548920E-01	3.507507E-03
6.757693E+03	1.512878E-01	3.441974E-03
6.767587E+03	1.477422E-01	3.375923E-03
6.777481E+03	1.442565E-01	3.309464E-03
6.787375E+03	1.408629E-01	3.243421E-03
6.797269E+03	1.375593E-01	3.177837E-03
6.807163E+03	1.343431E-01	3.112738E-03
6.817057E+03	1.312408E-01	3.048823E-03
6.826952E+03	1.282467E-01	2.986046E-03
6.836846E+03	1.253549E-01	2.924353E-03
6.846740E+03	1.225867E-01	2.864315E-03
6.856634E+03	1.199246E-01	2.805603E-03
6.866528E+03	1.173783E-01	2.748510E-03
6.876422E+03	1.149556E-01	2.693289E-03
6.886316E+03	1.126378E-01	2.639560E-03
6.896211E+03	1.104315E-01	2.587538E-03
6.906105E+03	1.083422E-01	2.537402E-03
6.915999E+03	1.063504E-01	2.488744E-03
6.925893E+03	1.044607E-01	2.441718E-03
6.935787E+03	1.026694E-01	2.396276E-03
6.945681E+03	1.009798E-01	2.352533E-03
6.955575E+03	9.937251E-02	2.310068E-03
6.965469E+03	9.785074E-02	2.268989E-03
6.975364E+03	9.641008E-02	2.229219E-03
6.985258E+03	9.504607E-02	2.190682E-03
6.995152E+03	9.375425E-02	2.153298E-03
7.005046E+03	9.253028E-02	2.116988E-03
7.014940E+03	9.136299E-02	2.081519E-03
7.024834E+03	9.026214E-02	2.047131E-03
7.034728E+03	8.921674E-02	2.013593E-03
7.044623E+03	8.822304E-02	1.980839E-03
7.054517E+03	8.727070E-02	1.948654E-03
7.064411E+03	8.636964E-02	1.917279E-03
7.074305E+03	8.550991E-02	1.886509E-03
7.084199E+03	8.468206E-02	1.856156E-03
7.094093E+03	8.389613E-02	1.826460E-03
7.103987E+03	8.313672E-02	1.797104E-03
7.113881E+03	8.241403E-02	1.768333E-03
7.123776E+03	8.171326E-02	1.739849E-03
7.133670E+03	8.103863E-02	1.711769E-03
7.143564E+03	8.038825E-02	1.684079E-03
7.153458E+03	7.976645E-02	1.656895E-03
7.163352E+03	7.915949E-02	1.629960E-03
7.173246E+03	7.857204E-02	1.603402E-03
7.183140E+03	7.800284E-02	1.577230E-03
7.193035E+03	7.745073E-02	1.551455E-03
7.202929E+03	7.691469E-02	1.526094E-03
7.212823E+03	7.639382E-02	1.501168E-03
7.222717E+03	7.588152E-02	1.476591E-03
7.232611E+03	7.538874E-02	1.452623E-03
7.242505E+03	7.490909E-02	1.429184E-03
7.252399E+03	7.443629E-02	1.406207E-03
7.262293E+03	7.398141E-02	1.383954E-03
7.272188E+03	7.353269E-02	1.362260E-03
7.282082E+03	7.310121E-02	1.341390E-03
7.291976E+03	7.267541E-02	1.321190E-03
7.301870E+03	7.226081E-02	1.301827E-03
7.311764E+03	7.185726E-02	1.283365E-03
7.321658E+03	7.146464E-02	1.265869E-03
7.331552E+03	7.108285E-02	1.249409E-03
7.341447E+03	7.071182E-02	1.234054E-03
7.351341E+03	7.035142E-02	1.219877E-03
7.361235E+03	7.000157E-02	1.206951E-03
7.371129E+03	6.966207E-02	1.195345E-03
7.381023E+03	6.932734E-02	1.185040E-03
7.390917E+03	6.900794E-02	1.176288E-03
7.400811E+03	6.869274E-02	1.168969E-03
7.410705E+03	6.838672E-02	1.163238E-03
7.420600E+03	6.809468E-02	1.159237E-03
7.430494E+03	6.780529E-02	1.156834E-03
7.440388E+03	6.752319E-02	1.156160E-03
7.450282E+03	6.724751E-02	1.157245E-03
7.460176E+03	6.697725E-02	1.160110E-03
7.470070E+03	6.671126E-02	1.164740E-03
7.479964E+03	6.644315E-02	1.170978E-03
7.489859E+03	6.618198E-02	1.178928E-03
7.499753E+03	6.592107E-02	1.188411E-03
7.509647E+03	6.565366E-02	1.199237E-03
7.519541E+03	6.538330E-02	1.211396E-03
7.529435E+03	6.511341E-02	1.224877E-03
7.539329E+03	6.483197E-02	1.239373E-03
7.549223E+03	6.454236E-02	1.254863E-03
7.559117E+03	6.424283E-02	1.271226E-03
7.569012E+03	6.393167E-02	1.288340E-03
7.578906E+03	6.360220E-02	1.305979E-03
7.588800E+03	6.326310E-02	1.324227E-03
7.598694E+03	6.290295E-02	1.342756E-03
7.608588E+03	6.253074E-02	1.361664E-03
7.618482E+03	6.213561E-02	1.380624E-03
7.628376E+03	6.172205E-02	1.399640E-03
7.638271E+03	6.128978E-02	1.418616E-03
7.648165E+03	6.083886E-02	1.437465E-03
7.658059E+03	6.036962E-02	1.456109E-03
7.667953E+03	5.988266E-02	1.474481E-03
7.677847E+03	5.937882E-02	1.492521E-03
