#wls	flux	fluxerr
1.583061E+03	5.633358E-02	7.178904E-03
1.622638E+03	5.766800E-02	7.267463E-03
1.662214E+03	5.896086E-02	7.345879E-03
1.701791E+03	6.022080E-02	7.415323E-03
1.741367E+03	6.144644E-02	7.475706E-03
1.780944E+03	6.263226E-02	7.526452E-03
1.820520E+03	6.376024E-02	7.565548E-03
1.860097E+03	6.484376E-02	7.594774E-03
1.899673E+03	6.586411E-02	7.612125E-03
1.939250E+03	6.680692E-02	7.616223E-03
1.978827E+03	6.770723E-02	7.611342E-03
2.018403E+03	6.859952E-02	7.601485E-03
2.057980E+03	6.958057E-02	7.597239E-03
2.097556E+03	7.079464E-02	7.613668E-03
2.137133E+03	7.238800E-02	7.665093E-03
2.176709E+03	7.444331E-02	7.758205E-03
2.216286E+03	7.696570E-02	7.891149E-03
2.255862E+03	7.988007E-02	8.053899E-03
2.295439E+03	8.313318E-02	8.239068E-03
2.335015E+03	8.667254E-02	8.439682E-03
2.374592E+03	9.050494E-02	8.654772E-03
2.414168E+03	9.463334E-02	8.882948E-03
2.453745E+03	9.908900E-02	9.125395E-03
2.493321E+03	1.039274E-01	9.385252E-03
2.532898E+03	1.091927E-01	9.664250E-03
2.572475E+03	1.149281E-01	9.963718E-03
2.612051E+03	1.211513E-01	1.028248E-02
2.651628E+03	1.278969E-01	1.062067E-02
2.691204E+03	1.351608E-01	1.097500E-02
2.730781E+03	1.429198E-01	1.134072E-02
2.770357E+03	1.511087E-01	1.170998E-02
2.809934E+03	1.597097E-01	1.207899E-02
2.849510E+03	1.685939E-01	1.243596E-02
2.889087E+03	1.777070E-01	1.277548E-02
2.928663E+03	1.868739E-01	1.308415E-02
2.968240E+03	1.960032E-01	1.335567E-02
2.978134E+03	1.982552E-01	1.341615E-02
2.988028E+03	2.004865E-01	1.347314E-02
2.997922E+03	2.026944E-01	1.352651E-02
3.007816E+03	2.048765E-01	1.357612E-02
3.017710E+03	2.070608E-01	1.362386E-02
3.027605E+03	2.092175E-01	1.366779E-02
3.037499E+03	2.113127E-01	1.370578E-02
3.047393E+03	2.134023E-01	1.374149E-02
3.057287E+03	2.154530E-01	1.377283E-02
3.067181E+03	2.174610E-01	1.379961E-02
3.077075E+03	2.194226E-01	1.382168E-02
3.086969E+03	2.213650E-01	1.384081E-02
3.096864E+03	2.232228E-01	1.385299E-02
3.106758E+03	2.250542E-01	1.386192E-02
3.116652E+03	2.268242E-01	1.386552E-02
3.126546E+03	2.285295E-01	1.386368E-02
3.136440E+03	2.301659E-01	1.385626E-02
3.146334E+03	2.317298E-01	1.384315E-02
3.156228E+03	2.332171E-01	1.382422E-02
3.166122E+03	2.346564E-01	1.380128E-02
3.176017E+03	2.359797E-01	1.377043E-02
3.185911E+03	2.372474E-01	1.373535E-02
3.195805E+03	2.384239E-01	1.369409E-02
3.205699E+03	2.394723E-01	1.364469E-02
3.215593E+03	2.404867E-01	1.359266E-02
3.225487E+03	2.413659E-01	1.353239E-02
3.235381E+03	2.421384E-01	1.346565E-02
3.245276E+03	2.428334E-01	1.339423E-02
3.255170E+03	2.433817E-01	1.331447E-02
3.265064E+03	2.438450E-01	1.322993E-02
3.274958E+03	2.441873E-01	1.313879E-02
3.284852E+03	2.444048E-01	1.304104E-02
3.294746E+03	2.444943E-01	1.293670E-02
3.304640E+03	2.444523E-01	1.282576E-02
3.314534E+03	2.442757E-01	1.270826E-02
3.324429E+03	2.439936E-01	1.258589E-02
3.334323E+03	2.435388E-01	1.245538E-02
3.344217E+03	2.429727E-01	1.232007E-02
3.354111E+03	2.422608E-01	1.217839E-02
3.364005E+03	2.414009E-01	1.203045E-02
3.373899E+03	2.403915E-01	1.187636E-02
3.383793E+03	2.392313E-01	1.171626E-02
3.393688E+03	2.379192E-01	1.155032E-02
3.403582E+03	2.364857E-01	1.138020E-02
3.413476E+03	2.348703E-01	1.120318E-02
3.423370E+03	2.331348E-01	1.102242E-02
3.433264E+03	2.312512E-01	1.083675E-02
3.443158E+03	2.292235E-01	1.064655E-02
3.453052E+03	2.270569E-01	1.045219E-02
3.462946E+03	2.247601E-01	1.025422E-02
3.472841E+03	2.223458E-01	1.005335E-02
3.482735E+03	2.198559E-01	9.851570E-03
3.492629E+03	2.172508E-01	9.647181E-03
3.502523E+03	2.146015E-01	9.443425E-03
3.512417E+03	2.118701E-01	9.238670E-03
3.522311E+03	2.091263E-01	9.036002E-03
3.532205E+03	2.063586E-01	8.834918E-03
3.542100E+03	2.035820E-01	8.636056E-03
3.551994E+03	2.008106E-01	8.439995E-03
3.561888E+03	1.980576E-01	8.247255E-03
3.571782E+03	1.953590E-01	8.059282E-03
3.581676E+03	1.926780E-01	7.874478E-03
3.591570E+03	1.900487E-01	7.694193E-03
3.601464E+03	1.875030E-01	7.519622E-03
3.611358E+03	1.850252E-01	7.350032E-03
3.621253E+03	1.826222E-01	7.185598E-03
3.631147E+03	1.802779E-01	7.025599E-03
3.641041E+03	1.780410E-01	6.871825E-03
3.650935E+03	1.758929E-01	6.723440E-03
3.660829E+03	1.738572E-01	6.581224E-03
3.670723E+03	1.718939E-01	6.443546E-03
3.680617E+03	1.700251E-01	6.311135E-03
3.690512E+03	1.682709E-01	6.184618E-03
3.700406E+03	1.665907E-01	6.062389E-03
3.710300E+03	1.650228E-01	5.945746E-03
3.720194E+03	1.635266E-01	5.833110E-03
3.730088E+03	1.621383E-01	5.725683E-03
3.739982E+03	1.608359E-01	5.622578E-03
3.749876E+03	1.595976E-01	5.522956E-03
3.759770E+03	1.584574E-01	5.427909E-03
3.769665E+03	1.573927E-01	5.336579E-03
3.779559E+03	1.563996E-01	5.248754E-03
3.789453E+03	1.554738E-01	5.164230E-03
3.799347E+03	1.546287E-01	5.083383E-03
3.809241E+03	1.538243E-01	5.004838E-03
3.819135E+03	1.530739E-01	4.928993E-03
3.829029E+03	1.523727E-01	4.855657E-03
3.838924E+03	1.517335E-01	4.785192E-03
3.848818E+03	1.511170E-01	4.716332E-03
3.858712E+03	1.505530E-01	4.649989E-03
3.868606E+03	1.500031E-01	4.584957E-03
3.878500E+03	1.494968E-01	4.522134E-03
3.888394E+03	1.489964E-01	4.460372E-03
3.898288E+03	1.485313E-01	4.400563E-03
3.908182E+03	1.480647E-01	4.341617E-03
3.918077E+03	1.476263E-01	4.284420E-03
3.927971E+03	1.471963E-01	4.228410E-03
3.937865E+03	1.467720E-01	4.173530E-03
3.947759E+03	1.463349E-01	4.119282E-03
3.957653E+03	1.459149E-01	4.066544E-03
3.967547E+03	1.454942E-01	4.014840E-03
3.977441E+03	1.450711E-01	3.964160E-03
3.987336E+03	1.446287E-01	3.914084E-03
3.997230E+03	1.441976E-01	3.865479E-03
4.007124E+03	1.437612E-01	3.817934E-03
4.017018E+03	1.433192E-01	3.771479E-03
4.026912E+03	1.428712E-01	3.726146E-03
4.036806E+03	1.424172E-01	3.681975E-03
4.046700E+03	1.419420E-01	3.638622E-03
4.056594E+03	1.414763E-01	3.596913E-03
4.066489E+03	1.410051E-01	3.556504E-03
4.076383E+03	1.405289E-01	3.517445E-03
4.086277E+03	1.400332E-01	3.479417E-03
4.096171E+03	1.395481E-01	3.443209E-03
4.106065E+03	1.390594E-01	3.408498E-03
4.115959E+03	1.385674E-01	3.375326E-03
4.125853E+03	1.380581E-01	3.343385E-03
4.135748E+03	1.375605E-01	3.313412E-03
4.145642E+03	1.370601E-01	3.285082E-03
4.155536E+03	1.365427E-01	3.258076E-03
4.165430E+03	1.360360E-01	3.233085E-03
4.175324E+03	1.355111E-01	3.209434E-03
4.185218E+03	1.349948E-01	3.187777E-03
4.195112E+03	1.344577E-01	3.167429E-03
4.205006E+03	1.339119E-01	3.148650E-03
4.214901E+03	1.333686E-01	3.131634E-03
4.224795E+03	1.327982E-01	3.115601E-03
4.234689E+03	1.322115E-01	3.100725E-03
4.244583E+03	1.316057E-01	3.086855E-03
4.254477E+03	1.309778E-01	3.073836E-03
4.264371E+03	1.303251E-01	3.061514E-03
4.274265E+03	1.296456E-01	3.049753E-03
4.284159E+03	1.289379E-01	3.038433E-03
4.294054E+03	1.281887E-01	3.027143E-03
4.303948E+03	1.274233E-01	3.016393E-03
4.313842E+03	1.266287E-01	3.005787E-03
4.323736E+03	1.257931E-01	2.994947E-03
4.333630E+03	1.249420E-01	2.984398E-03
4.343524E+03	1.240520E-01	2.973490E-03
4.353418E+03	1.231370E-01	2.962471E-03
4.363313E+03	1.221990E-01	2.951306E-03
4.373207E+03	1.212402E-01	2.939970E-03
4.383101E+03	1.202633E-01	2.928449E-03
4.392995E+03	1.192710E-01	2.916742E-03
4.402889E+03	1.182665E-01	2.904854E-03
4.412783E+03	1.172414E-01	2.892518E-03
4.422677E+03	1.162220E-01	2.880317E-03
4.432571E+03	1.151887E-01	2.867718E-03
4.442466E+03	1.141564E-01	2.855030E-03
4.452360E+03	1.131390E-01	2.842561E-03
4.462254E+03	1.121177E-01	2.829797E-03
4.472148E+03	1.110958E-01	2.816781E-03
4.482042E+03	1.100978E-01	2.804094E-03
4.491936E+03	1.091155E-01	2.791505E-03
4.501830E+03	1.081414E-01	2.778792E-03
4.511725E+03	1.071987E-01	2.766527E-03
4.521619E+03	1.062693E-01	2.754226E-03
4.531513E+03	1.053659E-01	2.742198E-03
4.541407E+03	1.044905E-01	2.730486E-03
4.551301E+03	1.036454E-01	2.719133E-03
4.561195E+03	1.028227E-01	2.707925E-03
4.571089E+03	1.020436E-01	2.697416E-03
4.580983E+03	1.012906E-01	2.687134E-03
4.590878E+03	1.005748E-01	2.677371E-03
4.600772E+03	9.989737E-02	2.668159E-03
4.610666E+03	9.925949E-02	2.659526E-03
4.620560E+03	9.866199E-02	2.651495E-03
4.630454E+03	9.810552E-02	2.644086E-03
4.640348E+03	9.758141E-02	2.637066E-03
4.650242E+03	9.709902E-02	2.630688E-03
4.660137E+03	9.666708E-02	2.625191E-03
4.670031E+03	9.625847E-02	2.619842E-03
4.679925E+03	9.589921E-02	2.615349E-03
4.689819E+03	9.557943E-02	2.611445E-03
4.699713E+03	9.528910E-02	2.607858E-03
4.709607E+03	9.504415E-02	2.605024E-03
4.719501E+03	9.482530E-02	2.602416E-03
4.729395E+03	9.463916E-02	2.600215E-03
4.739290E+03	9.447472E-02	2.598117E-03
4.749184E+03	9.434660E-02	2.596525E-03
4.759078E+03	9.423483E-02	2.594887E-03
4.768972E+03	9.414503E-02	2.593358E-03
4.778866E+03	9.407418E-02	2.591852E-03
4.788760E+03	9.401914E-02	2.590283E-03
4.798654E+03	9.397685E-02	2.588565E-03
4.808549E+03	9.393582E-02	2.586381E-03
4.818443E+03	9.391009E-02	2.584117E-03
4.828337E+03	9.388007E-02	2.581234E-03
4.838231E+03	9.385171E-02	2.577897E-03
4.848125E+03	9.381449E-02	2.573819E-03
4.858019E+03	9.378325E-02	2.569411E-03
4.867913E+03	9.373973E-02	2.564174E-03
4.877807E+03	9.369945E-02	2.558538E-03
4.887702E+03	9.364491E-02	2.552029E-03
4.897596E+03	9.357568E-02	2.544645E-03
4.907490E+03	9.350829E-02	2.536842E-03
4.917384E+03	9.342636E-02	2.528182E-03
4.927278E+03	9.334699E-02	2.519139E-03
4.937172E+03	9.325448E-02	2.509296E-03
4.947066E+03	9.314994E-02	2.498696E-03
4.956961E+03	9.305109E-02	2.487826E-03
4.966855E+03	9.294300E-02	2.476295E-03
4.976749E+03	9.284359E-02	2.464594E-03
4.986643E+03	9.273829E-02	2.452346E-03
4.996537E+03	9.263702E-02	2.439826E-03
5.006431E+03	9.253350E-02	2.426882E-03
5.016325E+03	9.244574E-02	2.413997E-03
5.026219E+03	9.235932E-02	2.400807E-03
5.036114E+03	9.228404E-02	2.387577E-03
5.046008E+03	9.222147E-02	2.374360E-03
5.055902E+03	9.217303E-02	2.361204E-03
5.065796E+03	9.213197E-02	2.347948E-03
5.075690E+03	9.211535E-02	2.335037E-03
5.085584E+03	9.210795E-02	2.322096E-03
5.095478E+03	9.211827E-02	2.309354E-03
5.105373E+03	9.213864E-02	2.296630E-03
5.115267E+03	9.218488E-02	2.284331E-03
5.125161E+03	9.224071E-02	2.272067E-03
5.135055E+03	9.231341E-02	2.260033E-03
5.144949E+03	9.240198E-02	2.248218E-03
5.154843E+03	9.250518E-02	2.236610E-03
5.164737E+03	9.262145E-02	2.225188E-03
5.174631E+03	9.274105E-02	2.213739E-03
5.184526E+03	9.286992E-02	2.202428E-03
5.194420E+03	9.300588E-02	2.191226E-03
5.204314E+03	9.314656E-02	2.180104E-03
5.214208E+03	9.328948E-02	2.169030E-03
5.224102E+03	9.342408E-02	2.157789E-03
5.233996E+03	9.355570E-02	2.146540E-03
5.243890E+03	9.368170E-02	2.135255E-03
5.253785E+03	9.379939E-02	2.123910E-03
5.263679E+03	9.390619E-02	2.112482E-03
5.273573E+03	9.399155E-02	2.100777E-03
5.283467E+03	9.406908E-02	2.089140E-03
5.293361E+03	9.412048E-02	2.077207E-03
5.303255E+03	9.415171E-02	2.065155E-03
5.313149E+03	9.416095E-02	2.052988E-03
5.323043E+03	9.413862E-02	2.040542E-03
5.332938E+03	9.409952E-02	2.028185E-03
5.342832E+03	9.402689E-02	2.015598E-03
5.352726E+03	9.392837E-02	2.002990E-03
5.362620E+03	9.380436E-02	1.990410E-03
5.372514E+03	9.364819E-02	1.977757E-03
5.382408E+03	9.347818E-02	1.965457E-03
5.392302E+03	9.328166E-02	1.953276E-03
5.402196E+03	9.307800E-02	1.941653E-03
5.412091E+03	9.285523E-02	1.930358E-03
5.421985E+03	9.261729E-02	1.919460E-03
5.431879E+03	9.238388E-02	1.909328E-03
5.441773E+03	9.215119E-02	1.899846E-03
5.451667E+03	9.191546E-02	1.890895E-03
5.461561E+03	9.168850E-02	1.882678E-03
5.471455E+03	9.147418E-02	1.875233E-03
5.481350E+03	9.127630E-02	1.868596E-03
5.491244E+03	9.109850E-02	1.862798E-03
5.501138E+03	9.093666E-02	1.857714E-03
5.511032E+03	9.080947E-02	1.853685E-03
5.520926E+03	9.070484E-02	1.850424E-03
5.530820E+03	9.063354E-02	1.848110E-03
5.540714E+03	9.059848E-02	1.846766E-03
5.550608E+03	9.060247E-02	1.846411E-03
5.560503E+03	9.064050E-02	1.846906E-03
5.570397E+03	9.073031E-02	1.848579E-03
5.580291E+03	9.085901E-02	1.851131E-03
5.590185E+03	9.103641E-02	1.854730E-03
5.600079E+03	9.126454E-02	1.859385E-03
5.609973E+03	9.154523E-02	1.865103E-03
5.619867E+03	9.187247E-02	1.871729E-03
5.629762E+03	9.226310E-02	1.879576E-03
5.639656E+03	9.270297E-02	1.888328E-03
5.649550E+03	9.320860E-02	1.898292E-03
5.659444E+03	9.376522E-02	1.909137E-03
5.669338E+03	9.438120E-02	1.921006E-03
5.679232E+03	9.505682E-02	1.933875E-03
5.689126E+03	9.578414E-02	1.947554E-03
5.699020E+03	9.657899E-02	1.962337E-03
5.708915E+03	9.742483E-02	1.977858E-03
5.718809E+03	9.833727E-02	1.994405E-03
5.728703E+03	9.929910E-02	2.011600E-03
5.738597E+03	1.003175E-01	2.029557E-03
5.748491E+03	1.013912E-01	2.048224E-03
5.758385E+03	1.025192E-01	2.067547E-03
5.768279E+03	1.036913E-01	2.087295E-03
5.778174E+03	1.049237E-01	2.107760E-03
5.788068E+03	1.061978E-01	2.128538E-03
5.797962E+03	1.075300E-01	2.149932E-03
5.807856E+03	1.089018E-01	2.171540E-03
5.817750E+03	1.103215E-01	2.193498E-03
5.827644E+03	1.117890E-01	2.215775E-03
5.837538E+03	1.133044E-01	2.238348E-03
5.847432E+03	1.148686E-01	2.261203E-03
5.857327E+03	1.164731E-01	2.284147E-03
5.867221E+03	1.181391E-01	2.307570E-03
5.877115E+03	1.198494E-01	2.331109E-03
5.887009E+03	1.216170E-01	2.354990E-03
5.896903E+03	1.234558E-01	2.379460E-03
5.906797E+03	1.253498E-01	2.404180E-03
5.916691E+03	1.273139E-01	2.429416E-03
5.926586E+03	1.293427E-01	2.455041E-03
5.936480E+03	1.314635E-01	2.481550E-03
5.946374E+03	1.336717E-01	2.508830E-03
5.956268E+03	1.359622E-01	2.536765E-03
5.966162E+03	1.383638E-01	2.565871E-03
5.976056E+03	1.408597E-01	2.595814E-03
5.985950E+03	1.434789E-01	2.627112E-03
5.995844E+03	1.462026E-01	2.659403E-03
6.005739E+03	1.490468E-01	2.692968E-03
6.015633E+03	1.520143E-01	2.727852E-03
6.025527E+03	1.551066E-01	2.764076E-03
6.035421E+03	1.583230E-01	2.801636E-03
6.045315E+03	1.616472E-01	2.840256E-03
6.055209E+03	1.651005E-01	2.880338E-03
6.065103E+03	1.686607E-01	2.921530E-03
6.074998E+03	1.723012E-01	2.963426E-03
6.084892E+03	1.760344E-01	3.006308E-03
6.094786E+03	1.798102E-01	3.049411E-03
6.104680E+03	1.836178E-01	3.092664E-03
6.114574E+03	1.874267E-01	3.135690E-03
6.124468E+03	1.912016E-01	3.178054E-03
6.134362E+03	1.949184E-01	3.219537E-03
6.144256E+03	1.984829E-01	3.258793E-03
6.154151E+03	2.018950E-01	3.296057E-03
6.164045E+03	2.050867E-01	3.330464E-03
6.173939E+03	2.080047E-01	3.361422E-03
6.183833E+03	2.105972E-01	3.388370E-03
6.193727E+03	2.127988E-01	3.410546E-03
6.203621E+03	2.146078E-01	3.428200E-03
6.213515E+03	2.159707E-01	3.440746E-03
6.223410E+03	2.169395E-01	3.449259E-03
6.233304E+03	2.175165E-01	3.453987E-03
6.243198E+03	2.177701E-01	3.456200E-03
6.253092E+03	2.177566E-01	3.456944E-03
6.262986E+03	2.175531E-01	3.457564E-03
6.272880E+03	2.171804E-01	3.458490E-03
6.282774E+03	2.167118E-01	3.460914E-03
6.292668E+03	2.161974E-01	3.465520E-03
6.302563E+03	2.156818E-01	3.472874E-03
6.312457E+03	2.151851E-01	3.483155E-03
6.322351E+03	2.147755E-01	3.497324E-03
6.332245E+03	2.144599E-01	3.515364E-03
6.342139E+03	2.142569E-01	3.537459E-03
6.352033E+03	2.141606E-01	3.563398E-03
6.361927E+03	2.142136E-01	3.593783E-03
6.371822E+03	2.143799E-01	3.627923E-03
6.381716E+03	2.146911E-01	3.666260E-03
6.391610E+03	2.151011E-01	3.707926E-03
6.401504E+03	2.156318E-01	3.753217E-03
6.411398E+03	2.162286E-01	3.801096E-03
6.421292E+03	2.168880E-01	3.851408E-03
6.431186E+03	2.176036E-01	3.903945E-03
6.441080E+03	2.183119E-01	3.957462E-03
6.450975E+03	2.190025E-01	4.011647E-03
6.460869E+03	2.196461E-01	4.065825E-03
6.470763E+03	2.202127E-01	4.119296E-03
6.480657E+03	2.206729E-01	4.171348E-03
6.490551E+03	2.209983E-01	4.221264E-03
6.500445E+03	2.211619E-01	4.268342E-03
6.510339E+03	2.211393E-01	4.311904E-03
6.520234E+03	2.209083E-01	4.351311E-03
6.530128E+03	2.204501E-01	4.385971E-03
6.540022E+03	2.197495E-01	4.415356E-03
6.549916E+03	2.187759E-01	4.438625E-03
6.559810E+03	2.175592E-01	4.456154E-03
6.569704E+03	2.160767E-01	4.467268E-03
6.579598E+03	2.143101E-01	4.471372E-03
6.589492E+03	2.123000E-01	4.469109E-03
6.599387E+03	2.100352E-01	4.460060E-03
6.609281E+03	2.075087E-01	4.443897E-03
6.619175E+03	2.047695E-01	4.421514E-03
6.629069E+03	2.017987E-01	4.392362E-03
6.638963E+03	1.986324E-01	4.357102E-03
6.648857E+03	1.953074E-01	4.316446E-03
6.658751E+03	1.918116E-01	4.270047E-03
6.668645E+03	1.881846E-01	4.218723E-03
6.678540E+03	1.844654E-01	4.163309E-03
6.688434E+03	1.806453E-01	4.103591E-03
6.698328E+03	1.767639E-01	4.040455E-03
6.708222E+03	1.728439E-01	3.974434E-03
6.718116E+03	1.689218E-01	3.906394E-03
6.728010E+03	1.649890E-01	3.836179E-03
6.737904E+03	1.610801E-01	3.764637E-03
6.747799E+03	1.572131E-01	3.692251E-03
6.757693E+03	1.534045E-01	3.619474E-03
6.767587E+03	1.496689E-01	3.546726E-03
6.777481E+03	1.460193E-01	3.474393E-03
6.787375E+03	1.424666E-01	3.402816E-03
6.797269E+03	1.390203E-01	3.332304E-03
6.807163E+03	1.356761E-01	3.262837E-03
6.817057E+03	1.324637E-01	3.195209E-03
6.826952E+03	1.293753E-01	3.129318E-03
6.836846E+03	1.264138E-01	3.065313E-03
6.846740E+03	1.235807E-01	3.003305E-03
6.856634E+03	1.208658E-01	2.943120E-03
6.866528E+03	1.182896E-01	2.885324E-03
6.876422E+03	1.158296E-01	2.829434E-03
6.886316E+03	1.135034E-01	2.775942E-03
6.896211E+03	1.112976E-01	2.724575E-03
6.906105E+03	1.091986E-01	2.675058E-03
6.915999E+03	1.072214E-01	2.627802E-03
6.925893E+03	1.053422E-01	2.582274E-03
6.935787E+03	1.035656E-01	2.538623E-03
6.945681E+03	1.018949E-01	2.496976E-03
6.955575E+03	1.003070E-01	2.456798E-03
6.965469E+03	9.880538E-02	2.418207E-03
6.975364E+03	9.739302E-02	2.381311E-03
6.985258E+03	9.604739E-02	2.345586E-03
6.995152E+03	9.477184E-02	2.311143E-03
7.005046E+03	9.356127E-02	2.277882E-03
7.014940E+03	9.241073E-02	2.245710E-03
7.024834E+03	9.132356E-02	2.214731E-03
7.034728E+03	9.027927E-02	2.184472E-03
7.044623E+03	8.928177E-02	2.155053E-03
7.054517E+03	8.832721E-02	2.126403E-03
7.064411E+03	8.740430E-02	2.098276E-03
7.074305E+03	8.652524E-02	2.070988E-03
7.084199E+03	8.567925E-02	2.044305E-03
7.094093E+03	8.486356E-02	2.018185E-03
7.103987E+03	8.407574E-02	1.992597E-03
7.113881E+03	8.330619E-02	1.967338E-03
7.123776E+03	8.256761E-02	1.942735E-03
7.133670E+03	8.185077E-02	1.918599E-03
7.143564E+03	8.114688E-02	1.894752E-03
7.153458E+03	8.046886E-02	1.871525E-03
7.163352E+03	7.980106E-02	1.848583E-03
7.173246E+03	7.915648E-02	1.826259E-03
7.183140E+03	7.851997E-02	1.804234E-03
7.193035E+03	7.789757E-02	1.782682E-03
7.202929E+03	7.729529E-02	1.761772E-03
7.212823E+03	7.669861E-02	1.741208E-03
7.222717E+03	7.611372E-02	1.721167E-03
7.232611E+03	7.553999E-02	1.701669E-03
7.242505E+03	7.497692E-02	1.682742E-03
7.252399E+03	7.442407E-02	1.664412E-03
7.262293E+03	7.388102E-02	1.646708E-03
7.272188E+03	7.334752E-02	1.629663E-03
7.282082E+03	7.282332E-02	1.613311E-03
7.291976E+03	7.230829E-02	1.597688E-03
7.301870E+03	7.180231E-02	1.582830E-03
7.311764E+03	7.129900E-02	1.568638E-03
7.321658E+03	7.081114E-02	1.555430E-03
7.331552E+03	7.033239E-02	1.543108E-03
7.341447E+03	6.985657E-02	1.531573E-03
7.351341E+03	6.939633E-02	1.521141E-03
7.361235E+03	6.893932E-02	1.511577E-03
7.371129E+03	6.849186E-02	1.503056E-03
7.381023E+03	6.806017E-02	1.495749E-03
7.390917E+03	6.763196E-02	1.489419E-03
7.400811E+03	6.721341E-02	1.484232E-03
7.410705E+03	6.680438E-02	1.480215E-03
7.420600E+03	6.640475E-02	1.477392E-03
7.430494E+03	6.601424E-02	1.475782E-03
7.440388E+03	6.563249E-02	1.475399E-03
7.450282E+03	6.525905E-02	1.476251E-03
7.460176E+03	6.489339E-02	1.478338E-03
7.470070E+03	6.452897E-02	1.481484E-03
7.479964E+03	6.417672E-02	1.485905E-03
7.489859E+03	6.382411E-02	1.491275E-03
7.499753E+03	6.348171E-02	1.497803E-03
7.509647E+03	6.313685E-02	1.505150E-03
7.519541E+03	6.279982E-02	1.513520E-03
7.529435E+03	6.245786E-02	1.522562E-03
7.539329E+03	6.211530E-02	1.532337E-03
7.549223E+03	6.177074E-02	1.542762E-03
7.559117E+03	6.142262E-02	1.553752E-03
7.569012E+03	6.106937E-02	1.565219E-03
7.578906E+03	6.070940E-02	1.577072E-03
7.588800E+03	6.034114E-02	1.589218E-03
7.598694E+03	5.996306E-02	1.601564E-03
7.608588E+03	5.957372E-02	1.614018E-03
7.618482E+03	5.916641E-02	1.626340E-03
7.628376E+03	5.875107E-02	1.638744E-03
7.638271E+03	5.831652E-02	1.650864E-03
7.648165E+03	5.787388E-02	1.662957E-03
7.658059E+03	5.741311E-02	1.674680E-03
7.667953E+03	5.694036E-02	1.686156E-03
7.677847E+03	5.645654E-02	1.697359E-03
