#wls	flux	fluxerr
1.583061E+03	6.748317E-02	3.691997E-03
1.622638E+03	6.910686E-02	3.750401E-03
1.662214E+03	7.071880E-02	3.806591E-03
1.701791E+03	7.232974E-02	3.861171E-03
1.741367E+03	7.392346E-02	3.913306E-03
1.780944E+03	7.547576E-02	3.961774E-03
1.820520E+03	7.699839E-02	4.007271E-03
1.860097E+03	7.847321E-02	4.048937E-03
1.899673E+03	7.985127E-02	4.084370E-03
1.939250E+03	8.114201E-02	4.114224E-03
1.978827E+03	8.231390E-02	4.137077E-03
2.018403E+03	8.342996E-02	4.156281E-03
2.057980E+03	8.456931E-02	4.175870E-03
2.097556E+03	8.589839E-02	4.204020E-03
2.137133E+03	8.754472E-02	4.246734E-03
2.176709E+03	8.961600E-02	4.308825E-03
2.216286E+03	9.205816E-02	4.387214E-03
2.255862E+03	9.476105E-02	4.476273E-03
2.295439E+03	9.761337E-02	4.570508E-03
2.335015E+03	1.005391E-01	4.666229E-03
2.374592E+03	1.035158E-01	4.762332E-03
2.414168E+03	1.065088E-01	4.857192E-03
2.453745E+03	1.095100E-01	4.950446E-03
2.493321E+03	1.125117E-01	5.041757E-03
2.532898E+03	1.155209E-01	5.131452E-03
2.572475E+03	1.184969E-01	5.217751E-03
2.612051E+03	1.213913E-01	5.298604E-03
2.651628E+03	1.242471E-01	5.375982E-03
2.691204E+03	1.269868E-01	5.446562E-03
2.730781E+03	1.296112E-01	5.510448E-03
2.770357E+03	1.321148E-01	5.567463E-03
2.809934E+03	1.344396E-01	5.615248E-03
2.849510E+03	1.365432E-01	5.652163E-03
2.889087E+03	1.383776E-01	5.676418E-03
2.928663E+03	1.399155E-01	5.687120E-03
2.968240E+03	1.410562E-01	5.680481E-03
2.978134E+03	1.412889E-01	5.676540E-03
2.988028E+03	1.414942E-01	5.671442E-03
2.997922E+03	1.416473E-01	5.664196E-03
3.007816E+03	1.417959E-01	5.656724E-03
3.017710E+03	1.419164E-01	5.648085E-03
3.027605E+03	1.419851E-01	5.637350E-03
3.037499E+03	1.420493E-01	5.626400E-03
3.047393E+03	1.420838E-01	5.614240E-03
3.057287E+03	1.420876E-01	5.600841E-03
3.067181E+03	1.420356E-01	5.585226E-03
3.077075E+03	1.419753E-01	5.569271E-03
3.086969E+03	1.418819E-01	5.552005E-03
3.096864E+03	1.417546E-01	5.533410E-03
3.106758E+03	1.415929E-01	5.513473E-03
3.116652E+03	1.413723E-01	5.491254E-03
3.126546E+03	1.411404E-01	5.468610E-03
3.136440E+03	1.408727E-01	5.444605E-03
3.146334E+03	1.405692E-01	5.419239E-03
3.156228E+03	1.402296E-01	5.392517E-03
3.166122E+03	1.398538E-01	5.364447E-03
3.176017E+03	1.394185E-01	5.334141E-03
3.185911E+03	1.389708E-01	5.303421E-03
3.195805E+03	1.384875E-01	5.271400E-03
3.205699E+03	1.379688E-01	5.238104E-03
3.215593E+03	1.374152E-01	5.203560E-03
3.225487E+03	1.368273E-01	5.167799E-03
3.235381E+03	1.362058E-01	5.130857E-03
3.245276E+03	1.355514E-01	5.092774E-03
3.255170E+03	1.348651E-01	5.053592E-03
3.265064E+03	1.341478E-01	5.013362E-03
3.274958E+03	1.334007E-01	4.972134E-03
3.284852E+03	1.326250E-01	4.929963E-03
3.294746E+03	1.318221E-01	4.886908E-03
3.304640E+03	1.309714E-01	4.842222E-03
3.314534E+03	1.301187E-01	4.797603E-03
3.324429E+03	1.292436E-01	4.752299E-03
3.334323E+03	1.283478E-01	4.706387E-03
3.344217E+03	1.274332E-01	4.659942E-03
3.354111E+03	1.265018E-01	4.613042E-03
3.364005E+03	1.255557E-01	4.565772E-03
3.373899E+03	1.245972E-01	4.518215E-03
3.383793E+03	1.236491E-01	4.471204E-03
3.393688E+03	1.226723E-01	4.423324E-03
3.403582E+03	1.216899E-01	4.375420E-03
3.413476E+03	1.207044E-01	4.327580E-03
3.423370E+03	1.197181E-01	4.279889E-03
3.433264E+03	1.187334E-01	4.232431E-03
3.443158E+03	1.177524E-01	4.185283E-03
3.453052E+03	1.167770E-01	4.138511E-03
3.462946E+03	1.158089E-01	4.092171E-03
3.472841E+03	1.148498E-01	4.046322E-03
3.482735E+03	1.139012E-01	4.001017E-03
3.492629E+03	1.129649E-01	3.956310E-03
3.502523E+03	1.120424E-01	3.912255E-03
3.512417E+03	1.111354E-01	3.868904E-03
3.522311E+03	1.102455E-01	3.826310E-03
3.532205E+03	1.093925E-01	3.785151E-03
3.542100E+03	1.085415E-01	3.744217E-03
3.551994E+03	1.077125E-01	3.704189E-03
3.561888E+03	1.069070E-01	3.665114E-03
3.571782E+03	1.061265E-01	3.627037E-03
3.581676E+03	1.053724E-01	3.589999E-03
3.591570E+03	1.046461E-01	3.554039E-03
3.601464E+03	1.039490E-01	3.519193E-03
3.611358E+03	1.032821E-01	3.485493E-03
3.621253E+03	1.026637E-01	3.453536E-03
3.631147E+03	1.020607E-01	3.422204E-03
3.641041E+03	1.014911E-01	3.392090E-03
3.650935E+03	1.009558E-01	3.363213E-03
3.660829E+03	1.004553E-01	3.335585E-03
3.670723E+03	9.999028E-02	3.309213E-03
3.680617E+03	9.956122E-02	3.284101E-03
3.690512E+03	9.916844E-02	3.260250E-03
3.700406E+03	9.882839E-02	3.238187E-03
3.710300E+03	9.850862E-02	3.216835E-03
3.720194E+03	9.822546E-02	3.196719E-03
3.730088E+03	9.797873E-02	3.177823E-03
3.739982E+03	9.776823E-02	3.160127E-03
3.749876E+03	9.759358E-02	3.143609E-03
3.759770E+03	9.745435E-02	3.128242E-03
3.769665E+03	9.735002E-02	3.113999E-03
3.779559E+03	9.729583E-02	3.101354E-03
3.789453E+03	9.725920E-02	3.089255E-03
3.799347E+03	9.725529E-02	3.078178E-03
3.809241E+03	9.728322E-02	3.068084E-03
3.819135E+03	9.734200E-02	3.058932E-03
3.829029E+03	9.743064E-02	3.050680E-03
3.838924E+03	9.754809E-02	3.043285E-03
3.848818E+03	9.769319E-02	3.036704E-03
3.858712E+03	9.788073E-02	3.031385E-03
3.868606E+03	9.807768E-02	3.026294E-03
3.878500E+03	9.829869E-02	3.021880E-03
3.888394E+03	9.854254E-02	3.018097E-03
3.898288E+03	9.880797E-02	3.014900E-03
3.908182E+03	9.909367E-02	3.012242E-03
3.918077E+03	9.939839E-02	3.010079E-03
3.927971E+03	9.972085E-02	3.008367E-03
3.937865E+03	1.000597E-01	3.007060E-03
3.947759E+03	1.004301E-01	3.006605E-03
3.957653E+03	1.007982E-01	3.005984E-03
3.967547E+03	1.011790E-01	3.005644E-03
3.977441E+03	1.015712E-01	3.005546E-03
3.987336E+03	1.019738E-01	3.005651E-03
3.997230E+03	1.023854E-01	3.005923E-03
4.007124E+03	1.028051E-01	3.006325E-03
4.017018E+03	1.032315E-01	3.006822E-03
4.026912E+03	1.036637E-01	3.007382E-03
4.036806E+03	1.041004E-01	3.007970E-03
4.046700E+03	1.045407E-01	3.008557E-03
4.056594E+03	1.049834E-01	3.009109E-03
4.066489E+03	1.054275E-01	3.009598E-03
4.076383E+03	1.058718E-01	3.009992E-03
4.086277E+03	1.063152E-01	3.010263E-03
4.096171E+03	1.067568E-01	3.010381E-03
4.106065E+03	1.071952E-01	3.010315E-03
4.115959E+03	1.076294E-01	3.010037E-03
4.125853E+03	1.080582E-01	3.009516E-03
4.135748E+03	1.084802E-01	3.008722E-03
4.145642E+03	1.088944E-01	3.007622E-03
4.155536E+03	1.092992E-01	3.006185E-03
4.165430E+03	1.096934E-01	3.004376E-03
4.175324E+03	1.100753E-01	3.002164E-03
4.185218E+03	1.104437E-01	2.999511E-03
4.195112E+03	1.107968E-01	2.996384E-03
4.205006E+03	1.111331E-01	2.992745E-03
4.214901E+03	1.114510E-01	2.988559E-03
4.224795E+03	1.117487E-01	2.983788E-03
4.234689E+03	1.120246E-01	2.978400E-03
4.244583E+03	1.122592E-01	2.971884E-03
4.254477E+03	1.124868E-01	2.965163E-03
4.264371E+03	1.126882E-01	2.957736E-03
4.274265E+03	1.128625E-01	2.949588E-03
4.284159E+03	1.130094E-01	2.940716E-03
4.294054E+03	1.131286E-01	2.931121E-03
4.303948E+03	1.132204E-01	2.920817E-03
4.313842E+03	1.132669E-01	2.909350E-03
4.323736E+03	1.133046E-01	2.897662E-03
4.333630E+03	1.133156E-01	2.885301E-03
4.343524E+03	1.133001E-01	2.872279E-03
4.353418E+03	1.132405E-01	2.858153E-03
4.363313E+03	1.131731E-01	2.843850E-03
4.373207E+03	1.130804E-01	2.828931E-03
4.383101E+03	1.129630E-01	2.813415E-03
4.392995E+03	1.128035E-01	2.796877E-03
4.402889E+03	1.126386E-01	2.780232E-03
4.412783E+03	1.124510E-01	2.763058E-03
4.422677E+03	1.122418E-01	2.745382E-03
4.432571E+03	1.119940E-01	2.726799E-03
4.442466E+03	1.117443E-01	2.708207E-03
4.452360E+03	1.114584E-01	2.688773E-03
4.462254E+03	1.111727E-01	2.669385E-03
4.472148E+03	1.108707E-01	2.649645E-03
4.482042E+03	1.105360E-01	2.629169E-03
4.491936E+03	1.102051E-01	2.608824E-03
4.501830E+03	1.098615E-01	2.588221E-03
4.511725E+03	1.094892E-01	2.566988E-03
4.521619E+03	1.091241E-01	2.545969E-03
4.531513E+03	1.087328E-01	2.524385E-03
4.541407E+03	1.083508E-01	2.503066E-03
4.551301E+03	1.079452E-01	2.481245E-03
4.561195E+03	1.075510E-01	2.459734E-03
4.571089E+03	1.071353E-01	2.437778E-03
4.580983E+03	1.067329E-01	2.416170E-03
4.590878E+03	1.063110E-01	2.394166E-03
4.600772E+03	1.059039E-01	2.372542E-03
4.610666E+03	1.054789E-01	2.350560E-03
4.620560E+03	1.050533E-01	2.328614E-03
4.630454E+03	1.046442E-01	2.307075E-03
4.640348E+03	1.042189E-01	2.285222E-03
4.650242E+03	1.038106E-01	2.263785E-03
4.660137E+03	1.033868E-01	2.242051E-03
4.670031E+03	1.029638E-01	2.220381E-03
4.679925E+03	1.025579E-01	2.199118E-03
4.689819E+03	1.021365E-01	2.177566E-03
4.699713E+03	1.017156E-01	2.156068E-03
4.709607E+03	1.012949E-01	2.134617E-03
4.719501E+03	1.008897E-01	2.113535E-03
4.729395E+03	1.004680E-01	2.092148E-03
4.739290E+03	1.000449E-01	2.070779E-03
4.749184E+03	9.961981E-02	2.049415E-03
4.759078E+03	9.920771E-02	2.028365E-03
4.768972E+03	9.877674E-02	2.006976E-03
4.778866E+03	9.834179E-02	1.985557E-03
4.788760E+03	9.790221E-02	1.964100E-03
4.798654E+03	9.745733E-02	1.942593E-03
4.808549E+03	9.700652E-02	1.921027E-03
4.818443E+03	9.654920E-02	1.899394E-03
4.828337E+03	9.608489E-02	1.877691E-03
4.838231E+03	9.561316E-02	1.855913E-03
4.848125E+03	9.513366E-02	1.834058E-03
4.858019E+03	9.466095E-02	1.812410E-03
4.867913E+03	9.416527E-02	1.790403E-03
4.877807E+03	9.364686E-02	1.768053E-03
4.887702E+03	9.313511E-02	1.745922E-03
4.897596E+03	9.261555E-02	1.723742E-03
4.907490E+03	9.208852E-02	1.701524E-03
4.917384E+03	9.155443E-02	1.679282E-03
4.927278E+03	9.101388E-02	1.657032E-03
4.937172E+03	9.046750E-02	1.634792E-03
4.947066E+03	8.991605E-02	1.612581E-03
4.956961E+03	8.936033E-02	1.590419E-03
4.966855E+03	8.880126E-02	1.568326E-03
4.976749E+03	8.822608E-02	1.546085E-03
4.986643E+03	8.766333E-02	1.524202E-03
4.996537E+03	8.710025E-02	1.502455E-03
5.006431E+03	8.653793E-02	1.480867E-03
5.016325E+03	8.597744E-02	1.459460E-03
5.026219E+03	8.540662E-02	1.438032E-03
5.036114E+03	8.485318E-02	1.417054E-03
5.046008E+03	8.430484E-02	1.396320E-03
5.055902E+03	8.374964E-02	1.375636E-03
5.065796E+03	8.321470E-02	1.355450E-03
5.075690E+03	8.268788E-02	1.335563E-03
5.085584E+03	8.215740E-02	1.315787E-03
5.095478E+03	8.164969E-02	1.296548E-03
5.105373E+03	8.114018E-02	1.277455E-03
5.115267E+03	8.065492E-02	1.258919E-03
5.125161E+03	8.018194E-02	1.240750E-03
5.135055E+03	7.970959E-02	1.222770E-03
5.144949E+03	7.926329E-02	1.205370E-03
5.154843E+03	7.881900E-02	1.188182E-03
5.164737E+03	7.840172E-02	1.171584E-03
5.174631E+03	7.798765E-02	1.155218E-03
5.184526E+03	7.758946E-02	1.139275E-03
5.194420E+03	7.721956E-02	1.123934E-03
5.204314E+03	7.685447E-02	1.108851E-03
5.214208E+03	7.651841E-02	1.094377E-03
5.224102E+03	7.618816E-02	1.080176E-03
5.233996E+03	7.587605E-02	1.066427E-03
5.243890E+03	7.559420E-02	1.053298E-03
5.253785E+03	7.531972E-02	1.040466E-03
5.263679E+03	7.506484E-02	1.028104E-03
5.273573E+03	7.484170E-02	1.016375E-03
5.283467E+03	7.462775E-02	1.004972E-03
5.293361E+03	7.443528E-02	9.940612E-04
5.303255E+03	7.426499E-02	9.836524E-04
5.313149E+03	7.412911E-02	9.739051E-04
5.323043E+03	7.400562E-02	9.645285E-04
5.332938E+03	7.390692E-02	9.556859E-04
5.342832E+03	7.383396E-02	9.473892E-04
5.352726E+03	7.378780E-02	9.396510E-04
5.362620E+03	7.376945E-02	9.324839E-04
5.372514E+03	7.377980E-02	9.258985E-04
5.382408E+03	7.383084E-02	9.200438E-04
5.392302E+03	7.390034E-02	9.146419E-04
5.402196E+03	7.400010E-02	9.098404E-04
5.412091E+03	7.413051E-02	9.056446E-04
5.421985E+03	7.429187E-02	9.020570E-04
5.431879E+03	7.448454E-02	8.990711E-04
5.441773E+03	7.470880E-02	8.966760E-04
5.451667E+03	7.496505E-02	8.948624E-04
5.461561E+03	7.525373E-02	8.936213E-04
5.471455E+03	7.557529E-02	8.929443E-04
5.481350E+03	7.591856E-02	8.926862E-04
5.491244E+03	7.630737E-02	8.931141E-04
5.501138E+03	7.673064E-02	8.940832E-04
5.511032E+03	7.718896E-02	8.955871E-04
5.520926E+03	7.768292E-02	8.976189E-04
5.530820E+03	7.821307E-02	9.001717E-04
5.540714E+03	7.878002E-02	9.032392E-04
5.550608E+03	7.937218E-02	9.066758E-04
5.560503E+03	8.001438E-02	9.107525E-04
5.570397E+03	8.069509E-02	9.153239E-04
5.580291E+03	8.141484E-02	9.203829E-04
5.590185E+03	8.216153E-02	9.257802E-04
5.600079E+03	8.296075E-02	9.317916E-04
5.609973E+03	8.380043E-02	9.382676E-04
5.619867E+03	8.468099E-02	9.452000E-04
5.629762E+03	8.558964E-02	9.524334E-04
5.639656E+03	8.655282E-02	9.602498E-04
5.649550E+03	8.754435E-02	9.683451E-04
5.659444E+03	8.859119E-02	9.770052E-04
5.669338E+03	8.968019E-02	9.860711E-04
5.679232E+03	9.079752E-02	9.953782E-04
5.689126E+03	9.197093E-02	1.005218E-03
5.699020E+03	9.317241E-02	1.015272E-03
5.708915E+03	9.443030E-02	1.025835E-03
5.718809E+03	9.571577E-02	1.036582E-03
5.728703E+03	9.705791E-02	1.047814E-03
5.738597E+03	9.842702E-02	1.059198E-03
5.748491E+03	9.985298E-02	1.071044E-03
5.758385E+03	1.013053E-01	1.083010E-03
5.768279E+03	1.028148E-01	1.095414E-03
5.778174E+03	1.043501E-01	1.107910E-03
5.788068E+03	1.059431E-01	1.120822E-03
5.797962E+03	1.075616E-01	1.133799E-03
5.807856E+03	1.092385E-01	1.147176E-03
5.817750E+03	1.109409E-01	1.160596E-03
5.827644E+03	1.126858E-01	1.174224E-03
5.837538E+03	1.144912E-01	1.188238E-03
5.847432E+03	1.163230E-01	1.202273E-03
5.857327E+03	1.181993E-01	1.216505E-03
5.867221E+03	1.201395E-01	1.231124E-03
5.877115E+03	1.221082E-01	1.245757E-03
5.887009E+03	1.241246E-01	1.260593E-03
5.896903E+03	1.261902E-01	1.275637E-03
5.906797E+03	1.283258E-01	1.291092E-03
5.916691E+03	1.304939E-01	1.306573E-03
5.926586E+03	1.327153E-01	1.322283E-03
5.936480E+03	1.349913E-01	1.338230E-03
5.946374E+03	1.373230E-01	1.354420E-03
5.956268E+03	1.397329E-01	1.371071E-03
5.966162E+03	1.421792E-01	1.387771E-03
5.976056E+03	1.446834E-01	1.404730E-03
5.985950E+03	1.472452E-01	1.421948E-03
5.995844E+03	1.498640E-01	1.439422E-03
6.005739E+03	1.525386E-01	1.457145E-03
6.015633E+03	1.552666E-01	1.475105E-03
6.025527E+03	1.580451E-01	1.493284E-03
6.035421E+03	1.608702E-01	1.511658E-03
6.045315E+03	1.637367E-01	1.530196E-03
6.055209E+03	1.666385E-01	1.548863E-03
6.065103E+03	1.695939E-01	1.567853E-03
6.074998E+03	1.725429E-01	1.586639E-03
6.084892E+03	1.755008E-01	1.605398E-03
6.094786E+03	1.784291E-01	1.623818E-03
6.104680E+03	1.813696E-01	1.642324E-03
6.114574E+03	1.842818E-01	1.660596E-03
6.124468E+03	1.871513E-01	1.678557E-03
6.134362E+03	1.899631E-01	1.696131E-03
6.144256E+03	1.927019E-01	1.713242E-03
6.154151E+03	1.953522E-01	1.729821E-03
6.164045E+03	1.978992E-01	1.745804E-03
6.173939E+03	2.003289E-01	1.761141E-03
6.183833E+03	2.026287E-01	1.775796E-03
6.193727E+03	2.047880E-01	1.789751E-03
6.203621E+03	2.067667E-01	1.802730E-03
6.213515E+03	2.086217E-01	1.815304E-03
6.223410E+03	2.103182E-01	1.827241E-03
6.233304E+03	2.118551E-01	1.838600E-03
6.243198E+03	2.132337E-01	1.849460E-03
6.253092E+03	2.144580E-01	1.859914E-03
6.262986E+03	2.155009E-01	1.869787E-03
6.272880E+03	2.164362E-01	1.879768E-03
6.282774E+03	2.172404E-01	1.889698E-03
6.292668E+03	2.179234E-01	1.899679E-03
6.302563E+03	2.184619E-01	1.909475E-03
6.312457E+03	2.189329E-01	1.919715E-03
6.322351E+03	2.193122E-01	1.930147E-03
6.332245E+03	2.195748E-01	1.940499E-03
6.342139E+03	2.197954E-01	1.951377E-03
6.352033E+03	2.199464E-01	1.962488E-03
6.361927E+03	2.199989E-01	1.973515E-03
6.371822E+03	2.200237E-01	1.985036E-03
6.381716E+03	2.199889E-01	1.996707E-03
6.391610E+03	2.198613E-01	2.008167E-03
6.401504E+03	2.197076E-01	2.019963E-03
6.411398E+03	2.194918E-01	2.031709E-03
6.421292E+03	2.191773E-01	2.043004E-03
6.431186E+03	2.188272E-01	2.054372E-03
6.441080E+03	2.183697E-01	2.065080E-03
6.450975E+03	2.178662E-01	2.075644E-03
6.460869E+03	2.172443E-01	2.085314E-03
6.470763E+03	2.165646E-01	2.094607E-03
6.480657E+03	2.157547E-01	2.102763E-03
6.490551E+03	2.148753E-01	2.110307E-03
6.500445E+03	2.138550E-01	2.116477E-03
6.510339E+03	2.127549E-01	2.121813E-03
6.520234E+03	2.115053E-01	2.125563E-03
6.530128E+03	2.101681E-01	2.128283E-03
6.540022E+03	2.086765E-01	2.129239E-03
6.549916E+03	2.070933E-01	2.129014E-03
6.559810E+03	2.053545E-01	2.126895E-03
6.569704E+03	2.035244E-01	2.123491E-03
6.579598E+03	2.015422E-01	2.118120E-03
6.589492E+03	1.994731E-01	2.111418E-03
6.599387E+03	1.972598E-01	2.102734E-03
6.609281E+03	1.949382E-01	2.092407E-03
6.619175E+03	1.925443E-01	2.080785E-03
6.629069E+03	1.900252E-01	2.067270E-03
6.638963E+03	1.874475E-01	2.052550E-03
6.648857E+03	1.847614E-01	2.036059E-03
6.658751E+03	1.820048E-01	2.018190E-03
6.668645E+03	1.792145E-01	1.999334E-03
6.678540E+03	1.763444E-01	1.978966E-03
6.688434E+03	1.734319E-01	1.957494E-03
6.698328E+03	1.705129E-01	1.935318E-03
6.708222E+03	1.675439E-01	1.911946E-03
6.718116E+03	1.645609E-01	1.887785E-03
6.728010E+03	1.615729E-01	1.862944E-03
6.737904E+03	1.586129E-01	1.837812E-03
6.747799E+03	1.556398E-01	1.811925E-03
6.757693E+03	1.526861E-01	1.785671E-03
6.767587E+03	1.497588E-01	1.759148E-03
6.777481E+03	1.468873E-01	1.732715E-03
6.787375E+03	1.440316E-01	1.705922E-03
6.797269E+03	1.412202E-01	1.679120E-03
6.807163E+03	1.384575E-01	1.652386E-03
6.817057E+03	1.357477E-01	1.625786E-03
6.826952E+03	1.331145E-01	1.599630E-03
6.836846E+03	1.305193E-01	1.573473E-03
6.846740E+03	1.279851E-01	1.547615E-03
6.856634E+03	1.255136E-01	1.522096E-03
6.866528E+03	1.231059E-01	1.496951E-03
6.876422E+03	1.207625E-01	1.472209E-03
6.886316E+03	1.185018E-01	1.448116E-03
6.896211E+03	1.162869E-01	1.424239E-03
6.906105E+03	1.141355E-01	1.400818E-03
6.915999E+03	1.120469E-01	1.377862E-03
6.925893E+03	1.100199E-01	1.355373E-03
6.935787E+03	1.080529E-01	1.333354E-03
6.945681E+03	1.061442E-01	1.311801E-03
6.955575E+03	1.042923E-01	1.290709E-03
6.965469E+03	1.024950E-01	1.270072E-03
6.975364E+03	1.007503E-01	1.249881E-03
6.985258E+03	9.905625E-02	1.230124E-03
6.995152E+03	9.741054E-02	1.210792E-03
7.005046E+03	9.581111E-02	1.191872E-03
7.014940E+03	9.425580E-02	1.173351E-03
7.024834E+03	9.274248E-02	1.155218E-03
7.034728E+03	9.126915E-02	1.137461E-03
7.044623E+03	8.983374E-02	1.120068E-03
7.054517E+03	8.843437E-02	1.103027E-03
7.064411E+03	8.706916E-02	1.086328E-03
7.074305E+03	8.573638E-02	1.069963E-03
7.084199E+03	8.443438E-02	1.053921E-03
7.094093E+03	8.316155E-02	1.038195E-03
7.103987E+03	8.191648E-02	1.022779E-03
7.113881E+03	8.069781E-02	1.007667E-03
7.123776E+03	7.950427E-02	9.928546E-04
7.133670E+03	7.833470E-02	9.783377E-04
7.143564E+03	7.718808E-02	9.641143E-04
7.153458E+03	7.605165E-02	9.500354E-04
7.163352E+03	7.494828E-02	9.363968E-04
7.173246E+03	7.386522E-02	9.230494E-04
7.183140E+03	7.280178E-02	9.099939E-04
7.193035E+03	7.175736E-02	8.972324E-04
7.202929E+03	7.073142E-02	8.847674E-04
7.212823E+03	6.972347E-02	8.726016E-04
7.222717E+03	6.872246E-02	8.606054E-04
7.232611E+03	6.774949E-02	8.490512E-04
7.242505E+03	6.679349E-02	8.378085E-04
7.252399E+03	6.585421E-02	8.268819E-04
7.262293E+03	6.493146E-02	8.162768E-04
7.272188E+03	6.401518E-02	8.058733E-04
7.282082E+03	6.312526E-02	7.959286E-04
7.291976E+03	6.225156E-02	7.863216E-04
7.301870E+03	6.139403E-02	7.770579E-04
7.311764E+03	6.054328E-02	7.680241E-04
7.321658E+03	5.971825E-02	7.594657E-04
7.331552E+03	5.890943E-02	7.512672E-04
7.341447E+03	5.810784E-02	7.433185E-04
7.351341E+03	5.733171E-02	7.358571E-04
7.361235E+03	5.657199E-02	7.287711E-04
7.371129E+03	5.582001E-02	7.219524E-04
7.381023E+03	5.509337E-02	7.156312E-04
7.390917E+03	5.438330E-02	7.096979E-04
7.400811E+03	5.368153E-02	7.040466E-04
7.410705E+03	5.300492E-02	6.989002E-04
7.420600E+03	5.234504E-02	6.941509E-04
7.430494E+03	5.169390E-02	6.896939E-04
7.440388E+03	5.106769E-02	6.857462E-04
7.450282E+03	5.045828E-02	6.821965E-04
7.460176E+03	4.985788E-02	6.789298E-04
7.470070E+03	4.928205E-02	6.761479E-04
7.479964E+03	4.871530E-02	6.736302E-04
7.489859E+03	4.817279E-02	6.715771E-04
7.499753E+03	4.763930E-02	6.697693E-04
7.509647E+03	4.712964E-02	6.684069E-04
7.519541E+03	4.662888E-02	6.672719E-04
7.529435E+03	4.615152E-02	6.665645E-04
7.539329E+03	4.568290E-02	6.660679E-04
7.549223E+03	4.523722E-02	6.659828E-04
7.559117E+03	4.480013E-02	6.660939E-04
7.569012E+03	4.438547E-02	6.666017E-04
7.578906E+03	4.397912E-02	6.672911E-04
7.588800E+03	4.359465E-02	6.683635E-04
7.598694E+03	4.321816E-02	6.696042E-04
7.608588E+03	4.286302E-02	6.712162E-04
7.618482E+03	4.251550E-02	6.729838E-04
7.628376E+03	4.218866E-02	6.751109E-04
7.638271E+03	4.186888E-02	6.773795E-04
7.648165E+03	4.156884E-02	6.799922E-04
7.658059E+03	4.127495E-02	6.827273E-04
7.667953E+03	4.099325E-02	6.856815E-04
7.677847E+03	4.072960E-02	6.889536E-04
