#wls	flux	fluxerr
1.583061E+03	4.151691E-15	1.670882E-16
1.622638E+03	4.249620E-15	1.699880E-16
1.662214E+03	4.345178E-15	1.727241E-16
1.701791E+03	4.438025E-15	1.752834E-16
1.741367E+03	4.528100E-15	1.776639E-16
1.780944E+03	4.614930E-15	1.798480E-16
1.820520E+03	4.695885E-15	1.817350E-16
1.860097E+03	4.769718E-15	1.832803E-16
1.899673E+03	4.833563E-15	1.843792E-16
1.939250E+03	4.884640E-15	1.849341E-16
1.978827E+03	4.921259E-15	1.848913E-16
2.018403E+03	4.945904E-15	1.843556E-16
2.057980E+03	4.966897E-15	1.836449E-16
2.097556E+03	4.998845E-15	1.832978E-16
2.137133E+03	5.059150E-15	1.839367E-16
2.176709E+03	5.156953E-15	1.858638E-16
2.216286E+03	5.289172E-15	1.889322E-16
2.255862E+03	5.443527E-15	1.926724E-16
2.295439E+03	5.605829E-15	1.965633E-16
2.335015E+03	5.765690E-15	2.002344E-16
2.374592E+03	5.917298E-15	2.034864E-16
2.414168E+03	6.058078E-15	2.062385E-16
2.453745E+03	6.187835E-15	2.084942E-16
2.493321E+03	6.306061E-15	2.102472E-16
2.532898E+03	6.412806E-15	2.115107E-16
2.572475E+03	6.507601E-15	2.122815E-16
2.612051E+03	6.590818E-15	2.125847E-16
2.651628E+03	6.663391E-15	2.124633E-16
2.691204E+03	6.727341E-15	2.119934E-16
2.730781E+03	6.785555E-15	2.112757E-16
2.770357E+03	6.841170E-15	2.104145E-16
2.809934E+03	6.897373E-15	2.095114E-16
2.849510E+03	6.957476E-15	2.086668E-16
2.889087E+03	7.024036E-15	2.079542E-16
2.928663E+03	7.100087E-15	2.074573E-16
2.968240E+03	7.187662E-15	2.072266E-16
2.978134E+03	7.211807E-15	2.072222E-16
2.988028E+03	7.236725E-15	2.072351E-16
2.997922E+03	7.262428E-15	2.072655E-16
3.007816E+03	7.289265E-15	2.073230E-16
3.017710E+03	7.317146E-15	2.074049E-16
3.027605E+03	7.346127E-15	2.075125E-16
3.037499E+03	7.376383E-15	2.076505E-16
3.047393E+03	7.407742E-15	2.078138E-16
3.057287E+03	7.440304E-15	2.080048E-16
3.067181E+03	7.474344E-15	2.082310E-16
3.077075E+03	7.509493E-15	2.084819E-16
3.086969E+03	7.545868E-15	2.087602E-16
3.096864E+03	7.583271E-15	2.090604E-16
3.106758E+03	7.622106E-15	2.093933E-16
3.116652E+03	7.661880E-15	2.097451E-16
3.126546E+03	7.702690E-15	2.101183E-16
3.136440E+03	7.744635E-15	2.105153E-16
3.146334E+03	7.787652E-15	2.109342E-16
3.156228E+03	7.831391E-15	2.113654E-16
3.166122E+03	7.876238E-15	2.118190E-16
3.176017E+03	7.921828E-15	2.122852E-16
3.185911E+03	7.968239E-15	2.127659E-16
3.195805E+03	8.015256E-15	2.132553E-16
3.205699E+03	8.062952E-15	2.137552E-16
3.215593E+03	8.111232E-15	2.142630E-16
3.225487E+03	8.160031E-15	2.147771E-16
3.235381E+03	8.209113E-15	2.152912E-16
3.245276E+03	8.258533E-15	2.158068E-16
3.255170E+03	8.308204E-15	2.163217E-16
3.265064E+03	8.357899E-15	2.168300E-16
3.274958E+03	8.407669E-15	2.173333E-16
3.284852E+03	8.457300E-15	2.178261E-16
3.294746E+03	8.506843E-15	2.183099E-16
3.304640E+03	8.556098E-15	2.187799E-16
3.314534E+03	8.605010E-15	2.192348E-16
3.324429E+03	8.653523E-15	2.196736E-16
3.334323E+03	8.701612E-15	2.200958E-16
3.344217E+03	8.749274E-15	2.205016E-16
3.354111E+03	8.796391E-15	2.208885E-16
3.364005E+03	8.843137E-15	2.212610E-16
3.373899E+03	8.889349E-15	2.216155E-16
3.383793E+03	8.935399E-15	2.219615E-16
3.393688E+03	8.981202E-15	2.222971E-16
3.403582E+03	9.026990E-15	2.226283E-16
3.413476E+03	9.073041E-15	2.229621E-16
3.423370E+03	9.119580E-15	2.233043E-16
3.433264E+03	9.167134E-15	2.236677E-16
3.443158E+03	9.216025E-15	2.240601E-16
3.453052E+03	9.266567E-15	2.244890E-16
3.462946E+03	9.318947E-15	2.249587E-16
3.472841E+03	9.372668E-15	2.254571E-16
3.482735E+03	9.427324E-15	2.259741E-16
3.492629E+03	9.482050E-15	2.264890E-16
3.502523E+03	9.536465E-15	2.269927E-16
3.512417E+03	9.590000E-15	2.274718E-16
3.522311E+03	9.642253E-15	2.279173E-16
3.532205E+03	9.692620E-15	2.283153E-16
3.542100E+03	9.740674E-15	2.286562E-16
3.551994E+03	9.786234E-15	2.289366E-16
3.561888E+03	9.828703E-15	2.291431E-16
3.571782E+03	9.867972E-15	2.292741E-16
3.581676E+03	9.903722E-15	2.293229E-16
3.591570E+03	9.935552E-15	2.292813E-16
3.601464E+03	9.963195E-15	2.291441E-16
3.611358E+03	9.986510E-15	2.289090E-16
3.621253E+03	1.000517E-14	2.285697E-16
3.631147E+03	1.001916E-14	2.281271E-16
3.641041E+03	1.002808E-14	2.275729E-16
3.650935E+03	1.003185E-14	2.269067E-16
3.660829E+03	1.003032E-14	2.261260E-16
3.670723E+03	1.002343E-14	2.252311E-16
3.680617E+03	1.001094E-14	2.242178E-16
3.690512E+03	9.992859E-15	2.230871E-16
3.700406E+03	9.969070E-15	2.218380E-16
3.710300E+03	9.939603E-15	2.204722E-16
3.720194E+03	9.904396E-15	2.189896E-16
3.730088E+03	9.863499E-15	2.173925E-16
3.739982E+03	9.816882E-15	2.156814E-16
3.749876E+03	9.764546E-15	2.138575E-16
3.759770E+03	9.706791E-15	2.119284E-16
3.769665E+03	9.643442E-15	2.098915E-16
3.779559E+03	9.574741E-15	2.077529E-16
3.789453E+03	9.500933E-15	2.055191E-16
3.799347E+03	9.422004E-15	2.031906E-16
3.809241E+03	9.338140E-15	2.007724E-16
3.819135E+03	9.249623E-15	1.982714E-16
3.829029E+03	9.156663E-15	1.956928E-16
3.838924E+03	9.059471E-15	1.930420E-16
3.848818E+03	8.958190E-15	1.903225E-16
3.858712E+03	8.853145E-15	1.875420E-16
3.868606E+03	8.744580E-15	1.847061E-16
3.878500E+03	8.632740E-15	1.818205E-16
3.888394E+03	8.517878E-15	1.788909E-16
3.898288E+03	8.400265E-15	1.759233E-16
3.908182E+03	8.280228E-15	1.729250E-16
3.918077E+03	8.158042E-15	1.699019E-16
3.927971E+03	8.033899E-15	1.668582E-16
3.937865E+03	7.908213E-15	1.638025E-16
3.947759E+03	7.781175E-15	1.607389E-16
3.957653E+03	7.653138E-15	1.576747E-16
3.967547E+03	7.524362E-15	1.546151E-16
3.977441E+03	7.395050E-15	1.515642E-16
3.987336E+03	7.265606E-15	1.485302E-16
3.997230E+03	7.136230E-15	1.455168E-16
4.007124E+03	7.007245E-15	1.425305E-16
4.017018E+03	6.878916E-15	1.395763E-16
4.026912E+03	6.751491E-15	1.366589E-16
4.036806E+03	6.625234E-15	1.337832E-16
4.046700E+03	6.500445E-15	1.309548E-16
4.056594E+03	6.377318E-15	1.281773E-16
4.066489E+03	6.256085E-15	1.254547E-16
4.076383E+03	6.137104E-15	1.227938E-16
4.086277E+03	6.020489E-15	1.201963E-16
4.096171E+03	5.906525E-15	1.176672E-16
4.106065E+03	5.795433E-15	1.152104E-16
4.115959E+03	5.687420E-15	1.128295E-16
4.125853E+03	5.582705E-15	1.105280E-16
4.135748E+03	5.481492E-15	1.083095E-16
4.145642E+03	5.383985E-15	1.061772E-16
4.155536E+03	5.290383E-15	1.041346E-16
4.165430E+03	5.200881E-15	1.021847E-16
4.175324E+03	5.115675E-15	1.003307E-16
4.185218E+03	5.034911E-15	9.857479E-17
4.195112E+03	4.958782E-15	9.692001E-17
4.205006E+03	4.887523E-15	9.537023E-17
4.214901E+03	4.821330E-15	9.392851E-17
4.224795E+03	4.760314E-15	9.259636E-17
4.234689E+03	4.704721E-15	9.137780E-17
4.244583E+03	4.654747E-15	9.027604E-17
4.254477E+03	4.610581E-15	8.929403E-17
4.264371E+03	4.572372E-15	8.843403E-17
4.274265E+03	4.540066E-15	8.769437E-17
4.284159E+03	4.513535E-15	8.707193E-17
4.294054E+03	4.492450E-15	8.655979E-17
4.303948E+03	4.476645E-15	8.615423E-17
4.313842E+03	4.465887E-15	8.585021E-17
4.323736E+03	4.459940E-15	8.564280E-17
4.333630E+03	4.458408E-15	8.552395E-17
4.343524E+03	4.460915E-15	8.548611E-17
4.353418E+03	4.467068E-15	8.552139E-17
4.363313E+03	4.476573E-15	8.562392E-17
4.373207E+03	4.489079E-15	8.578672E-17
4.383101E+03	4.504258E-15	8.600330E-17
4.392995E+03	4.521882E-15	8.626911E-17
4.402889E+03	4.541658E-15	8.657840E-17
4.412783E+03	4.563351E-15	8.692652E-17
4.422677E+03	4.586782E-15	8.730996E-17
4.432571E+03	4.611662E-15	8.772306E-17
4.442466E+03	4.637839E-15	8.816283E-17
4.452360E+03	4.665130E-15	8.862572E-17
4.462254E+03	4.693322E-15	8.910757E-17
4.472148E+03	4.722254E-15	8.960526E-17
4.482042E+03	4.751774E-15	9.011585E-17
4.491936E+03	4.781743E-15	9.063661E-17
4.501830E+03	4.812029E-15	9.116501E-17
4.511725E+03	4.842465E-15	9.169783E-17
4.521619E+03	4.872892E-15	9.223198E-17
4.531513E+03	4.903299E-15	9.276724E-17
4.541407E+03	4.933497E-15	9.329999E-17
4.551301E+03	4.963354E-15	9.382767E-17
4.561195E+03	4.992839E-15	9.434966E-17
4.571089E+03	5.021882E-15	9.486462E-17
4.580983E+03	5.050280E-15	9.536865E-17
4.590878E+03	5.078123E-15	9.586343E-17
4.600772E+03	5.105169E-15	9.634437E-17
4.610666E+03	5.131479E-15	9.681258E-17
4.620560E+03	5.156972E-15	9.726648E-17
4.630454E+03	5.181573E-15	9.770463E-17
4.640348E+03	5.205209E-15	9.812565E-17
4.650242E+03	5.227815E-15	9.852826E-17
4.660137E+03	5.249432E-15	9.891321E-17
4.670031E+03	5.269949E-15	9.927839E-17
4.679925E+03	5.289314E-15	9.962276E-17
4.689819E+03	5.307525E-15	9.994628E-17
4.699713E+03	5.324426E-15	1.002460E-16
4.709607E+03	5.340129E-15	1.005240E-16
4.719501E+03	5.354427E-15	1.007763E-16
4.729395E+03	5.367381E-15	1.010041E-16
4.739290E+03	5.378950E-15	1.012066E-16
4.749184E+03	5.388982E-15	1.013809E-16
4.759078E+03	5.397490E-15	1.015272E-16
4.768972E+03	5.404490E-15	1.016459E-16
4.778866E+03	5.409837E-15	1.017342E-16
4.788760E+03	5.413551E-15	1.017923E-16
4.798654E+03	5.415601E-15	1.018199E-16
4.808549E+03	5.415903E-15	1.018152E-16
4.818443E+03	5.414434E-15	1.017778E-16
4.828337E+03	5.411231E-15	1.017085E-16
4.838231E+03	5.406222E-15	1.016058E-16
4.848125E+03	5.399455E-15	1.014707E-16
4.858019E+03	5.390816E-15	1.013010E-16
4.867913E+03	5.380363E-15	1.010979E-16
4.877807E+03	5.368106E-15	1.008614E-16
4.887702E+03	5.354009E-15	1.005910E-16
4.897596E+03	5.338147E-15	1.002880E-16
4.907490E+03	5.320498E-15	9.995213E-17
4.917384E+03	5.301154E-15	9.958502E-17
4.927278E+03	5.280106E-15	9.918653E-17
4.937172E+03	5.257402E-15	9.875759E-17
4.947066E+03	5.233047E-15	9.829832E-17
4.956961E+03	5.207212E-15	9.781191E-17
4.966855E+03	5.179857E-15	9.729766E-17
4.976749E+03	5.151056E-15	9.675696E-17
4.986643E+03	5.120941E-15	9.619228E-17
4.996537E+03	5.089539E-15	9.560420E-17
5.006431E+03	5.056937E-15	9.499434E-17
5.016325E+03	5.023223E-15	9.436435E-17
5.026219E+03	4.988487E-15	9.371598E-17
5.036114E+03	4.952770E-15	9.305001E-17
5.046008E+03	4.916168E-15	9.236824E-17
5.055902E+03	4.878827E-15	9.167346E-17
5.065796E+03	4.840744E-15	9.096561E-17
5.075690E+03	4.802117E-15	9.024843E-17
5.085584E+03	4.762894E-15	8.952099E-17
5.095478E+03	4.723275E-15	8.878703E-17
5.105373E+03	4.683308E-15	8.804751E-17
5.115267E+03	4.643095E-15	8.730434E-17
5.125161E+03	4.602734E-15	8.655940E-17
5.135055E+03	4.562280E-15	8.581373E-17
5.144949E+03	4.521834E-15	8.506926E-17
5.154843E+03	4.481452E-15	8.432705E-17
5.164737E+03	4.441329E-15	8.359081E-17
5.174631E+03	4.401433E-15	8.285996E-17
5.184526E+03	4.361916E-15	8.213736E-17
5.194420E+03	4.322885E-15	8.142509E-17
5.204314E+03	4.284450E-15	8.072522E-17
5.214208E+03	4.246636E-15	8.003824E-17
5.224102E+03	4.209602E-15	7.936721E-17
5.233996E+03	4.173425E-15	7.871357E-17
5.243890E+03	4.138226E-15	7.807969E-17
5.253785E+03	4.104090E-15	7.746717E-17
5.263679E+03	4.071191E-15	7.687935E-17
5.273573E+03	4.039583E-15	7.631729E-17
5.283467E+03	4.009408E-15	7.578375E-17
5.293361E+03	3.980775E-15	7.528082E-17
5.303255E+03	3.953882E-15	7.481234E-17
5.313149E+03	3.928774E-15	7.437922E-17
5.323043E+03	3.905666E-15	7.398561E-17
5.332938E+03	3.884703E-15	7.363434E-17
5.342832E+03	3.866039E-15	7.332841E-17
5.352726E+03	3.849758E-15	7.306946E-17
5.362620E+03	3.836017E-15	7.286055E-17
5.372514E+03	3.824922E-15	7.270371E-17
5.382408E+03	3.816286E-15	7.259545E-17
5.392302E+03	3.809920E-15	7.253219E-17
5.402196E+03	3.805475E-15	7.250734E-17
5.412091E+03	3.802678E-15	7.251570E-17
5.421985E+03	3.801455E-15	7.255587E-17
5.431879E+03	3.801590E-15	7.262378E-17
5.441773E+03	3.803031E-15	7.271844E-17
5.451667E+03	3.805660E-15	7.283759E-17
5.461561E+03	3.809486E-15	7.298142E-17
5.471455E+03	3.814332E-15	7.314658E-17
5.481350E+03	3.820149E-15	7.333211E-17
5.491244E+03	3.826816E-15	7.353574E-17
5.501138E+03	3.834339E-15	7.375755E-17
5.511032E+03	3.842573E-15	7.399478E-17
5.520926E+03	3.851458E-15	7.424628E-17
5.530820E+03	3.860901E-15	7.451025E-17
5.540714E+03	3.870894E-15	7.478655E-17
5.550608E+03	3.881317E-15	7.507283E-17
5.560503E+03	3.892131E-15	7.536836E-17
5.570397E+03	3.903306E-15	7.567251E-17
5.580291E+03	3.914773E-15	7.598397E-17
5.590185E+03	3.926509E-15	7.630226E-17
5.600079E+03	3.938412E-15	7.662540E-17
5.609973E+03	3.950468E-15	7.695308E-17
5.619867E+03	3.962661E-15	7.728499E-17
5.629762E+03	3.974941E-15	7.762011E-17
5.639656E+03	3.987257E-15	7.795744E-17
5.649550E+03	3.999560E-15	7.829597E-17
5.659444E+03	4.011885E-15	7.863640E-17
5.669338E+03	4.024100E-15	7.897610E-17
5.679232E+03	4.036243E-15	7.931576E-17
5.689126E+03	4.048265E-15	7.965443E-17
5.699020E+03	4.060075E-15	7.999025E-17
5.708915E+03	4.071666E-15	8.032305E-17
5.718809E+03	4.083030E-15	8.065266E-17
5.728703E+03	4.094072E-15	8.097713E-17
5.738597E+03	4.104738E-15	8.129538E-17
5.748491E+03	4.115065E-15	8.160805E-17
5.758385E+03	4.124908E-15	8.191227E-17
5.768279E+03	4.134258E-15	8.220779E-17
5.778174E+03	4.143060E-15	8.249344E-17
5.788068E+03	4.151262E-15	8.276816E-17
5.797962E+03	4.158859E-15	8.303176E-17
5.807856E+03	4.165711E-15	8.328139E-17
5.817750E+03	4.171864E-15	8.351791E-17
5.827644E+03	4.177233E-15	8.373953E-17
5.837538E+03	4.181782E-15	8.394547E-17
5.847432E+03	4.185481E-15	8.413507E-17
5.857327E+03	4.188310E-15	8.430780E-17
5.867221E+03	4.190300E-15	8.446428E-17
5.877115E+03	4.191351E-15	8.460236E-17
5.887009E+03	4.191465E-15	8.472202E-17
5.896903E+03	4.190701E-15	8.482437E-17
5.906797E+03	4.189081E-15	8.490979E-17
5.916691E+03	4.186537E-15	8.497683E-17
5.926586E+03	4.183205E-15	8.502816E-17
5.936480E+03	4.178989E-15	8.506176E-17
5.946374E+03	4.174088E-15	8.508165E-17
5.956268E+03	4.168421E-15	8.508609E-17
5.966162E+03	4.162058E-15	8.507647E-17
5.976056E+03	4.155125E-15	8.505530E-17
5.985950E+03	4.147655E-15	8.502323E-17
5.995844E+03	4.139737E-15	8.498202E-17
6.005739E+03	4.131360E-15	8.493147E-17
6.015633E+03	4.122720E-15	8.487553E-17
6.025527E+03	4.113763E-15	8.481311E-17
6.035421E+03	4.104688E-15	8.474829E-17
6.045315E+03	4.095545E-15	8.468209E-17
6.055209E+03	4.086385E-15	8.461559E-17
6.065103E+03	4.077308E-15	8.455091E-17
6.074998E+03	4.068469E-15	8.449124E-17
6.084892E+03	4.059919E-15	8.443772E-17
6.094786E+03	4.051766E-15	8.439261E-17
6.104680E+03	4.044217E-15	8.436030E-17
6.114574E+03	4.037280E-15	8.434105E-17
6.124468E+03	4.031121E-15	8.433839E-17
6.134362E+03	4.025908E-15	8.435595E-17
6.144256E+03	4.021820E-15	8.439758E-17
6.154151E+03	4.018938E-15	8.446513E-17
6.164045E+03	4.017405E-15	8.456173E-17
6.173939E+03	4.017422E-15	8.469181E-17
6.183833E+03	4.019098E-15	8.485784E-17
6.193727E+03	4.022651E-15	8.506461E-17
6.203621E+03	4.028238E-15	8.531566E-17
6.213515E+03	4.036014E-15	8.561454E-17
6.223410E+03	4.045907E-15	8.595996E-17
6.233304E+03	4.057773E-15	8.634912E-17
6.243198E+03	4.071512E-15	8.678011E-17
6.253092E+03	4.087027E-15	8.725099E-17
6.262986E+03	4.104114E-15	8.775762E-17
6.272880E+03	4.122690E-15	8.829830E-17
6.282774E+03	4.142679E-15	8.887154E-17
6.292668E+03	4.163893E-15	8.947342E-17
6.302563E+03	4.186322E-15	9.010385E-17
6.312457E+03	4.209845E-15	9.076028E-17
6.322351E+03	4.234337E-15	9.144014E-17
6.332245E+03	4.259674E-15	9.214081E-17
6.342139E+03	4.285855E-15	9.286233E-17
6.352033E+03	4.312691E-15	9.360067E-17
6.361927E+03	4.340178E-15	9.435579E-17
6.371822E+03	4.368187E-15	9.512494E-17
6.381716E+03	4.396584E-15	9.590520E-17
6.391610E+03	4.425298E-15	9.669507E-17
6.401504E+03	4.454192E-15	9.749152E-17
6.411398E+03	4.483193E-15	9.829299E-17
6.421292E+03	4.512024E-15	9.909336E-17
6.431186E+03	4.540679E-15	9.989244E-17
6.441080E+03	4.569017E-15	1.006871E-16
6.450975E+03	4.596827E-15	1.014726E-16
6.460869E+03	4.624041E-15	1.022475E-16
6.470763E+03	4.650527E-15	1.030085E-16
6.480657E+03	4.676155E-15	1.037529E-16
6.490551E+03	4.700803E-15	1.044776E-16
6.500445E+03	4.724432E-15	1.051818E-16
6.510339E+03	4.746859E-15	1.058613E-16
6.520234E+03	4.767985E-15	1.065136E-16
6.530128E+03	4.787805E-15	1.071384E-16
6.540022E+03	4.806242E-15	1.077339E-16
6.549916E+03	4.823153E-15	1.082967E-16
6.559810E+03	4.838568E-15	1.088273E-16
6.569704E+03	4.852365E-15	1.093227E-16
6.579598E+03	4.864682E-15	1.097858E-16
6.589492E+03	4.875341E-15	1.102125E-16
6.599387E+03	4.884338E-15	1.106024E-16
6.609281E+03	4.891765E-15	1.109575E-16
6.619175E+03	4.897641E-15	1.112779E-16
6.629069E+03	4.901912E-15	1.115622E-16
6.638963E+03	4.904616E-15	1.118112E-16
6.648857E+03	4.905884E-15	1.120275E-16
6.658751E+03	4.905682E-15	1.122104E-16
6.668645E+03	4.904159E-15	1.123630E-16
6.678540E+03	4.901203E-15	1.124825E-16
6.688434E+03	4.897055E-15	1.125744E-16
6.698328E+03	4.891608E-15	1.126361E-16
6.708222E+03	4.885110E-15	1.126731E-16
6.718116E+03	4.877455E-15	1.126828E-16
6.728010E+03	4.868800E-15	1.126689E-16
6.737904E+03	4.859214E-15	1.126326E-16
6.747799E+03	4.848673E-15	1.125735E-16
6.757693E+03	4.837326E-15	1.124948E-16
6.767587E+03	4.825144E-15	1.123958E-16
6.777481E+03	4.812270E-15	1.122797E-16
6.787375E+03	4.798571E-15	1.121435E-16
6.797269E+03	4.784270E-15	1.119921E-16
6.807163E+03	4.769316E-15	1.118244E-16
6.817057E+03	4.753741E-15	1.116410E-16
6.826952E+03	4.737482E-15	1.114404E-16
6.836846E+03	4.720739E-15	1.112273E-16
6.846740E+03	4.703259E-15	1.109956E-16
6.856634E+03	4.685323E-15	1.107519E-16
6.866528E+03	4.666758E-15	1.104922E-16
6.876422E+03	4.647565E-15	1.102163E-16
6.886316E+03	4.627833E-15	1.099263E-16
6.896211E+03	4.607468E-15	1.096199E-16
6.906105E+03	4.586461E-15	1.092969E-16
6.915999E+03	4.564805E-15	1.089571E-16
6.925893E+03	4.542486E-15	1.086001E-16
6.935787E+03	4.519494E-15	1.082255E-16
6.945681E+03	4.495727E-15	1.078309E-16
6.955575E+03	4.471352E-15	1.074202E-16
6.965469E+03	4.446092E-15	1.069868E-16
6.975364E+03	4.420201E-15	1.065366E-16
6.985258E+03	4.393412E-15	1.060631E-16
6.995152E+03	4.365894E-15	1.055704E-16
7.005046E+03	4.337558E-15	1.050563E-16
7.014940E+03	4.308409E-15	1.045207E-16
7.024834E+03	4.278538E-15	1.039659E-16
7.034728E+03	4.247784E-15	1.033879E-16
7.044623E+03	4.216248E-15	1.027889E-16
7.054517E+03	4.183866E-15	1.021675E-16
7.064411E+03	4.150746E-15	1.015261E-16
7.074305E+03	4.116916E-15	1.008655E-16
7.084199E+03	4.082329E-15	1.001842E-16
7.094093E+03	4.047103E-15	9.948530E-17
7.103987E+03	4.011116E-15	9.876558E-17
7.113881E+03	3.974578E-15	9.803018E-17
7.123776E+03	3.937456E-15	9.727826E-17
7.133670E+03	3.899721E-15	9.650904E-17
7.143564E+03	3.861512E-15	9.572585E-17
7.153458E+03	3.822883E-15	9.493004E-17
7.163352E+03	3.783816E-15	9.412110E-17
7.173246E+03	3.744372E-15	9.330051E-17
7.183140E+03	3.704613E-15	9.246979E-17
7.193035E+03	3.664603E-15	9.163046E-17
7.202929E+03	3.624403E-15	9.078407E-17
7.212823E+03	3.583928E-15	8.992844E-17
7.222717E+03	3.543390E-15	8.906890E-17
7.232611E+03	3.502777E-15	8.820509E-17
7.242505E+03	3.462079E-15	8.733675E-17
7.252399E+03	3.421428E-15	8.646724E-17
7.262293E+03	3.380740E-15	8.559443E-17
7.272188E+03	3.340077E-15	8.471986E-17
7.282082E+03	3.299495E-15	8.384497E-17
7.291976E+03	3.258983E-15	8.296946E-17
7.301870E+03	3.218665E-15	8.209650E-17
7.311764E+03	3.178389E-15	8.122223E-17
7.321658E+03	3.138344E-15	8.035147E-17
7.331552E+03	3.098447E-15	7.948210E-17
7.341447E+03	3.058811E-15	7.861707E-17
7.351341E+03	3.019417E-15	7.775588E-17
7.361235E+03	2.980312E-15	7.689975E-17
7.371129E+03	2.941598E-15	7.605136E-17
7.381023E+03	2.903251E-15	7.521010E-17
7.390917E+03	2.865493E-15	7.438180E-17
7.400811E+03	2.828230E-15	7.356406E-17
7.410705E+03	2.791614E-15	7.276091E-17
7.420600E+03	2.755611E-15	7.197149E-17
7.430494E+03	2.720422E-15	7.120120E-17
7.440388E+03	2.686007E-15	7.044905E-17
7.450282E+03	2.652385E-15	6.971564E-17
7.460176E+03	2.619631E-15	6.900308E-17
7.470070E+03	2.587760E-15	6.831186E-17
7.479964E+03	2.556901E-15	6.764551E-17
7.489859E+03	2.526954E-15	6.700153E-17
7.499753E+03	2.497989E-15	6.638192E-17
7.509647E+03	2.470077E-15	6.578871E-17
7.519541E+03	2.443178E-15	6.522098E-17
7.529435E+03	2.417364E-15	6.468079E-17
7.539329E+03	2.392600E-15	6.416730E-17
7.549223E+03	2.369015E-15	6.368413E-17
7.559117E+03	2.346528E-15	6.322918E-17
7.569012E+03	2.325274E-15	6.280629E-17
7.578906E+03	2.305183E-15	6.241369E-17
7.588800E+03	2.286402E-15	6.205552E-17
7.598694E+03	2.268870E-15	6.173035E-17
7.608588E+03	2.252745E-15	6.144267E-17
7.618482E+03	2.238029E-15	6.119271E-17
7.628376E+03	2.224769E-15	6.098207E-17
7.638271E+03	2.212956E-15	6.081067E-17
7.648165E+03	2.202514E-15	6.067669E-17
7.658059E+03	2.193361E-15	6.057813E-17
7.667953E+03	2.185370E-15	6.051170E-17
7.677847E+03	2.178576E-15	6.047852E-17
