#wls	flux	fluxerr
1.583061E+03	8.599237E-15	3.694664E-16
1.622638E+03	8.796286E-15	3.753628E-16
1.662214E+03	8.981830E-15	3.806038E-16
1.701791E+03	9.154625E-15	3.851439E-16
1.741367E+03	9.314366E-15	3.889782E-16
1.780944E+03	9.460400E-15	3.920885E-16
1.820520E+03	9.588294E-15	3.943026E-16
1.860097E+03	9.697156E-15	3.955989E-16
1.899673E+03	9.783306E-15	3.958449E-16
1.939250E+03	9.843307E-15	3.949236E-16
1.978827E+03	9.875234E-15	3.927839E-16
2.018403E+03	9.884294E-15	3.896596E-16
2.057980E+03	9.886487E-15	3.861994E-16
2.097556E+03	9.910759E-15	3.835312E-16
2.137133E+03	9.992553E-15	3.829887E-16
2.176709E+03	1.015051E-14	3.852139E-16
2.216286E+03	1.037767E-14	3.898569E-16
2.255862E+03	1.064884E-14	3.958978E-16
2.295439E+03	1.093742E-14	4.023022E-16
2.335015E+03	1.122715E-14	4.084533E-16
2.374592E+03	1.151185E-14	4.141238E-16
2.414168E+03	1.179066E-14	4.192848E-16
2.453745E+03	1.206480E-14	4.239831E-16
2.493321E+03	1.233093E-14	4.281062E-16
2.532898E+03	1.258207E-14	4.314218E-16
2.572475E+03	1.280688E-14	4.335637E-16
2.612051E+03	1.299746E-14	4.343017E-16
2.651628E+03	1.315404E-14	4.336879E-16
2.691204E+03	1.328566E-14	4.320630E-16
2.730781E+03	1.340431E-14	4.298473E-16
2.770357E+03	1.351930E-14	4.273550E-16
2.809934E+03	1.363617E-14	4.247668E-16
2.849510E+03	1.375822E-14	4.221858E-16
2.889087E+03	1.388654E-14	4.196421E-16
2.928663E+03	1.402393E-14	4.172152E-16
2.968240E+03	1.417277E-14	4.149685E-16
2.978134E+03	1.421265E-14	4.144596E-16
2.988028E+03	1.425341E-14	4.139656E-16
2.997922E+03	1.429508E-14	4.134876E-16
3.007816E+03	1.433844E-14	4.130476E-16
3.017710E+03	1.438332E-14	4.126405E-16
3.027605E+03	1.442995E-14	4.122718E-16
3.037499E+03	1.447869E-14	4.119523E-16
3.047393E+03	1.452935E-14	4.116750E-16
3.057287E+03	1.458218E-14	4.114472E-16
3.067181E+03	1.463783E-14	4.112861E-16
3.077075E+03	1.469571E-14	4.111743E-16
3.086969E+03	1.475616E-14	4.111211E-16
3.096864E+03	1.481893E-14	4.111186E-16
3.106758E+03	1.488495E-14	4.111916E-16
3.116652E+03	1.495339E-14	4.113165E-16
3.126546E+03	1.502462E-14	4.115028E-16
3.136440E+03	1.509895E-14	4.117583E-16
3.146334E+03	1.517647E-14	4.120841E-16
3.156228E+03	1.525663E-14	4.124651E-16
3.166122E+03	1.534035E-14	4.129246E-16
3.176017E+03	1.542708E-14	4.134475E-16
3.185911E+03	1.551714E-14	4.140410E-16
3.195805E+03	1.561026E-14	4.146974E-16
3.205699E+03	1.570669E-14	4.154225E-16
3.215593E+03	1.580642E-14	4.162147E-16
3.225487E+03	1.590938E-14	4.170718E-16
3.235381E+03	1.601521E-14	4.179834E-16
3.245276E+03	1.612408E-14	4.189529E-16
3.255170E+03	1.623581E-14	4.199755E-16
3.265064E+03	1.634996E-14	4.210389E-16
3.274958E+03	1.646654E-14	4.221428E-16
3.284852E+03	1.658499E-14	4.232727E-16
3.294746E+03	1.670525E-14	4.244266E-16
3.304640E+03	1.682665E-14	4.255871E-16
3.314534E+03	1.694872E-14	4.267428E-16
3.324429E+03	1.707093E-14	4.278805E-16
3.334323E+03	1.719268E-14	4.289857E-16
3.344217E+03	1.731332E-14	4.300425E-16
3.354111E+03	1.743184E-14	4.310272E-16
3.364005E+03	1.754771E-14	4.319274E-16
3.373899E+03	1.765954E-14	4.327108E-16
3.383793E+03	1.776692E-14	4.333694E-16
3.393688E+03	1.786837E-14	4.338688E-16
3.403582E+03	1.796290E-14	4.341877E-16
3.413476E+03	1.804949E-14	4.343045E-16
3.423370E+03	1.812690E-14	4.341923E-16
3.433264E+03	1.819444E-14	4.338383E-16
3.443158E+03	1.825105E-14	4.332211E-16
3.453052E+03	1.829600E-14	4.323273E-16
3.462946E+03	1.832921E-14	4.311594E-16
3.472841E+03	1.835098E-14	4.297281E-16
3.482735E+03	1.836244E-14	4.280636E-16
3.492629E+03	1.836406E-14	4.261801E-16
3.502523E+03	1.835732E-14	4.241147E-16
3.512417E+03	1.834326E-14	4.218939E-16
3.522311E+03	1.832314E-14	4.195490E-16
3.532205E+03	1.829770E-14	4.170985E-16
3.542100E+03	1.826787E-14	4.145650E-16
3.551994E+03	1.823487E-14	4.119774E-16
3.561888E+03	1.819896E-14	4.093426E-16
3.571782E+03	1.816113E-14	4.066834E-16
3.581676E+03	1.812180E-14	4.040099E-16
3.591570E+03	1.808107E-14	4.013244E-16
3.601464E+03	1.803911E-14	3.986311E-16
3.611358E+03	1.799613E-14	3.959353E-16
3.621253E+03	1.795186E-14	3.932308E-16
3.631147E+03	1.790648E-14	3.905224E-16
3.641041E+03	1.785932E-14	3.877954E-16
3.650935E+03	1.781021E-14	3.850468E-16
3.660829E+03	1.775871E-14	3.822676E-16
3.670723E+03	1.770457E-14	3.794531E-16
3.680617E+03	1.764710E-14	3.765894E-16
3.690512E+03	1.758603E-14	3.736715E-16
3.700406E+03	1.752091E-14	3.706908E-16
3.710300E+03	1.745148E-14	3.676432E-16
3.720194E+03	1.737736E-14	3.645216E-16
3.730088E+03	1.729840E-14	3.613242E-16
3.739982E+03	1.721432E-14	3.580464E-16
3.749876E+03	1.712490E-14	3.546849E-16
3.759770E+03	1.703047E-14	3.512481E-16
3.769665E+03	1.693058E-14	3.477276E-16
3.779559E+03	1.682548E-14	3.441304E-16
3.789453E+03	1.671547E-14	3.404635E-16
3.799347E+03	1.660037E-14	3.367245E-16
3.809241E+03	1.648037E-14	3.329183E-16
3.819135E+03	1.635583E-14	3.290536E-16
3.829029E+03	1.622696E-14	3.251354E-16
3.838924E+03	1.609396E-14	3.211686E-16
3.848818E+03	1.595690E-14	3.171557E-16
3.858712E+03	1.581613E-14	3.131044E-16
3.868606E+03	1.567187E-14	3.090196E-16
3.878500E+03	1.552428E-14	3.049054E-16
3.888394E+03	1.537357E-14	3.007662E-16
3.898288E+03	1.521990E-14	2.966059E-16
3.908182E+03	1.506356E-14	2.924307E-16
3.918077E+03	1.490472E-14	2.882440E-16
3.927971E+03	1.474339E-14	2.840465E-16
3.937865E+03	1.458000E-14	2.798470E-16
3.947759E+03	1.441457E-14	2.756459E-16
3.957653E+03	1.424741E-14	2.714494E-16
3.967547E+03	1.407870E-14	2.672608E-16
3.977441E+03	1.390850E-14	2.630817E-16
3.987336E+03	1.373730E-14	2.589210E-16
3.997230E+03	1.356519E-14	2.547806E-16
4.007124E+03	1.339256E-14	2.506676E-16
4.017018E+03	1.321967E-14	2.465866E-16
4.026912E+03	1.304685E-14	2.425434E-16
4.036806E+03	1.287440E-14	2.385433E-16
4.046700E+03	1.270278E-14	2.345946E-16
4.056594E+03	1.253226E-14	2.307016E-16
4.066489E+03	1.236323E-14	2.268708E-16
4.076383E+03	1.219632E-14	2.231133E-16
4.086277E+03	1.203174E-14	2.194321E-16
4.096171E+03	1.187005E-14	2.158368E-16
4.106065E+03	1.171171E-14	2.123346E-16
4.115959E+03	1.155717E-14	2.089332E-16
4.125853E+03	1.140691E-14	2.056397E-16
4.135748E+03	1.126137E-14	2.024614E-16
4.145642E+03	1.112098E-14	1.994050E-16
4.155536E+03	1.098619E-14	1.964772E-16
4.165430E+03	1.085735E-14	1.936833E-16
4.175324E+03	1.073484E-14	1.910288E-16
4.185218E+03	1.061885E-14	1.885161E-16
4.195112E+03	1.050966E-14	1.861485E-16
4.205006E+03	1.040754E-14	1.839298E-16
4.214901E+03	1.031264E-14	1.818606E-16
4.224795E+03	1.022484E-14	1.799377E-16
4.234689E+03	1.014424E-14	1.781614E-16
4.244583E+03	1.007078E-14	1.765294E-16
4.254477E+03	1.000434E-14	1.750382E-16
4.264371E+03	9.944709E-15	1.736830E-16
4.274265E+03	9.891487E-15	1.724557E-16
4.284159E+03	9.844437E-15	1.713512E-16
4.294054E+03	9.802918E-15	1.703571E-16
4.303948E+03	9.766616E-15	1.694671E-16
4.313842E+03	9.735042E-15	1.686716E-16
4.323736E+03	9.707844E-15	1.679639E-16
4.333630E+03	9.684633E-15	1.673364E-16
4.343524E+03	9.665138E-15	1.667836E-16
4.353418E+03	9.649058E-15	1.662998E-16
4.363313E+03	9.636274E-15	1.658821E-16
4.373207E+03	9.626518E-15	1.655255E-16
4.383101E+03	9.619517E-15	1.652246E-16
4.392995E+03	9.615200E-15	1.649777E-16
4.402889E+03	9.613303E-15	1.647798E-16
4.412783E+03	9.613668E-15	1.646276E-16
4.422677E+03	9.616190E-15	1.645189E-16
4.432571E+03	9.620518E-15	1.644472E-16
4.442466E+03	9.626549E-15	1.644104E-16
4.452360E+03	9.634083E-15	1.644047E-16
4.462254E+03	9.642807E-15	1.644243E-16
4.472148E+03	9.652523E-15	1.644655E-16
4.482042E+03	9.663016E-15	1.645243E-16
4.491936E+03	9.674081E-15	1.645969E-16
4.501830E+03	9.685517E-15	1.646795E-16
4.511725E+03	9.697058E-15	1.647674E-16
4.521619E+03	9.708461E-15	1.648560E-16
4.531513E+03	9.719779E-15	1.649461E-16
4.541407E+03	9.730722E-15	1.650324E-16
4.551301E+03	9.741134E-15	1.651120E-16
4.561195E+03	9.751076E-15	1.651858E-16
4.571089E+03	9.760547E-15	1.652534E-16
4.580983E+03	9.769310E-15	1.653107E-16
4.590878E+03	9.777715E-15	1.653633E-16
4.600772E+03	9.785470E-15	1.654061E-16
4.610666E+03	9.792882E-15	1.654440E-16
4.620560E+03	9.800003E-15	1.654777E-16
4.630454E+03	9.806892E-15	1.655080E-16
4.640348E+03	9.813609E-15	1.655357E-16
4.650242E+03	9.820222E-15	1.655619E-16
4.660137E+03	9.827002E-15	1.655907E-16
4.670031E+03	9.833912E-15	1.656216E-16
4.679925E+03	9.840989E-15	1.656548E-16
4.689819E+03	9.848371E-15	1.656926E-16
4.699713E+03	9.855871E-15	1.657317E-16
4.709607E+03	9.863760E-15	1.657764E-16
4.719501E+03	9.871701E-15	1.658210E-16
4.729395E+03	9.879814E-15	1.658673E-16
4.739290E+03	9.887997E-15	1.659136E-16
4.749184E+03	9.895907E-15	1.659539E-16
4.759078E+03	9.903477E-15	1.659871E-16
4.768972E+03	9.910592E-15	1.660111E-16
4.778866E+03	9.916848E-15	1.660191E-16
4.788760E+03	9.922091E-15	1.660084E-16
4.798654E+03	9.926064E-15	1.659749E-16
4.808549E+03	9.928413E-15	1.659124E-16
4.818443E+03	9.928864E-15	1.658166E-16
4.828337E+03	9.927273E-15	1.656849E-16
4.838231E+03	9.923302E-15	1.655117E-16
4.848125E+03	9.916849E-15	1.652956E-16
4.858019E+03	9.907543E-15	1.650303E-16
4.867913E+03	9.895341E-15	1.647152E-16
4.877807E+03	9.880161E-15	1.643491E-16
4.887702E+03	9.861851E-15	1.639297E-16
4.897596E+03	9.840521E-15	1.634588E-16
4.907490E+03	9.816118E-15	1.629358E-16
4.917384E+03	9.788838E-15	1.623641E-16
4.927278E+03	9.758714E-15	1.617444E-16
4.937172E+03	9.725903E-15	1.610795E-16
4.947066E+03	9.690509E-15	1.603713E-16
4.956961E+03	9.652934E-15	1.596266E-16
4.966855E+03	9.613213E-15	1.588463E-16
4.976749E+03	9.571572E-15	1.580342E-16
4.986643E+03	9.528345E-15	1.571960E-16
4.996537E+03	9.483682E-15	1.563345E-16
5.006431E+03	9.437805E-15	1.554534E-16
5.016325E+03	9.390943E-15	1.545568E-16
5.026219E+03	9.343330E-15	1.536486E-16
5.036114E+03	9.295080E-15	1.527309E-16
5.046008E+03	9.246398E-15	1.518072E-16
5.055902E+03	9.197582E-15	1.508826E-16
5.065796E+03	9.148635E-15	1.499574E-16
5.075690E+03	9.099914E-15	1.490375E-16
5.085584E+03	9.051294E-15	1.481210E-16
5.095478E+03	9.003122E-15	1.472138E-16
5.105373E+03	8.955426E-15	1.463166E-16
5.115267E+03	8.908321E-15	1.454312E-16
5.125161E+03	8.861894E-15	1.445594E-16
5.135055E+03	8.816143E-15	1.437012E-16
5.144949E+03	8.771130E-15	1.428578E-16
5.154843E+03	8.726814E-15	1.420286E-16
5.164737E+03	8.683435E-15	1.412178E-16
5.174631E+03	8.640759E-15	1.404217E-16
5.184526E+03	8.598938E-15	1.396429E-16
5.194420E+03	8.558005E-15	1.388821E-16
5.204314E+03	8.518017E-15	1.381404E-16
5.214208E+03	8.478869E-15	1.374163E-16
5.224102E+03	8.440731E-15	1.367126E-16
5.233996E+03	8.403589E-15	1.360293E-16
5.243890E+03	8.367551E-15	1.353683E-16
5.253785E+03	8.332626E-15	1.347299E-16
5.263679E+03	8.299013E-15	1.341174E-16
5.273573E+03	8.266674E-15	1.335305E-16
5.283467E+03	8.235723E-15	1.329711E-16
5.293361E+03	8.206202E-15	1.324401E-16
5.303255E+03	8.178312E-15	1.319408E-16
5.313149E+03	8.151919E-15	1.314712E-16
5.323043E+03	8.127206E-15	1.310346E-16
5.332938E+03	8.104177E-15	1.306310E-16
5.342832E+03	8.082823E-15	1.302605E-16
5.352726E+03	8.062959E-15	1.299202E-16
5.362620E+03	8.044561E-15	1.296096E-16
5.372514E+03	8.027619E-15	1.293283E-16
5.382408E+03	8.011827E-15	1.290712E-16
5.392302E+03	7.997218E-15	1.288386E-16
5.402196E+03	7.983580E-15	1.286270E-16
5.412091E+03	7.970835E-15	1.284347E-16
5.421985E+03	7.959276E-15	1.282665E-16
5.431879E+03	7.948829E-15	1.281208E-16
5.441773E+03	7.939711E-15	1.280010E-16
5.451667E+03	7.931936E-15	1.279071E-16
5.461561E+03	7.925732E-15	1.278427E-16
5.471455E+03	7.920903E-15	1.278045E-16
5.481350E+03	7.917473E-15	1.277926E-16
5.491244E+03	7.915292E-15	1.278045E-16
5.501138E+03	7.914447E-15	1.278414E-16
5.511032E+03	7.914701E-15	1.278995E-16
5.520926E+03	7.915982E-15	1.279773E-16
5.530820E+03	7.918148E-15	1.280726E-16
5.540714E+03	7.921231E-15	1.281856E-16
5.550608E+03	7.925039E-15	1.283132E-16
5.560503E+03	7.929564E-15	1.284550E-16
5.570397E+03	7.934819E-15	1.286113E-16
5.580291E+03	7.940759E-15	1.287812E-16
5.590185E+03	7.947447E-15	1.289655E-16
5.600079E+03	7.954802E-15	1.291629E-16
5.609973E+03	7.962929E-15	1.293751E-16
5.619867E+03	7.971954E-15	1.296039E-16
5.629762E+03	7.981934E-15	1.298502E-16
5.639656E+03	7.992933E-15	1.301150E-16
5.649550E+03	8.005028E-15	1.303995E-16
5.659444E+03	8.018456E-15	1.307076E-16
5.669338E+03	8.033119E-15	1.310375E-16
5.679232E+03	8.049239E-15	1.313929E-16
5.689126E+03	8.066854E-15	1.317744E-16
5.699020E+03	8.085891E-15	1.321808E-16
5.708915E+03	8.106417E-15	1.326132E-16
5.718809E+03	8.128465E-15	1.330720E-16
5.728703E+03	8.151852E-15	1.335545E-16
5.738597E+03	8.176439E-15	1.340581E-16
5.748491E+03	8.202219E-15	1.345830E-16
5.758385E+03	8.228780E-15	1.351223E-16
5.768279E+03	8.255930E-15	1.356728E-16
5.778174E+03	8.283348E-15	1.362294E-16
5.788068E+03	8.310671E-15	1.367860E-16
5.797962E+03	8.337597E-15	1.373376E-16
5.807856E+03	8.363524E-15	1.378744E-16
5.817750E+03	8.388210E-15	1.383923E-16
5.827644E+03	8.411134E-15	1.388827E-16
5.837538E+03	8.431885E-15	1.393386E-16
5.847432E+03	8.450077E-15	1.397538E-16
5.857327E+03	8.465374E-15	1.401225E-16
5.867221E+03	8.477587E-15	1.404415E-16
5.877115E+03	8.486312E-15	1.407040E-16
5.887009E+03	8.491410E-15	1.409078E-16
5.896903E+03	8.492927E-15	1.410533E-16
5.906797E+03	8.490896E-15	1.411410E-16
5.916691E+03	8.485239E-15	1.411697E-16
5.926586E+03	8.476354E-15	1.411457E-16
5.936480E+03	8.464218E-15	1.410687E-16
5.946374E+03	8.449461E-15	1.409491E-16
5.956268E+03	8.432172E-15	1.407883E-16
5.966162E+03	8.412774E-15	1.405933E-16
5.976056E+03	8.391814E-15	1.403734E-16
5.985950E+03	8.369648E-15	1.401344E-16
5.995844E+03	8.346736E-15	1.398840E-16
6.005739E+03	8.323323E-15	1.396266E-16
6.015633E+03	8.300036E-15	1.393726E-16
6.025527E+03	8.276975E-15	1.391238E-16
6.035421E+03	8.254708E-15	1.388900E-16
6.045315E+03	8.233466E-15	1.386751E-16
6.055209E+03	8.213440E-15	1.384825E-16
6.065103E+03	8.194880E-15	1.383166E-16
6.074998E+03	8.178090E-15	1.381828E-16
6.084892E+03	8.163129E-15	1.380822E-16
6.094786E+03	8.150112E-15	1.380170E-16
6.104680E+03	8.139305E-15	1.379920E-16
6.114574E+03	8.130525E-15	1.380043E-16
6.124468E+03	8.123843E-15	1.380554E-16
6.134362E+03	8.119285E-15	1.381459E-16
6.144256E+03	8.116834E-15	1.382760E-16
6.154151E+03	8.116225E-15	1.384412E-16
6.164045E+03	8.117259E-15	1.386386E-16
6.173939E+03	8.119815E-15	1.388663E-16
6.183833E+03	8.123549E-15	1.391186E-16
6.193727E+03	8.128339E-15	1.393937E-16
6.203621E+03	8.134015E-15	1.396890E-16
6.213515E+03	8.140639E-15	1.400057E-16
6.223410E+03	8.148350E-15	1.403464E-16
6.233304E+03	8.157422E-15	1.407156E-16
6.243198E+03	8.168298E-15	1.411211E-16
6.253092E+03	8.181434E-15	1.415706E-16
6.262986E+03	8.197039E-15	1.420678E-16
6.272880E+03	8.215510E-15	1.426195E-16
6.282774E+03	8.237197E-15	1.432320E-16
6.292668E+03	8.262161E-15	1.439064E-16
6.302563E+03	8.290743E-15	1.446487E-16
6.312457E+03	8.322989E-15	1.454600E-16
6.322351E+03	8.358867E-15	1.463399E-16
6.332245E+03	8.398271E-15	1.472866E-16
6.342139E+03	8.441269E-15	1.483015E-16
6.352033E+03	8.487489E-15	1.493782E-16
6.361927E+03	8.536866E-15	1.505159E-16
6.371822E+03	8.589020E-15	1.517078E-16
6.381716E+03	8.643513E-15	1.529464E-16
6.391610E+03	8.699978E-15	1.542253E-16
6.401504E+03	8.757875E-15	1.555349E-16
6.411398E+03	8.816754E-15	1.568671E-16
6.421292E+03	8.875731E-15	1.582063E-16
6.431186E+03	8.934435E-15	1.595455E-16
6.441080E+03	8.992215E-15	1.608731E-16
6.450975E+03	9.048274E-15	1.621745E-16
6.460869E+03	9.102101E-15	1.634401E-16
6.470763E+03	9.153062E-15	1.646583E-16
6.480657E+03	9.200556E-15	1.658177E-16
6.490551E+03	9.244002E-15	1.669074E-16
6.500445E+03	9.283043E-15	1.679204E-16
6.510339E+03	9.317069E-15	1.688450E-16
6.520234E+03	9.345674E-15	1.696733E-16
6.530128E+03	9.368700E-15	1.704018E-16
6.540022E+03	9.385898E-15	1.710251E-16
6.549916E+03	9.396948E-15	1.715367E-16
6.559810E+03	9.401959E-15	1.719380E-16
6.569704E+03	9.400756E-15	1.722250E-16
6.579598E+03	9.393761E-15	1.724047E-16
6.589492E+03	9.380837E-15	1.724740E-16
6.599387E+03	9.362213E-15	1.724364E-16
6.609281E+03	9.338365E-15	1.723000E-16
6.619175E+03	9.309658E-15	1.720712E-16
6.629069E+03	9.276339E-15	1.717537E-16
6.638963E+03	9.238854E-15	1.713556E-16
6.648857E+03	9.197840E-15	1.708881E-16
6.658751E+03	9.153616E-15	1.703569E-16
6.668645E+03	9.106835E-15	1.697737E-16
6.678540E+03	9.057668E-15	1.691415E-16
6.688434E+03	9.006924E-15	1.684752E-16
6.698328E+03	8.954743E-15	1.677773E-16
6.708222E+03	8.901892E-15	1.670620E-16
6.718116E+03	8.848465E-15	1.663311E-16
6.728010E+03	8.795013E-15	1.655949E-16
6.737904E+03	8.741886E-15	1.648601E-16
6.747799E+03	8.689242E-15	1.641296E-16
6.757693E+03	8.637520E-15	1.634119E-16
6.767587E+03	8.586802E-15	1.627086E-16
6.777481E+03	8.537448E-15	1.620268E-16
6.787375E+03	8.489306E-15	1.613637E-16
6.797269E+03	8.442819E-15	1.607278E-16
6.807163E+03	8.397920E-15	1.601182E-16
6.817057E+03	8.354662E-15	1.595360E-16
6.826952E+03	8.312907E-15	1.589789E-16
6.836846E+03	8.272964E-15	1.584528E-16
6.846740E+03	8.234317E-15	1.579483E-16
6.856634E+03	8.197371E-15	1.574732E-16
6.866528E+03	8.161721E-15	1.570199E-16
6.876422E+03	8.127248E-15	1.565865E-16
6.886316E+03	8.093974E-15	1.561735E-16
6.896211E+03	8.061587E-15	1.557750E-16
6.906105E+03	8.029915E-15	1.553880E-16
6.915999E+03	7.998777E-15	1.550090E-16
6.925893E+03	7.967980E-15	1.546345E-16
6.935787E+03	7.937322E-15	1.542607E-16
6.945681E+03	7.906444E-15	1.538807E-16
6.955575E+03	7.875452E-15	1.534967E-16
6.965469E+03	7.843677E-15	1.530957E-16
6.975364E+03	7.811387E-15	1.526831E-16
6.985258E+03	7.777928E-15	1.522461E-16
6.995152E+03	7.743434E-15	1.517874E-16
7.005046E+03	7.707589E-15	1.513008E-16
7.014940E+03	7.670251E-15	1.507836E-16
7.024834E+03	7.631454E-15	1.502364E-16
7.034728E+03	7.590792E-15	1.496512E-16
7.044623E+03	7.548349E-15	1.490297E-16
7.054517E+03	7.503932E-15	1.483680E-16
7.064411E+03	7.457680E-15	1.476689E-16
7.074305E+03	7.409609E-15	1.469327E-16
7.084199E+03	7.359613E-15	1.461571E-16
7.094093E+03	7.307915E-15	1.453467E-16
7.103987E+03	7.254313E-15	1.444974E-16
7.113881E+03	7.199226E-15	1.436175E-16
7.123776E+03	7.142644E-15	1.427067E-16
7.133670E+03	7.084575E-15	1.417653E-16
7.143564E+03	7.025330E-15	1.407995E-16
7.153458E+03	6.965082E-15	1.398127E-16
7.163352E+03	6.903864E-15	1.388055E-16
7.173246E+03	6.841851E-15	1.377816E-16
7.183140E+03	6.779220E-15	1.367446E-16
7.193035E+03	6.716140E-15	1.356978E-16
7.202929E+03	6.652772E-15	1.346446E-16
7.212823E+03	6.588995E-15	1.335827E-16
7.222717E+03	6.525231E-15	1.325205E-16
7.232611E+03	6.461482E-15	1.314582E-16
7.242505E+03	6.397741E-15	1.303958E-16
7.252399E+03	6.334265E-15	1.293386E-16
7.262293E+03	6.270903E-15	1.282835E-16
7.272188E+03	6.207767E-15	1.272330E-16
7.282082E+03	6.144962E-15	1.261892E-16
7.291976E+03	6.082459E-15	1.251516E-16
7.301870E+03	6.020480E-15	1.241250E-16
7.311764E+03	5.958739E-15	1.231034E-16
7.321658E+03	5.897575E-15	1.220940E-16
7.331552E+03	5.836823E-15	1.210934E-16
7.341447E+03	5.776689E-15	1.201059E-16
7.351341E+03	5.717123E-15	1.191308E-16
7.361235E+03	5.658196E-15	1.181694E-16
7.371129E+03	5.600092E-15	1.172257E-16
7.381023E+03	5.542750E-15	1.162986E-16
7.390917E+03	5.486575E-15	1.153967E-16
7.400811E+03	5.431372E-15	1.145160E-16
7.410705E+03	5.377410E-15	1.136624E-16
7.420600E+03	5.324600E-15	1.128341E-16
7.430494E+03	5.273308E-15	1.120391E-16
7.440388E+03	5.223432E-15	1.112754E-16
7.450282E+03	5.174975E-15	1.105433E-16
7.460176E+03	5.128052E-15	1.098455E-16
7.470070E+03	5.082658E-15	1.091820E-16
7.479964E+03	5.039002E-15	1.085578E-16
7.489859E+03	4.996843E-15	1.079677E-16
7.499753E+03	4.956271E-15	1.074142E-16
7.509647E+03	4.917368E-15	1.068991E-16
7.519541E+03	4.879990E-15	1.064197E-16
7.529435E+03	4.844206E-15	1.059776E-16
7.539329E+03	4.809859E-15	1.055697E-16
7.549223E+03	4.777112E-15	1.051994E-16
7.559117E+03	4.745682E-15	1.048606E-16
7.569012E+03	4.715709E-15	1.045565E-16
7.578906E+03	4.686894E-15	1.042804E-16
7.588800E+03	4.659355E-15	1.040351E-16
7.598694E+03	4.632778E-15	1.038135E-16
7.608588E+03	4.607271E-15	1.036181E-16
7.618482E+03	4.582636E-15	1.034444E-16
7.628376E+03	4.558822E-15	1.032913E-16
7.638271E+03	4.535850E-15	1.031593E-16
7.648165E+03	4.513814E-15	1.030505E-16
7.658059E+03	4.492846E-15	1.029679E-16
7.667953E+03	4.472978E-15	1.029124E-16
7.677847E+03	4.454544E-15	1.028919E-16
