#wls	flux	fluxerr
1.583061E+03	7.084897E-15	3.599532E-16
1.622638E+03	7.264698E-15	3.462354E-16
1.662214E+03	7.432155E-15	3.309526E-16
1.701791E+03	7.584254E-15	3.141724E-16
1.741367E+03	7.718407E-15	2.960328E-16
1.780944E+03	7.831516E-15	2.767043E-16
1.820520E+03	7.917415E-15	2.563172E-16
1.860097E+03	7.973476E-15	2.352035E-16
1.899673E+03	7.996313E-15	2.137330E-16
1.939250E+03	7.985639E-15	1.924189E-16
1.978827E+03	7.946720E-15	1.719330E-16
2.018403E+03	7.895386E-15	1.531403E-16
2.057980E+03	7.857406E-15	1.369867E-16
2.097556E+03	7.862438E-15	1.243363E-16
2.137133E+03	7.938231E-15	1.157882E-16
2.176709E+03	8.093736E-15	1.111134E-16
2.216286E+03	8.319459E-15	1.096923E-16
2.255862E+03	8.589617E-15	1.107455E-16
2.295439E+03	8.876923E-15	1.134046E-16
2.335015E+03	9.159911E-15	1.166956E-16
2.374592E+03	9.422837E-15	1.198182E-16
2.414168E+03	9.659421E-15	1.222908E-16
2.453745E+03	9.874156E-15	1.240123E-16
2.493321E+03	1.007898E-14	1.252393E-16
2.532898E+03	1.029371E-14	1.265969E-16
2.572475E+03	1.053718E-14	1.289611E-16
2.612051E+03	1.081058E-14	1.332244E-16
2.651628E+03	1.111949E-14	1.404414E-16
2.691204E+03	1.146328E-14	1.508868E-16
2.730781E+03	1.182366E-14	1.636963E-16
2.770357E+03	1.218031E-14	1.778027E-16
2.809934E+03	1.251612E-14	1.921472E-16
2.849510E+03	1.281849E-14	2.057709E-16
2.889087E+03	1.307767E-14	2.178352E-16
2.928663E+03	1.328850E-14	2.276810E-16
2.968240E+03	1.344723E-14	2.347956E-16
2.978134E+03	1.347900E-14	2.361116E-16
2.988028E+03	1.350726E-14	2.372287E-16
2.997922E+03	1.353200E-14	2.381436E-16
3.007816E+03	1.355384E-14	2.388648E-16
3.017710E+03	1.357260E-14	2.393873E-16
3.027605E+03	1.358840E-14	2.397119E-16
3.037499E+03	1.360154E-14	2.398431E-16
3.047393E+03	1.361174E-14	2.397758E-16
3.057287E+03	1.361923E-14	2.395144E-16
3.067181E+03	1.362452E-14	2.390686E-16
3.077075E+03	1.362703E-14	2.384298E-16
3.086969E+03	1.362703E-14	2.376045E-16
3.096864E+03	1.362426E-14	2.365910E-16
3.106758E+03	1.361956E-14	2.354064E-16
3.116652E+03	1.361215E-14	2.340415E-16
3.126546E+03	1.360236E-14	2.325057E-16
3.136440E+03	1.359051E-14	2.308096E-16
3.146334E+03	1.357670E-14	2.289599E-16
3.156228E+03	1.356050E-14	2.269555E-16
3.166122E+03	1.354280E-14	2.248177E-16
3.176017E+03	1.352322E-14	2.225474E-16
3.185911E+03	1.350214E-14	2.201585E-16
3.195805E+03	1.347950E-14	2.176583E-16
3.205699E+03	1.345569E-14	2.150620E-16
3.215593E+03	1.343090E-14	2.123824E-16
3.225487E+03	1.340532E-14	2.096326E-16
3.235381E+03	1.337894E-14	2.068232E-16
3.245276E+03	1.335221E-14	2.039729E-16
3.255170E+03	1.332538E-14	2.010976E-16
3.265064E+03	1.329847E-14	1.982106E-16
3.274958E+03	1.327201E-14	1.953335E-16
3.284852E+03	1.324609E-14	1.924821E-16
3.294746E+03	1.322125E-14	1.896796E-16
3.304640E+03	1.319767E-14	1.869441E-16
3.314534E+03	1.317569E-14	1.842973E-16
3.324429E+03	1.315570E-14	1.817620E-16
3.334323E+03	1.313803E-14	1.793609E-16
3.344217E+03	1.312299E-14	1.771168E-16
3.354111E+03	1.311062E-14	1.750498E-16
3.364005E+03	1.310125E-14	1.731843E-16
3.373899E+03	1.309452E-14	1.715357E-16
3.383793E+03	1.309061E-14	1.701271E-16
3.393688E+03	1.308871E-14	1.689687E-16
3.403582E+03	1.308806E-14	1.680711E-16
3.413476E+03	1.308746E-14	1.674385E-16
3.423370E+03	1.308502E-14	1.670656E-16
3.433264E+03	1.307862E-14	1.669417E-16
3.443158E+03	1.306539E-14	1.670355E-16
3.453052E+03	1.304308E-14	1.673037E-16
3.462946E+03	1.301096E-14	1.677169E-16
3.472841E+03	1.297024E-14	1.682673E-16
3.482735E+03	1.292321E-14	1.689599E-16
3.492629E+03	1.287178E-14	1.697941E-16
3.502523E+03	1.281849E-14	1.707782E-16
3.512417E+03	1.276552E-14	1.719170E-16
3.522311E+03	1.271506E-14	1.732171E-16
3.532205E+03	1.266886E-14	1.746814E-16
3.542100E+03	1.262861E-14	1.763144E-16
3.551994E+03	1.259612E-14	1.781245E-16
3.561888E+03	1.257238E-14	1.801111E-16
3.571782E+03	1.255875E-14	1.822812E-16
3.581676E+03	1.255606E-14	1.846361E-16
3.591570E+03	1.256478E-14	1.871736E-16
3.601464E+03	1.258524E-14	1.898910E-16
3.611358E+03	1.261768E-14	1.927848E-16
3.621253E+03	1.266176E-14	1.958440E-16
3.631147E+03	1.271726E-14	1.990596E-16
3.641041E+03	1.278312E-14	2.024098E-16
3.650935E+03	1.285842E-14	2.058745E-16
3.660829E+03	1.294189E-14	2.094273E-16
3.670723E+03	1.303217E-14	2.130402E-16
3.680617E+03	1.312755E-14	2.166783E-16
3.690512E+03	1.322659E-14	2.203107E-16
3.700406E+03	1.332776E-14	2.239040E-16
3.710300E+03	1.342982E-14	2.274295E-16
3.720194E+03	1.353156E-14	2.308584E-16
3.730088E+03	1.363212E-14	2.341675E-16
3.739982E+03	1.373068E-14	2.373347E-16
3.749876E+03	1.382666E-14	2.403419E-16
3.759770E+03	1.392004E-14	2.431810E-16
3.769665E+03	1.401026E-14	2.458352E-16
3.779559E+03	1.409746E-14	2.483004E-16
3.789453E+03	1.418190E-14	2.505744E-16
3.799347E+03	1.426341E-14	2.526494E-16
3.809241E+03	1.434220E-14	2.545234E-16
3.819135E+03	1.441853E-14	2.561965E-16
3.829029E+03	1.449245E-14	2.576661E-16
3.838924E+03	1.456399E-14	2.589287E-16
3.848818E+03	1.463288E-14	2.599769E-16
3.858712E+03	1.469906E-14	2.608072E-16
3.868606E+03	1.476230E-14	2.614134E-16
3.878500E+03	1.482226E-14	2.617887E-16
3.888394E+03	1.487861E-14	2.619266E-16
3.898288E+03	1.493091E-14	2.618195E-16
3.908182E+03	1.497880E-14	2.614621E-16
3.918077E+03	1.502173E-14	2.608468E-16
3.927971E+03	1.505902E-14	2.599644E-16
3.937865E+03	1.509045E-14	2.588150E-16
3.947759E+03	1.511546E-14	2.573941E-16
3.957653E+03	1.513393E-14	2.557054E-16
3.967547E+03	1.514576E-14	2.537542E-16
3.977441E+03	1.515085E-14	2.515470E-16
3.987336E+03	1.514962E-14	2.490997E-16
3.997230E+03	1.514213E-14	2.464233E-16
4.007124E+03	1.512879E-14	2.435354E-16
4.017018E+03	1.510987E-14	2.404520E-16
4.026912E+03	1.508567E-14	2.371909E-16
4.036806E+03	1.505648E-14	2.337703E-16
4.046700E+03	1.502271E-14	2.302109E-16
4.056594E+03	1.498446E-14	2.265302E-16
4.066489E+03	1.494201E-14	2.227486E-16
4.076383E+03	1.489590E-14	2.188921E-16
4.086277E+03	1.484626E-14	2.149811E-16
4.096171E+03	1.479376E-14	2.110449E-16
4.106065E+03	1.473910E-14	2.071141E-16
4.115959E+03	1.468317E-14	2.032221E-16
4.125853E+03	1.462705E-14	1.994059E-16
4.135748E+03	1.457197E-14	1.957049E-16
4.145642E+03	1.451929E-14	1.921602E-16
4.155536E+03	1.447042E-14	1.888140E-16
4.165430E+03	1.442670E-14	1.857078E-16
4.175324E+03	1.438931E-14	1.828815E-16
4.185218E+03	1.435903E-14	1.803699E-16
4.195112E+03	1.433625E-14	1.782043E-16
4.205006E+03	1.432101E-14	1.764116E-16
4.214901E+03	1.431254E-14	1.750101E-16
4.224795E+03	1.430918E-14	1.740068E-16
4.234689E+03	1.430903E-14	1.734060E-16
4.244583E+03	1.430943E-14	1.732000E-16
4.254477E+03	1.430742E-14	1.733622E-16
4.264371E+03	1.430000E-14	1.738547E-16
4.274265E+03	1.428537E-14	1.746501E-16
4.284159E+03	1.426389E-14	1.757433E-16
4.294054E+03	1.423567E-14	1.771225E-16
4.303948E+03	1.420120E-14	1.787743E-16
4.313842E+03	1.416055E-14	1.806691E-16
4.323736E+03	1.411401E-14	1.827779E-16
4.333630E+03	1.406236E-14	1.850766E-16
4.343524E+03	1.400653E-14	1.875438E-16
4.353418E+03	1.394725E-14	1.901566E-16
4.363313E+03	1.388554E-14	1.928974E-16
4.373207E+03	1.382213E-14	1.957468E-16
4.383101E+03	1.375778E-14	1.986882E-16
4.392995E+03	1.369353E-14	2.017111E-16
4.402889E+03	1.363013E-14	2.048042E-16
4.412783E+03	1.356847E-14	2.079607E-16
4.422677E+03	1.350938E-14	2.111754E-16
4.432571E+03	1.345314E-14	2.144373E-16
4.442466E+03	1.340006E-14	2.177378E-16
4.452360E+03	1.335011E-14	2.210643E-16
4.462254E+03	1.330285E-14	2.243986E-16
4.472148E+03	1.325783E-14	2.277233E-16
4.482042E+03	1.321451E-14	2.310194E-16
4.491936E+03	1.317228E-14	2.342675E-16
4.501830E+03	1.313054E-14	2.374484E-16
4.511725E+03	1.308868E-14	2.405427E-16
4.521619E+03	1.304619E-14	2.435328E-16
4.531513E+03	1.300306E-14	2.464115E-16
4.541407E+03	1.295899E-14	2.491657E-16
4.551301E+03	1.291392E-14	2.517881E-16
4.561195E+03	1.286820E-14	2.542795E-16
4.571089E+03	1.282220E-14	2.566423E-16
4.580983E+03	1.277600E-14	2.588740E-16
4.590878E+03	1.273051E-14	2.609893E-16
4.600772E+03	1.268585E-14	2.629884E-16
4.610666E+03	1.264290E-14	2.648871E-16
4.620560E+03	1.260222E-14	2.666959E-16
4.630454E+03	1.256437E-14	2.684259E-16
4.640348E+03	1.252990E-14	2.700890E-16
4.650242E+03	1.249936E-14	2.716968E-16
4.660137E+03	1.247350E-14	2.732666E-16
4.670031E+03	1.245271E-14	2.748073E-16
4.679925E+03	1.243739E-14	2.763289E-16
4.689819E+03	1.242803E-14	2.778432E-16
4.699713E+03	1.242462E-14	2.793511E-16
4.709607E+03	1.242765E-14	2.808643E-16
4.719501E+03	1.243671E-14	2.823740E-16
4.729395E+03	1.245185E-14	2.838815E-16
4.739290E+03	1.247266E-14	2.853776E-16
4.749184E+03	1.249827E-14	2.868421E-16
4.759078E+03	1.252803E-14	2.882589E-16
4.768972E+03	1.256107E-14	2.896074E-16
4.778866E+03	1.259595E-14	2.908525E-16
4.788760E+03	1.263140E-14	2.919636E-16
4.798654E+03	1.266584E-14	2.929024E-16
4.808549E+03	1.269741E-14	2.936244E-16
4.818443E+03	1.272436E-14	2.940884E-16
4.828337E+03	1.274519E-14	2.942584E-16
4.838231E+03	1.275822E-14	2.940962E-16
4.848125E+03	1.276228E-14	2.935755E-16
4.858019E+03	1.275614E-14	2.926692E-16
4.867913E+03	1.273923E-14	2.913675E-16
4.877807E+03	1.271123E-14	2.896666E-16
4.887702E+03	1.267213E-14	2.875708E-16
4.897596E+03	1.262254E-14	2.850998E-16
4.907490E+03	1.256328E-14	2.822779E-16
4.917384E+03	1.249577E-14	2.791440E-16
4.927278E+03	1.242145E-14	2.757368E-16
4.937172E+03	1.234192E-14	2.720988E-16
4.947066E+03	1.225860E-14	2.682678E-16
4.956961E+03	1.217315E-14	2.642867E-16
4.966855E+03	1.208652E-14	2.601814E-16
4.976749E+03	1.199967E-14	2.559790E-16
4.986643E+03	1.191352E-14	2.517036E-16
4.996537E+03	1.182851E-14	2.473696E-16
5.006431E+03	1.174506E-14	2.429906E-16
5.016325E+03	1.166346E-14	2.385772E-16
5.026219E+03	1.158401E-14	2.341396E-16
5.036114E+03	1.150686E-14	2.296854E-16
5.046008E+03	1.143239E-14	2.252263E-16
5.055902E+03	1.136113E-14	2.207765E-16
5.065796E+03	1.129333E-14	2.163452E-16
5.075690E+03	1.122978E-14	2.119504E-16
5.085584E+03	1.117067E-14	2.075989E-16
5.095478E+03	1.111666E-14	2.033061E-16
5.105373E+03	1.106799E-14	1.990791E-16
5.115267E+03	1.102481E-14	1.949231E-16
5.125161E+03	1.098702E-14	1.908396E-16
5.135055E+03	1.095424E-14	1.868255E-16
5.144949E+03	1.092603E-14	1.828776E-16
5.154843E+03	1.090173E-14	1.789904E-16
5.164737E+03	1.088094E-14	1.751640E-16
5.174631E+03	1.086272E-14	1.713915E-16
5.184526E+03	1.084661E-14	1.676749E-16
5.194420E+03	1.083213E-14	1.640181E-16
5.204314E+03	1.081885E-14	1.604271E-16
5.214208E+03	1.080628E-14	1.569088E-16
5.224102E+03	1.079432E-14	1.534771E-16
5.233996E+03	1.078268E-14	1.501449E-16
5.243890E+03	1.077119E-14	1.469282E-16
5.253785E+03	1.075956E-14	1.438424E-16
5.263679E+03	1.074769E-14	1.409072E-16
5.273573E+03	1.073509E-14	1.381382E-16
5.283467E+03	1.072147E-14	1.355543E-16
5.293361E+03	1.070641E-14	1.331738E-16
5.303255E+03	1.068973E-14	1.310182E-16
5.313149E+03	1.067087E-14	1.291035E-16
5.323043E+03	1.064976E-14	1.274512E-16
5.332938E+03	1.062630E-14	1.260802E-16
5.342832E+03	1.060046E-14	1.250079E-16
5.352726E+03	1.057222E-14	1.242474E-16
5.362620E+03	1.054203E-14	1.238020E-16
5.372514E+03	1.051075E-14	1.236718E-16
5.382408E+03	1.047925E-14	1.238476E-16
5.392302E+03	1.044839E-14	1.243155E-16
5.402196E+03	1.041844E-14	1.250533E-16
5.412091E+03	1.038964E-14	1.260377E-16
5.421985E+03	1.036265E-14	1.272504E-16
5.431879E+03	1.033755E-14	1.286669E-16
5.441773E+03	1.031473E-14	1.302674E-16
5.451667E+03	1.029431E-14	1.320296E-16
5.461561E+03	1.027659E-14	1.339357E-16
5.471455E+03	1.026126E-14	1.359609E-16
5.481350E+03	1.024823E-14	1.380849E-16
5.491244E+03	1.023710E-14	1.402847E-16
5.501138E+03	1.022775E-14	1.425419E-16
5.511032E+03	1.021963E-14	1.448338E-16
5.520926E+03	1.021238E-14	1.471408E-16
5.530820E+03	1.020559E-14	1.494438E-16
5.540714E+03	1.019915E-14	1.517288E-16
5.550608E+03	1.019269E-14	1.539788E-16
5.560503E+03	1.018618E-14	1.561830E-16
5.570397E+03	1.017971E-14	1.583332E-16
5.580291E+03	1.017338E-14	1.604218E-16
5.590185E+03	1.016749E-14	1.624462E-16
5.600079E+03	1.016224E-14	1.644025E-16
5.609973E+03	1.015811E-14	1.662923E-16
5.619867E+03	1.015563E-14	1.681193E-16
5.629762E+03	1.015532E-14	1.698872E-16
5.639656E+03	1.015770E-14	1.716010E-16
5.649550E+03	1.016333E-14	1.732671E-16
5.659444E+03	1.017303E-14	1.748966E-16
5.669338E+03	1.018717E-14	1.764937E-16
5.679232E+03	1.020655E-14	1.780702E-16
5.689126E+03	1.023172E-14	1.796340E-16
5.699020E+03	1.026306E-14	1.811899E-16
5.708915E+03	1.030104E-14	1.827446E-16
5.718809E+03	1.034607E-14	1.843035E-16
5.728703E+03	1.039815E-14	1.858647E-16
5.738597E+03	1.045727E-14	1.874254E-16
5.748491E+03	1.052343E-14	1.889834E-16
5.758385E+03	1.059603E-14	1.905246E-16
5.768279E+03	1.067458E-14	1.920370E-16
5.778174E+03	1.075829E-14	1.935029E-16
5.788068E+03	1.084614E-14	1.949000E-16
5.797962E+03	1.093693E-14	1.962031E-16
5.807856E+03	1.102888E-14	1.973763E-16
5.817750E+03	1.112036E-14	1.983874E-16
5.827644E+03	1.120924E-14	1.991951E-16
5.837538E+03	1.129334E-14	1.997592E-16
5.847432E+03	1.137050E-14	2.000403E-16
5.857327E+03	1.143867E-14	2.000034E-16
5.867221E+03	1.149625E-14	1.996225E-16
5.877115E+03	1.154161E-14	1.988734E-16
5.887009E+03	1.157379E-14	1.977450E-16
5.896903E+03	1.159244E-14	1.962393E-16
5.906797E+03	1.159763E-14	1.943660E-16
5.916691E+03	1.158970E-14	1.921412E-16
5.926586E+03	1.157009E-14	1.895998E-16
5.936480E+03	1.153997E-14	1.867731E-16
5.946374E+03	1.150165E-14	1.837102E-16
5.956268E+03	1.145674E-14	1.804489E-16
5.966162E+03	1.140731E-14	1.770333E-16
5.976056E+03	1.135550E-14	1.735078E-16
5.985950E+03	1.130306E-14	1.699098E-16
5.995844E+03	1.125171E-14	1.662752E-16
6.005739E+03	1.120277E-14	1.626331E-16
6.015633E+03	1.115789E-14	1.590173E-16
6.025527E+03	1.111790E-14	1.554487E-16
6.035421E+03	1.108414E-14	1.519559E-16
6.045315E+03	1.105734E-14	1.485589E-16
6.055209E+03	1.103809E-14	1.452765E-16
6.065103E+03	1.102695E-14	1.421283E-16
6.074998E+03	1.102447E-14	1.391349E-16
6.084892E+03	1.103077E-14	1.363136E-16
6.094786E+03	1.104589E-14	1.336828E-16
6.104680E+03	1.106987E-14	1.312643E-16
6.114574E+03	1.110197E-14	1.290731E-16
6.124468E+03	1.114147E-14	1.271289E-16
6.134362E+03	1.118729E-14	1.254509E-16
6.144256E+03	1.123790E-14	1.240574E-16
6.154151E+03	1.129093E-14	1.229605E-16
6.164045E+03	1.134359E-14	1.221711E-16
6.173939E+03	1.139265E-14	1.216966E-16
6.183833E+03	1.143401E-14	1.215345E-16
6.193727E+03	1.146349E-14	1.216784E-16
6.203621E+03	1.147692E-14	1.221160E-16
6.213515E+03	1.147201E-14	1.228423E-16
6.223410E+03	1.145103E-14	1.238697E-16
6.233304E+03	1.141834E-14	1.252164E-16
6.243198E+03	1.137890E-14	1.269024E-16
6.253092E+03	1.133745E-14	1.289440E-16
6.262986E+03	1.129800E-14	1.313506E-16
6.272880E+03	1.126423E-14	1.341315E-16
6.282774E+03	1.123920E-14	1.372934E-16
6.292668E+03	1.122492E-14	1.408360E-16
6.302563E+03	1.122335E-14	1.447638E-16
6.312457E+03	1.123553E-14	1.490751E-16
6.322351E+03	1.126209E-14	1.537672E-16
6.332245E+03	1.130325E-14	1.588359E-16
6.342139E+03	1.135920E-14	1.642798E-16
6.352033E+03	1.142934E-14	1.700885E-16
6.361927E+03	1.151326E-14	1.762557E-16
6.371822E+03	1.160995E-14	1.827668E-16
6.381716E+03	1.171807E-14	1.896019E-16
6.391610E+03	1.183623E-14	1.967391E-16
6.401504E+03	1.196256E-14	2.041467E-16
6.411398E+03	1.209517E-14	2.117906E-16
6.421292E+03	1.223142E-14	2.196202E-16
6.431186E+03	1.236929E-14	2.275922E-16
6.441080E+03	1.250633E-14	2.356519E-16
6.450975E+03	1.263986E-14	2.437369E-16
6.460869E+03	1.276770E-14	2.517895E-16
6.470763E+03	1.288753E-14	2.597466E-16
6.480657E+03	1.299709E-14	2.675421E-16
6.490551E+03	1.309416E-14	2.751081E-16
6.500445E+03	1.317683E-14	2.823794E-16
6.510339E+03	1.324291E-14	2.892832E-16
6.520234E+03	1.329064E-14	2.957525E-16
6.530128E+03	1.331882E-14	3.017316E-16
6.540022E+03	1.332647E-14	3.071692E-16
6.549916E+03	1.331298E-14	3.120216E-16
6.559810E+03	1.327868E-14	3.162681E-16
6.569704E+03	1.322392E-14	3.198900E-16
6.579598E+03	1.315004E-14	3.228954E-16
6.589492E+03	1.305786E-14	3.252816E-16
6.599387E+03	1.294890E-14	3.270669E-16
6.609281E+03	1.282515E-14	3.282842E-16
6.619175E+03	1.268855E-14	3.289691E-16
6.629069E+03	1.254088E-14	3.291572E-16
6.638963E+03	1.238422E-14	3.288942E-16
6.648857E+03	1.222079E-14	3.282338E-16
6.658751E+03	1.205235E-14	3.272202E-16
6.668645E+03	1.188096E-14	3.259081E-16
6.678540E+03	1.170792E-14	3.243348E-16
6.688434E+03	1.153525E-14	3.225586E-16
6.698328E+03	1.136398E-14	3.206128E-16
6.708222E+03	1.119582E-14	3.185505E-16
6.718116E+03	1.103153E-14	3.163999E-16
6.728010E+03	1.087231E-14	3.142025E-16
6.737904E+03	1.071904E-14	3.119908E-16
6.747799E+03	1.057226E-14	3.097885E-16
6.757693E+03	1.043273E-14	3.076252E-16
6.767587E+03	1.030071E-14	3.055163E-16
6.777481E+03	1.017670E-14	3.034846E-16
6.787375E+03	1.006052E-14	3.015315E-16
6.797269E+03	9.952637E-15	2.996777E-16
6.807163E+03	9.852883E-15	2.979247E-16
6.817057E+03	9.761183E-15	2.962761E-16
6.826952E+03	9.677225E-15	2.947277E-16
6.836846E+03	9.601192E-15	2.932898E-16
6.846740E+03	9.532281E-15	2.919421E-16
6.856634E+03	9.470742E-15	2.906959E-16
6.866528E+03	9.415870E-15	2.895327E-16
6.876422E+03	9.367265E-15	2.884429E-16
6.886316E+03	9.324678E-15	2.874210E-16
6.896211E+03	9.287465E-15	2.864488E-16
6.906105E+03	9.255129E-15	2.855124E-16
6.915999E+03	9.227154E-15	2.845969E-16
6.925893E+03	9.203009E-15	2.836866E-16
6.935787E+03	9.182142E-15	2.827651E-16
6.945681E+03	9.163813E-15	2.818099E-16
6.955575E+03	9.147821E-15	2.808152E-16
6.965469E+03	9.133054E-15	2.797471E-16
6.975364E+03	9.119477E-15	2.786048E-16
6.985258E+03	9.105969E-15	2.773544E-16
6.995152E+03	9.092290E-15	2.759893E-16
7.005046E+03	9.077654E-15	2.744865E-16
7.014940E+03	9.061460E-15	2.728291E-16
7.024834E+03	9.043292E-15	2.710059E-16
7.034728E+03	9.022223E-15	2.689915E-16
7.044623E+03	8.997954E-15	2.667792E-16
7.054517E+03	8.969914E-15	2.643555E-16
7.064411E+03	8.938025E-15	2.617215E-16
7.074305E+03	8.902169E-15	2.588780E-16
7.084199E+03	8.862207E-15	2.558253E-16
7.094093E+03	8.818514E-15	2.525792E-16
7.103987E+03	8.771066E-15	2.491438E-16
7.113881E+03	8.720669E-15	2.455474E-16
7.123776E+03	8.667683E-15	2.418051E-16
7.133670E+03	8.612503E-15	2.379330E-16
7.143564E+03	8.555871E-15	2.339564E-16
7.153458E+03	8.498329E-15	2.298947E-16
7.163352E+03	8.440206E-15	2.257610E-16
7.173246E+03	8.381927E-15	2.215709E-16
7.183140E+03	8.323863E-15	2.173382E-16
7.193035E+03	8.266321E-15	2.130746E-16
7.202929E+03	8.209526E-15	2.087895E-16
7.212823E+03	8.153304E-15	2.044822E-16
7.222717E+03	8.098102E-15	2.001676E-16
7.232611E+03	8.043786E-15	1.958461E-16
7.242505E+03	7.990175E-15	1.915175E-16
7.252399E+03	7.937400E-15	1.871891E-16
7.262293E+03	7.885058E-15	1.828564E-16
7.272188E+03	7.833085E-15	1.785231E-16
7.282082E+03	7.781437E-15	1.741940E-16
7.291976E+03	7.729930E-15	1.698715E-16
7.301870E+03	7.678742E-15	1.655662E-16
7.311764E+03	7.627436E-15	1.612762E-16
7.321658E+03	7.576414E-15	1.570182E-16
7.331552E+03	7.525455E-15	1.527962E-16
7.341447E+03	7.474841E-15	1.486253E-16
7.351341E+03	7.424535E-15	1.445145E-16
7.361235E+03	7.374669E-15	1.404772E-16
7.371129E+03	7.325532E-15	1.365303E-16
7.381023E+03	7.277080E-15	1.326852E-16
7.390917E+03	7.229885E-15	1.289652E-16
7.400811E+03	7.183720E-15	1.253802E-16
7.410705E+03	7.138944E-15	1.219516E-16
7.420600E+03	7.095430E-15	1.186931E-16
7.430494E+03	7.053636E-15	1.156298E-16
7.440388E+03	7.013371E-15	1.127765E-16
7.450282E+03	6.974570E-15	1.101516E-16
7.460176E+03	6.937305E-15	1.077763E-16
7.470070E+03	6.901478E-15	1.056698E-16
7.479964E+03	6.867274E-15	1.038554E-16
7.489859E+03	6.834272E-15	1.023471E-16
7.499753E+03	6.802488E-15	1.011643E-16
7.509647E+03	6.771942E-15	1.003249E-16
7.519541E+03	6.742354E-15	9.983950E-17
7.529435E+03	6.713754E-15	9.972067E-17
7.539329E+03	6.685884E-15	9.997216E-17
7.549223E+03	6.658950E-15	1.005929E-16
7.559117E+03	6.632566E-15	1.015642E-16
7.569012E+03	6.606957E-15	1.028734E-16
7.578906E+03	6.581744E-15	1.044963E-16
7.588800E+03	6.557151E-15	1.064163E-16
7.598694E+03	6.532821E-15	1.086066E-16
7.608588E+03	6.509033E-15	1.110503E-16
7.618482E+03	6.485671E-15	1.137243E-16
7.628376E+03	6.462850E-15	1.166101E-16
7.638271E+03	6.440657E-15	1.196897E-16
7.648165E+03	6.419128E-15	1.229457E-16
7.658059E+03	6.398365E-15	1.263633E-16
7.667953E+03	6.378375E-15	1.299274E-16
7.677847E+03	6.359616E-15	1.336337E-16
