#wls	flux	fluxerr
1.583061E+03	6.804538E-15	3.705374E-16
1.622638E+03	6.976662E-15	3.552870E-16
1.662214E+03	7.136755E-15	3.383681E-16
1.701791E+03	7.283108E-15	3.199125E-16
1.741367E+03	7.411529E-15	2.999925E-16
1.780944E+03	7.518551E-15	2.787851E-16
1.820520E+03	7.598667E-15	2.564691E-16
1.860097E+03	7.647581E-15	2.333600E-16
1.899673E+03	7.661161E-15	2.098652E-16
1.939250E+03	7.637992E-15	1.865469E-16
1.978827E+03	7.581853E-15	1.641413E-16
2.018403E+03	7.509849E-15	1.436516E-16
2.057980E+03	7.458007E-15	1.263015E-16
2.097556E+03	7.469074E-15	1.132046E-16
2.137133E+03	7.551814E-15	1.047020E-16
2.176709E+03	7.702946E-15	1.004009E-16
2.216286E+03	7.915219E-15	9.966809E-17
2.255862E+03	8.180844E-15	1.018750E-16
2.295439E+03	8.469694E-15	1.059782E-16
2.335015E+03	8.747421E-15	1.106254E-16
2.374592E+03	8.994125E-15	1.147809E-16
2.414168E+03	9.202269E-15	1.178277E-16
2.453745E+03	9.375354E-15	1.195987E-16
2.493321E+03	9.525256E-15	1.203592E-16
2.532898E+03	9.674452E-15	1.208326E-16
2.572475E+03	9.863292E-15	1.222745E-16
2.612051E+03	1.014740E-14	1.264100E-16
2.651628E+03	1.052357E-14	1.344427E-16
2.691204E+03	1.094437E-14	1.463397E-16
2.730781E+03	1.137646E-14	1.610294E-16
2.770357E+03	1.179490E-14	1.772459E-16
2.809934E+03	1.218204E-14	1.937465E-16
2.849510E+03	1.252522E-14	2.093926E-16
2.889087E+03	1.281577E-14	2.232003E-16
2.928663E+03	1.304838E-14	2.343687E-16
2.968240E+03	1.322027E-14	2.422918E-16
2.978134E+03	1.325348E-14	2.437107E-16
2.988028E+03	1.328294E-14	2.448977E-16
2.997922E+03	1.330830E-14	2.458425E-16
3.007816E+03	1.333011E-14	2.465523E-16
3.017710E+03	1.334814E-14	2.470201E-16
3.027605E+03	1.336244E-14	2.472454E-16
3.037499E+03	1.337297E-14	2.472262E-16
3.047393E+03	1.338026E-14	2.469718E-16
3.057287E+03	1.338387E-14	2.464745E-16
3.067181E+03	1.338425E-14	2.457436E-16
3.077075E+03	1.338104E-14	2.447739E-16
3.086969E+03	1.337442E-14	2.435712E-16
3.096864E+03	1.336431E-14	2.421372E-16
3.106758E+03	1.335068E-14	2.404748E-16
3.116652E+03	1.333346E-14	2.385875E-16
3.126546E+03	1.331289E-14	2.364849E-16
3.136440E+03	1.328872E-14	2.341684E-16
3.146334E+03	1.326118E-14	2.316491E-16
3.156228E+03	1.323032E-14	2.289352E-16
3.166122E+03	1.319615E-14	2.260353E-16
3.176017E+03	1.315899E-14	2.229640E-16
3.185911E+03	1.311844E-14	2.197244E-16
3.195805E+03	1.307528E-14	2.163405E-16
3.205699E+03	1.302899E-14	2.128149E-16
3.215593E+03	1.298036E-14	2.091735E-16
3.225487E+03	1.292914E-14	2.054248E-16
3.235381E+03	1.287575E-14	2.015900E-16
3.245276E+03	1.282045E-14	1.976878E-16
3.255170E+03	1.276329E-14	1.937351E-16
3.265064E+03	1.270501E-14	1.897597E-16
3.274958E+03	1.264557E-14	1.857785E-16
3.284852E+03	1.258540E-14	1.818162E-16
3.294746E+03	1.252532E-14	1.779043E-16
3.304640E+03	1.246545E-14	1.740646E-16
3.314534E+03	1.240638E-14	1.703262E-16
3.324429E+03	1.234867E-14	1.667191E-16
3.334323E+03	1.229315E-14	1.632770E-16
3.344217E+03	1.224013E-14	1.600274E-16
3.354111E+03	1.219029E-14	1.570034E-16
3.364005E+03	1.214449E-14	1.542406E-16
3.373899E+03	1.210322E-14	1.517701E-16
3.383793E+03	1.206708E-14	1.496243E-16
3.393688E+03	1.203629E-14	1.478306E-16
3.403582E+03	1.201132E-14	1.464190E-16
3.413476E+03	1.199228E-14	1.454140E-16
3.423370E+03	1.197853E-14	1.448296E-16
3.433264E+03	1.196912E-14	1.446735E-16
3.443158E+03	1.196180E-14	1.449221E-16
3.453052E+03	1.195314E-14	1.455150E-16
3.462946E+03	1.194001E-14	1.463894E-16
3.472841E+03	1.192226E-14	1.475148E-16
3.482735E+03	1.190057E-14	1.488686E-16
3.492629E+03	1.187633E-14	1.504361E-16
3.502523E+03	1.185116E-14	1.522065E-16
3.512417E+03	1.182666E-14	1.541694E-16
3.522311E+03	1.180467E-14	1.563204E-16
3.532205E+03	1.178663E-14	1.586520E-16
3.542100E+03	1.177411E-14	1.611620E-16
3.551994E+03	1.176867E-14	1.638508E-16
3.561888E+03	1.177148E-14	1.667171E-16
3.571782E+03	1.178367E-14	1.697615E-16
3.581676E+03	1.180610E-14	1.729836E-16
3.591570E+03	1.183942E-14	1.763824E-16
3.601464E+03	1.188425E-14	1.799581E-16
3.611358E+03	1.194070E-14	1.837049E-16
3.621253E+03	1.200902E-14	1.876202E-16
3.631147E+03	1.208885E-14	1.916925E-16
3.641041E+03	1.217971E-14	1.959086E-16
3.650935E+03	1.228097E-14	2.002526E-16
3.660829E+03	1.239128E-14	2.046968E-16
3.670723E+03	1.250920E-14	2.092105E-16
3.680617E+03	1.263329E-14	2.137620E-16
3.690512E+03	1.276167E-14	2.183115E-16
3.700406E+03	1.289257E-14	2.228192E-16
3.710300E+03	1.302454E-14	2.272504E-16
3.720194E+03	1.315597E-14	2.315664E-16
3.730088E+03	1.328567E-14	2.357358E-16
3.739982E+03	1.341286E-14	2.397340E-16
3.749876E+03	1.353674E-14	2.435361E-16
3.759770E+03	1.365690E-14	2.471248E-16
3.769665E+03	1.377315E-14	2.504867E-16
3.779559E+03	1.388544E-14	2.536119E-16
3.789453E+03	1.399394E-14	2.564953E-16
3.799347E+03	1.409868E-14	2.591294E-16
3.809241E+03	1.419990E-14	2.615115E-16
3.819135E+03	1.429778E-14	2.636386E-16
3.829029E+03	1.439219E-14	2.655026E-16
3.838924E+03	1.448303E-14	2.670961E-16
3.848818E+03	1.457026E-14	2.684138E-16
3.858712E+03	1.465346E-14	2.694446E-16
3.868606E+03	1.473206E-14	2.701744E-16
3.878500E+03	1.480583E-14	2.705969E-16
3.888394E+03	1.487436E-14	2.707033E-16
3.898288E+03	1.493685E-14	2.704782E-16
3.908182E+03	1.499289E-14	2.699154E-16
3.918077E+03	1.504197E-14	2.690071E-16
3.927971E+03	1.508348E-14	2.677454E-16
3.937865E+03	1.511680E-14	2.661239E-16
3.947759E+03	1.514193E-14	2.641483E-16
3.957653E+03	1.515851E-14	2.618193E-16
3.967547E+03	1.516659E-14	2.591461E-16
3.977441E+03	1.516656E-14	2.561451E-16
3.987336E+03	1.515852E-14	2.528289E-16
3.997230E+03	1.514305E-14	2.492187E-16
4.007124E+03	1.512025E-14	2.453294E-16
4.017018E+03	1.509088E-14	2.411872E-16
4.026912E+03	1.505527E-14	2.368124E-16
4.036806E+03	1.501391E-14	2.322289E-16
4.046700E+03	1.496743E-14	2.274637E-16
4.056594E+03	1.491594E-14	2.225363E-16
4.066489E+03	1.486003E-14	2.174756E-16
4.076383E+03	1.479968E-14	2.123018E-16
4.086277E+03	1.473517E-14	2.070416E-16
4.096171E+03	1.466684E-14	2.017244E-16
4.106065E+03	1.459505E-14	1.963806E-16
4.115959E+03	1.452065E-14	1.910494E-16
4.125853E+03	1.444470E-14	1.857737E-16
4.135748E+03	1.436838E-14	1.805993E-16
4.145642E+03	1.429351E-14	1.755806E-16
4.155536E+03	1.422152E-14	1.707681E-16
4.165430E+03	1.415427E-14	1.662187E-16
4.175324E+03	1.409298E-14	1.619829E-16
4.185218E+03	1.403889E-14	1.581128E-16
4.195112E+03	1.399263E-14	1.546554E-16
4.205006E+03	1.395391E-14	1.516497E-16
4.214901E+03	1.392227E-14	1.491347E-16
4.224795E+03	1.389620E-14	1.471390E-16
4.234689E+03	1.387352E-14	1.456838E-16
4.244583E+03	1.385155E-14	1.447802E-16
4.254477E+03	1.382777E-14	1.444176E-16
4.264371E+03	1.379989E-14	1.445745E-16
4.274265E+03	1.376649E-14	1.452308E-16
4.284159E+03	1.372815E-14	1.463797E-16
4.294054E+03	1.368540E-14	1.480072E-16
4.303948E+03	1.363941E-14	1.500911E-16
4.313842E+03	1.359072E-14	1.525883E-16
4.323736E+03	1.353992E-14	1.554538E-16
4.333630E+03	1.348681E-14	1.586338E-16
4.343524E+03	1.343104E-14	1.620734E-16
4.353418E+03	1.337254E-14	1.657221E-16
4.363313E+03	1.331158E-14	1.695373E-16
4.373207E+03	1.324870E-14	1.734820E-16
4.383101E+03	1.318457E-14	1.775259E-16
4.392995E+03	1.312012E-14	1.816465E-16
4.402889E+03	1.305615E-14	1.858237E-16
4.412783E+03	1.299383E-14	1.900476E-16
4.422677E+03	1.293392E-14	1.943068E-16
4.432571E+03	1.287703E-14	1.985915E-16
4.442466E+03	1.282336E-14	2.028889E-16
4.452360E+03	1.277286E-14	2.071845E-16
4.462254E+03	1.272526E-14	2.114618E-16
4.472148E+03	1.268016E-14	2.157038E-16
4.482042E+03	1.263687E-14	2.198888E-16
4.491936E+03	1.259513E-14	2.240033E-16
4.501830E+03	1.255427E-14	2.280271E-16
4.511725E+03	1.251389E-14	2.319447E-16
4.521619E+03	1.247361E-14	2.357416E-16
4.531513E+03	1.243335E-14	2.394094E-16
4.541407E+03	1.239299E-14	2.429392E-16
4.551301E+03	1.235241E-14	2.463231E-16
4.561195E+03	1.231204E-14	2.495647E-16
4.571089E+03	1.227201E-14	2.526622E-16
4.580983E+03	1.223264E-14	2.556191E-16
4.590878E+03	1.219455E-14	2.584455E-16
4.600772E+03	1.215832E-14	2.611520E-16
4.610666E+03	1.212424E-14	2.637437E-16
4.620560E+03	1.209316E-14	2.662389E-16
4.630454E+03	1.206565E-14	2.686500E-16
4.640348E+03	1.204227E-14	2.709905E-16
4.650242E+03	1.202366E-14	2.732761E-16
4.660137E+03	1.201036E-14	2.755204E-16
4.670031E+03	1.200298E-14	2.777390E-16
4.679925E+03	1.200173E-14	2.799384E-16
4.689819E+03	1.200706E-14	2.821310E-16
4.699713E+03	1.201933E-14	2.843265E-16
4.709607E+03	1.203828E-14	2.865200E-16
4.719501E+03	1.206407E-14	2.887158E-16
4.729395E+03	1.209630E-14	2.909053E-16
4.739290E+03	1.213440E-14	2.930736E-16
4.749184E+03	1.217787E-14	2.952087E-16
4.759078E+03	1.222547E-14	2.972784E-16
4.768972E+03	1.227639E-14	2.992620E-16
4.778866E+03	1.232892E-14	3.011149E-16
4.788760E+03	1.238171E-14	3.028020E-16
4.798654E+03	1.243273E-14	3.042711E-16
4.808549E+03	1.248028E-14	3.054781E-16
4.818443E+03	1.252221E-14	3.063683E-16
4.828337E+03	1.255677E-14	3.068975E-16
4.838231E+03	1.258230E-14	3.070244E-16
4.848125E+03	1.259724E-14	3.067114E-16
4.858019E+03	1.260054E-14	3.059347E-16
4.867913E+03	1.259153E-14	3.046808E-16
4.877807E+03	1.257007E-14	3.029510E-16
4.887702E+03	1.253616E-14	3.007504E-16
4.897596E+03	1.249073E-14	2.981078E-16
4.907490E+03	1.243460E-14	2.950500E-16
4.917384E+03	1.236925E-14	2.916204E-16
4.927278E+03	1.229622E-14	2.878632E-16
4.937172E+03	1.221717E-14	2.838257E-16
4.947066E+03	1.213379E-14	2.795548E-16
4.956961E+03	1.204772E-14	2.750958E-16
4.966855E+03	1.196009E-14	2.704816E-16
4.976749E+03	1.187211E-14	2.657462E-16
4.986643E+03	1.178460E-14	2.609136E-16
4.996537E+03	1.169834E-14	2.560068E-16
5.006431E+03	1.161376E-14	2.510401E-16
5.016325E+03	1.153114E-14	2.460246E-16
5.026219E+03	1.145096E-14	2.409748E-16
5.036114E+03	1.137357E-14	2.359025E-16
5.046008E+03	1.129926E-14	2.308174E-16
5.055902E+03	1.122833E-14	2.257296E-16
5.065796E+03	1.116150E-14	2.206568E-16
5.075690E+03	1.109904E-14	2.156070E-16
5.085584E+03	1.104142E-14	2.105919E-16
5.095478E+03	1.098902E-14	2.056212E-16
5.105373E+03	1.094212E-14	2.007020E-16
5.115267E+03	1.090072E-14	1.958363E-16
5.125161E+03	1.086483E-14	1.910265E-16
5.135055E+03	1.083396E-14	1.862670E-16
5.144949E+03	1.080777E-14	1.815561E-16
5.154843E+03	1.078555E-14	1.768868E-16
5.164737E+03	1.076686E-14	1.722592E-16
5.174631E+03	1.075094E-14	1.676695E-16
5.184526E+03	1.073732E-14	1.631210E-16
5.194420E+03	1.072530E-14	1.586159E-16
5.204314E+03	1.071459E-14	1.541646E-16
5.214208E+03	1.070484E-14	1.497795E-16
5.224102E+03	1.069553E-14	1.454729E-16
5.233996E+03	1.068638E-14	1.412632E-16
5.243890E+03	1.067718E-14	1.371727E-16
5.253785E+03	1.066744E-14	1.332230E-16
5.263679E+03	1.065665E-14	1.294384E-16
5.273573E+03	1.064436E-14	1.258468E-16
5.283467E+03	1.063003E-14	1.224783E-16
5.293361E+03	1.061317E-14	1.193652E-16
5.303255E+03	1.059320E-14	1.165404E-16
5.313149E+03	1.056977E-14	1.140397E-16
5.323043E+03	1.054243E-14	1.118963E-16
5.332938E+03	1.051107E-14	1.101440E-16
5.342832E+03	1.047551E-14	1.088113E-16
5.352726E+03	1.043624E-14	1.079250E-16
5.362620E+03	1.039417E-14	1.074942E-16
5.372514E+03	1.035087E-14	1.075181E-16
5.382408E+03	1.030882E-14	1.079903E-16
5.392302E+03	1.026925E-14	1.088839E-16
5.402196E+03	1.023239E-14	1.101595E-16
5.412091E+03	1.019889E-14	1.117819E-16
5.421985E+03	1.016881E-14	1.137100E-16
5.431879E+03	1.014211E-14	1.159038E-16
5.441773E+03	1.011881E-14	1.183261E-16
5.451667E+03	1.009874E-14	1.209405E-16
5.461561E+03	1.008164E-14	1.237126E-16
5.471455E+03	1.006741E-14	1.266126E-16
5.481350E+03	1.005564E-14	1.296095E-16
5.491244E+03	1.004611E-14	1.326775E-16
5.501138E+03	1.003849E-14	1.357914E-16
5.511032E+03	1.003227E-14	1.389257E-16
5.520926E+03	1.002716E-14	1.420592E-16
5.530820E+03	1.002276E-14	1.451710E-16
5.540714E+03	1.001880E-14	1.482430E-16
5.550608E+03	1.001515E-14	1.512608E-16
5.560503E+03	1.001169E-14	1.542110E-16
5.570397E+03	1.000846E-14	1.570838E-16
5.580291E+03	1.000565E-14	1.598733E-16
5.590185E+03	1.000351E-14	1.625752E-16
5.600079E+03	1.000244E-14	1.651892E-16
5.609973E+03	1.000284E-14	1.677161E-16
5.619867E+03	1.000515E-14	1.701580E-16
5.629762E+03	1.000998E-14	1.725213E-16
5.639656E+03	1.001785E-14	1.748113E-16
5.649550E+03	1.002932E-14	1.770351E-16
5.659444E+03	1.004506E-14	1.792023E-16
5.669338E+03	1.006560E-14	1.813203E-16
5.679232E+03	1.009158E-14	1.833992E-16
5.689126E+03	1.012337E-14	1.854438E-16
5.699020E+03	1.016156E-14	1.874639E-16
5.708915E+03	1.020635E-14	1.894611E-16
5.718809E+03	1.025790E-14	1.914368E-16
5.728703E+03	1.031646E-14	1.933932E-16
5.738597E+03	1.038169E-14	1.953213E-16
5.748491E+03	1.045349E-14	1.972159E-16
5.758385E+03	1.053137E-14	1.990641E-16
5.768279E+03	1.061465E-14	2.008492E-16
5.778174E+03	1.070232E-14	2.025474E-16
5.788068E+03	1.079353E-14	2.041377E-16
5.797962E+03	1.088684E-14	2.055884E-16
5.807856E+03	1.098084E-14	2.068677E-16
5.817750E+03	1.107378E-14	2.079381E-16
5.827644E+03	1.116364E-14	2.087580E-16
5.837538E+03	1.124854E-14	2.092891E-16
5.847432E+03	1.132660E-14	2.094951E-16
5.857327E+03	1.139569E-14	2.093359E-16
5.867221E+03	1.145425E-14	2.087849E-16
5.877115E+03	1.150091E-14	2.078206E-16
5.887009E+03	1.153487E-14	2.064339E-16
5.896903E+03	1.155538E-14	2.046191E-16
5.906797E+03	1.156275E-14	2.023909E-16
5.916691E+03	1.155726E-14	1.997648E-16
5.926586E+03	1.154010E-14	1.967735E-16
5.936480E+03	1.151276E-14	1.934548E-16
5.946374E+03	1.147690E-14	1.898493E-16
5.956268E+03	1.143461E-14	1.860045E-16
5.966162E+03	1.138772E-14	1.819622E-16
5.976056E+03	1.133860E-14	1.777718E-16
5.985950E+03	1.128893E-14	1.734704E-16
5.995844E+03	1.124093E-14	1.691019E-16
6.005739E+03	1.119626E-14	1.646996E-16
6.015633E+03	1.115674E-14	1.602986E-16
6.025527E+03	1.112370E-14	1.559251E-16
6.035421E+03	1.109857E-14	1.516061E-16
6.045315E+03	1.108242E-14	1.473636E-16
6.055209E+03	1.107629E-14	1.432193E-16
6.065103E+03	1.108076E-14	1.391899E-16
6.074998E+03	1.109635E-14	1.352933E-16
6.084892E+03	1.112347E-14	1.315490E-16
6.094786E+03	1.116211E-14	1.279753E-16
6.104680E+03	1.121157E-14	1.245882E-16
6.114574E+03	1.127109E-14	1.214101E-16
6.124468E+03	1.133937E-14	1.184655E-16
6.134362E+03	1.141457E-14	1.157826E-16
6.144256E+03	1.149437E-14	1.133950E-16
6.154151E+03	1.157563E-14	1.113380E-16
6.164045E+03	1.165443E-14	1.096487E-16
6.173939E+03	1.172630E-14	1.083654E-16
6.183833E+03	1.178545E-14	1.075162E-16
6.193727E+03	1.182526E-14	1.071177E-16
6.203621E+03	1.184030E-14	1.071854E-16
6.213515E+03	1.182774E-14	1.077357E-16
6.223410E+03	1.179006E-14	1.087807E-16
6.233304E+03	1.173406E-14	1.103312E-16
6.243198E+03	1.166644E-14	1.123839E-16
6.253092E+03	1.159431E-14	1.149341E-16
6.262986E+03	1.152336E-14	1.179666E-16
6.272880E+03	1.145877E-14	1.214682E-16
6.282774E+03	1.140441E-14	1.254236E-16
6.292668E+03	1.136325E-14	1.298191E-16
6.302563E+03	1.133749E-14	1.346449E-16
6.312457E+03	1.132838E-14	1.398907E-16
6.322351E+03	1.133661E-14	1.455479E-16
6.332245E+03	1.136270E-14	1.516141E-16
6.342139E+03	1.140627E-14	1.580801E-16
6.352033E+03	1.146702E-14	1.649423E-16
6.361927E+03	1.154402E-14	1.721906E-16
6.371822E+03	1.163612E-14	1.798129E-16
6.381716E+03	1.174203E-14	1.877944E-16
6.391610E+03	1.186038E-14	1.961185E-16
6.401504E+03	1.198912E-14	2.047552E-16
6.411398E+03	1.212615E-14	2.136704E-16
6.421292E+03	1.226915E-14	2.228229E-16
6.431186E+03	1.241532E-14	2.321571E-16
6.441080E+03	1.256223E-14	2.416202E-16
6.450975E+03	1.270714E-14	2.511477E-16
6.460869E+03	1.284705E-14	2.606652E-16
6.470763E+03	1.297961E-14	2.701056E-16
6.480657E+03	1.310196E-14	2.793867E-16
6.490551E+03	1.321131E-14	2.884227E-16
6.500445E+03	1.330559E-14	2.971392E-16
6.510339E+03	1.338232E-14	3.054490E-16
6.520234E+03	1.343947E-14	3.132711E-16
6.530128E+03	1.347556E-14	3.205358E-16
6.540022E+03	1.348902E-14	3.271691E-16
6.549916E+03	1.347938E-14	3.331226E-16
6.559810E+03	1.344723E-14	3.383754E-16
6.569704E+03	1.339274E-14	3.428983E-16
6.579598E+03	1.331690E-14	3.466860E-16
6.589492E+03	1.322129E-14	3.497510E-16
6.599387E+03	1.310734E-14	3.521067E-16
6.609281E+03	1.297693E-14	3.537823E-16
6.619175E+03	1.283234E-14	3.548228E-16
6.629069E+03	1.267531E-14	3.552620E-16
6.638963E+03	1.250808E-14	3.551521E-16
6.648857E+03	1.233326E-14	3.545607E-16
6.658751E+03	1.215259E-14	3.535338E-16
6.668645E+03	1.196806E-14	3.521286E-16
6.678540E+03	1.178182E-14	3.504090E-16
6.688434E+03	1.159536E-14	3.484240E-16
6.698328E+03	1.141032E-14	3.462274E-16
6.708222E+03	1.122814E-14	3.438702E-16
6.718116E+03	1.105013E-14	3.414001E-16
6.728010E+03	1.087721E-14	3.388549E-16
6.737904E+03	1.071057E-14	3.362813E-16
6.747799E+03	1.055104E-14	3.337146E-16
6.757693E+03	1.039909E-14	3.311801E-16
6.767587E+03	1.025543E-14	3.287103E-16
6.777481E+03	1.012025E-14	3.263213E-16
6.787375E+03	9.993818E-15	3.240305E-16
6.797269E+03	9.876264E-15	3.218513E-16
6.807163E+03	9.767425E-15	3.197866E-16
6.817057E+03	9.667615E-15	3.178543E-16
6.826952E+03	9.576503E-15	3.160504E-16
6.836846E+03	9.493700E-15	3.143683E-16
6.846740E+03	9.419106E-15	3.128103E-16
6.856634E+03	9.352215E-15	3.113643E-16
6.866528E+03	9.292649E-15	3.100218E-16
6.876422E+03	9.240162E-15	3.087781E-16
6.886316E+03	9.194116E-15	3.076146E-16
6.896211E+03	9.154020E-15	3.065173E-16
6.906105E+03	9.119353E-15	3.054703E-16
6.915999E+03	9.089574E-15	3.044569E-16
6.925893E+03	9.063946E-15	3.034532E-16
6.935787E+03	9.042243E-15	3.024524E-16
6.945681E+03	9.023520E-15	3.014231E-16
6.955575E+03	9.007172E-15	3.003453E-16
6.965469E+03	8.992763E-15	2.992047E-16
6.975364E+03	8.979494E-15	2.979748E-16
6.985258E+03	8.966741E-15	2.966351E-16
6.995152E+03	8.953872E-15	2.951651E-16
7.005046E+03	8.940260E-15	2.935449E-16
7.014940E+03	8.925478E-15	2.917613E-16
7.024834E+03	8.908584E-15	2.897851E-16
7.034728E+03	8.889038E-15	2.876006E-16
7.044623E+03	8.866553E-15	2.852011E-16
7.054517E+03	8.840754E-15	2.825775E-16
7.064411E+03	8.811194E-15	2.797190E-16
7.074305E+03	8.777915E-15	2.766311E-16
7.084199E+03	8.740569E-15	2.733075E-16
7.094093E+03	8.699653E-15	2.697686E-16
7.103987E+03	8.655261E-15	2.660225E-16
7.113881E+03	8.607767E-15	2.620861E-16
7.123776E+03	8.557454E-15	2.579732E-16
7.133670E+03	8.505178E-15	2.537152E-16
7.143564E+03	8.451103E-15	2.493218E-16
7.153458E+03	8.395912E-15	2.448180E-16
7.163352E+03	8.339902E-15	2.402171E-16
7.173246E+03	8.283665E-15	2.355405E-16
7.183140E+03	8.227385E-15	2.307972E-16
7.193035E+03	8.171357E-15	2.259995E-16
7.202929E+03	8.115983E-15	2.211620E-16
7.212823E+03	8.061257E-15	2.162880E-16
7.222717E+03	8.007461E-15	2.113885E-16
7.232611E+03	7.954309E-15	2.064594E-16
7.242505E+03	7.901985E-15	2.015091E-16
7.252399E+03	7.850636E-15	1.965453E-16
7.262293E+03	7.799871E-15	1.915621E-16
7.272188E+03	7.749799E-15	1.865670E-16
7.282082E+03	7.700196E-15	1.815594E-16
7.291976E+03	7.651189E-15	1.765479E-16
7.301870E+03	7.602595E-15	1.715342E-16
7.311764E+03	7.554422E-15	1.665251E-16
7.321658E+03	7.506712E-15	1.615289E-16
7.331552E+03	7.459365E-15	1.565513E-16
7.341447E+03	7.412475E-15	1.516031E-16
7.351341E+03	7.366155E-15	1.466962E-16
7.361235E+03	7.320537E-15	1.418438E-16
7.371129E+03	7.275918E-15	1.370631E-16
7.381023E+03	7.232271E-15	1.323660E-16
7.390917E+03	7.190045E-15	1.277749E-16
7.400811E+03	7.149350E-15	1.233069E-16
7.410705E+03	7.110267E-15	1.189808E-16
7.420600E+03	7.072853E-15	1.148172E-16
7.430494E+03	7.037138E-15	1.108385E-16
7.440388E+03	7.003438E-15	1.070747E-16
7.450282E+03	6.971405E-15	1.035481E-16
7.460176E+03	6.941147E-15	1.002912E-16
7.470070E+03	6.912596E-15	9.733645E-17
7.479964E+03	6.885826E-15	9.472092E-17
7.489859E+03	6.860424E-15	9.247622E-17
7.499753E+03	6.836444E-15	9.064092E-17
7.509647E+03	6.813783E-15	8.924994E-17
7.519541E+03	6.792485E-15	8.833700E-17
7.529435E+03	6.772108E-15	8.792418E-17
7.539329E+03	6.752840E-15	8.803470E-17
7.549223E+03	6.734364E-15	8.867176E-17
7.559117E+03	6.716321E-15	8.981631E-17
7.569012E+03	6.698800E-15	9.144539E-17
7.578906E+03	6.681361E-15	9.352290E-17
7.588800E+03	6.663674E-15	9.600958E-17
7.598694E+03	6.645390E-15	9.886310E-17
7.608588E+03	6.626177E-15	1.020401E-16
7.618482E+03	6.605750E-15	1.054978E-16
7.628376E+03	6.584108E-15	1.091991E-16
7.638271E+03	6.560983E-15	1.131043E-16
7.648165E+03	6.536966E-15	1.171910E-16
7.658059E+03	6.512275E-15	1.214340E-16
7.667953E+03	6.487334E-15	1.258156E-16
7.677847E+03	6.462553E-15	1.303216E-16
