#wls	flux	fluxerr
1.583061E+03	5.040839E-15	3.508858E-16
1.622638E+03	5.141351E-15	3.421824E-16
1.662214E+03	5.236781E-15	3.325984E-16
1.701791E+03	5.328415E-15	3.223047E-16
1.741367E+03	5.414873E-15	3.113132E-16
1.780944E+03	5.494719E-15	2.996599E-16
1.820520E+03	5.568504E-15	2.875123E-16
1.860097E+03	5.632599E-15	2.748412E-16
1.899673E+03	5.683441E-15	2.616753E-16
1.939250E+03	5.720285E-15	2.482179E-16
1.978827E+03	5.736880E-15	2.344669E-16
2.018403E+03	5.732680E-15	2.207083E-16
2.057980E+03	5.710235E-15	2.073443E-16
2.097556E+03	5.682010E-15	1.950846E-16
2.137133E+03	5.679213E-15	1.851207E-16
2.176709E+03	5.726185E-15	1.781180E-16
2.216286E+03	5.824963E-15	1.739441E-16
2.255862E+03	5.963388E-15	1.721072E-16
2.295439E+03	6.130175E-15	1.721840E-16
2.335015E+03	6.322908E-15	1.739623E-16
2.374592E+03	6.540665E-15	1.772781E-16
2.414168E+03	6.782030E-15	1.819727E-16
2.453745E+03	7.045973E-15	1.879244E-16
2.493321E+03	7.326114E-15	1.949023E-16
2.532898E+03	7.609170E-15	2.025295E-16
2.572475E+03	7.869992E-15	2.101470E-16
2.612051E+03	8.074153E-15	2.168643E-16
2.651628E+03	8.219476E-15	2.226498E-16
2.691204E+03	8.333152E-15	2.281442E-16
2.730781E+03	8.432201E-15	2.335450E-16
2.770357E+03	8.527565E-15	2.388922E-16
2.809934E+03	8.620388E-15	2.439825E-16
2.849510E+03	8.711219E-15	2.486247E-16
2.889087E+03	8.796488E-15	2.525405E-16
2.928663E+03	8.874698E-15	2.555431E-16
2.968240E+03	8.944616E-15	2.574899E-16
2.978134E+03	8.961442E-15	2.578211E-16
2.988028E+03	8.976989E-15	2.580593E-16
2.997922E+03	8.992583E-15	2.582421E-16
3.007816E+03	9.007591E-15	2.583509E-16
3.017710E+03	9.022096E-15	2.583878E-16
3.027605E+03	9.036834E-15	2.583739E-16
3.037499E+03	9.051178E-15	2.582913E-16
3.047393E+03	9.065771E-15	2.581585E-16
3.057287E+03	9.080135E-15	2.579623E-16
3.067181E+03	9.094872E-15	2.577203E-16
3.077075E+03	9.109965E-15	2.574326E-16
3.086969E+03	9.125403E-15	2.570994E-16
3.096864E+03	9.141203E-15	2.567222E-16
3.106758E+03	9.156776E-15	2.562856E-16
3.116652E+03	9.173361E-15	2.558254E-16
3.126546E+03	9.190395E-15	2.553270E-16
3.136440E+03	9.207920E-15	2.547931E-16
3.146334E+03	9.226604E-15	2.542437E-16
3.156228E+03	9.245916E-15	2.536658E-16
3.166122E+03	9.266533E-15	2.530796E-16
3.176017E+03	9.288553E-15	2.524898E-16
3.185911E+03	9.312062E-15	2.519004E-16
3.195805E+03	9.336636E-15	2.513022E-16
3.205699E+03	9.363528E-15	2.507310E-16
3.215593E+03	9.392866E-15	2.501924E-16
3.225487E+03	9.424244E-15	2.496777E-16
3.235381E+03	9.458368E-15	2.492080E-16
3.245276E+03	9.494852E-15	2.487757E-16
3.255170E+03	9.534930E-15	2.484157E-16
3.265064E+03	9.578211E-15	2.481204E-16
3.274958E+03	9.625367E-15	2.479098E-16
3.284852E+03	9.675953E-15	2.477754E-16
3.294746E+03	9.731099E-15	2.477492E-16
3.304640E+03	9.790288E-15	2.478210E-16
3.314534E+03	9.853455E-15	2.479928E-16
3.324429E+03	9.921489E-15	2.482906E-16
3.334323E+03	9.993586E-15	2.486982E-16
3.344217E+03	1.006934E-14	2.492100E-16
3.354111E+03	1.014918E-14	2.498412E-16
3.364005E+03	1.023181E-14	2.505653E-16
3.373899E+03	1.031616E-14	2.513618E-16
3.383793E+03	1.040240E-14	2.522416E-16
3.393688E+03	1.048778E-14	2.531448E-16
3.403582E+03	1.057118E-14	2.540521E-16
3.413476E+03	1.064945E-14	2.548962E-16
3.423370E+03	1.072089E-14	2.556452E-16
3.433264E+03	1.078111E-14	2.562038E-16
3.443158E+03	1.082624E-14	2.564897E-16
3.453052E+03	1.085007E-14	2.563619E-16
3.462946E+03	1.085011E-14	2.557623E-16
3.472841E+03	1.082631E-14	2.546872E-16
3.482735E+03	1.078229E-14	2.532181E-16
3.492629E+03	1.072157E-14	2.514314E-16
3.502523E+03	1.064838E-14	2.494200E-16
3.512417E+03	1.056606E-14	2.472547E-16
3.522311E+03	1.047857E-14	2.450204E-16
3.532205E+03	1.038876E-14	2.427755E-16
3.542100E+03	1.029913E-14	2.405706E-16
3.551994E+03	1.021260E-14	2.384663E-16
3.561888E+03	1.013057E-14	2.364877E-16
3.571782E+03	1.005486E-14	2.346701E-16
3.581676E+03	9.986587E-15	2.330333E-16
3.591570E+03	9.926935E-15	2.315980E-16
3.601464E+03	9.876464E-15	2.303714E-16
3.611358E+03	9.835872E-15	2.293639E-16
3.621253E+03	9.804945E-15	2.285649E-16
3.631147E+03	9.784567E-15	2.279895E-16
3.641041E+03	9.773865E-15	2.276121E-16
3.650935E+03	9.773037E-15	2.274320E-16
3.660829E+03	9.781202E-15	2.274235E-16
3.670723E+03	9.798242E-15	2.275786E-16
3.680617E+03	9.823337E-15	2.278732E-16
3.690512E+03	9.855352E-15	2.282757E-16
3.700406E+03	9.894303E-15	2.287814E-16
3.710300E+03	9.939328E-15	2.293652E-16
3.720194E+03	9.989385E-15	2.299981E-16
3.730088E+03	1.004395E-14	2.306629E-16
3.739982E+03	1.010285E-14	2.313506E-16
3.749876E+03	1.016509E-14	2.320339E-16
3.759770E+03	1.023057E-14	2.327054E-16
3.769665E+03	1.029838E-14	2.333402E-16
3.779559E+03	1.036846E-14	2.339323E-16
3.789453E+03	1.044027E-14	2.344654E-16
3.799347E+03	1.051331E-14	2.349244E-16
3.809241E+03	1.058733E-14	2.352999E-16
3.819135E+03	1.066210E-14	2.355834E-16
3.829029E+03	1.073737E-14	2.357660E-16
3.838924E+03	1.081241E-14	2.358292E-16
3.848818E+03	1.088724E-14	2.357708E-16
3.858712E+03	1.096138E-14	2.355784E-16
3.868606E+03	1.103461E-14	2.352460E-16
3.878500E+03	1.110669E-14	2.347669E-16
3.888394E+03	1.117690E-14	2.341260E-16
3.898288E+03	1.124524E-14	2.333234E-16
3.908182E+03	1.131123E-14	2.323495E-16
3.918077E+03	1.137434E-14	2.311956E-16
3.927971E+03	1.143476E-14	2.298672E-16
3.937865E+03	1.149157E-14	2.283493E-16
3.947759E+03	1.154453E-14	2.266413E-16
3.957653E+03	1.159369E-14	2.247489E-16
3.967547E+03	1.163875E-14	2.226719E-16
3.977441E+03	1.167930E-14	2.204091E-16
3.987336E+03	1.171583E-14	2.179777E-16
3.997230E+03	1.174832E-14	2.153849E-16
4.007124E+03	1.177655E-14	2.126364E-16
4.017018E+03	1.180124E-14	2.097546E-16
4.026912E+03	1.182224E-14	2.067477E-16
4.036806E+03	1.183985E-14	2.036321E-16
4.046700E+03	1.185406E-14	2.004202E-16
4.056594E+03	1.186519E-14	1.971309E-16
4.066489E+03	1.187309E-14	1.937759E-16
4.076383E+03	1.187767E-14	1.903694E-16
4.086277E+03	1.187926E-14	1.869338E-16
4.096171E+03	1.187775E-14	1.834851E-16
4.106065E+03	1.187399E-14	1.800558E-16
4.115959E+03	1.186810E-14	1.766677E-16
4.125853E+03	1.186133E-14	1.733604E-16
4.135748E+03	1.185440E-14	1.701660E-16
4.145642E+03	1.184881E-14	1.671283E-16
4.155536E+03	1.184523E-14	1.642792E-16
4.165430E+03	1.184508E-14	1.616621E-16
4.175324E+03	1.184925E-14	1.593129E-16
4.185218E+03	1.185808E-14	1.572611E-16
4.195112E+03	1.187160E-14	1.555327E-16
4.205006E+03	1.188922E-14	1.541462E-16
4.214901E+03	1.191002E-14	1.531167E-16
4.224795E+03	1.193164E-14	1.524406E-16
4.234689E+03	1.195150E-14	1.521109E-16
4.244583E+03	1.196641E-14	1.521103E-16
4.254477E+03	1.197267E-14	1.524053E-16
4.264371E+03	1.196640E-14	1.529375E-16
4.274265E+03	1.194578E-14	1.536666E-16
4.284159E+03	1.191096E-14	1.545716E-16
4.294054E+03	1.186265E-14	1.556342E-16
4.303948E+03	1.180160E-14	1.568326E-16
4.313842E+03	1.172923E-14	1.581486E-16
4.323736E+03	1.164683E-14	1.595612E-16
4.333630E+03	1.155572E-14	1.610499E-16
4.343524E+03	1.145747E-14	1.625994E-16
4.353418E+03	1.135365E-14	1.641967E-16
4.363313E+03	1.124615E-14	1.658362E-16
4.373207E+03	1.113681E-14	1.675155E-16
4.383101E+03	1.102750E-14	1.692371E-16
4.392995E+03	1.091988E-14	1.710042E-16
4.402889E+03	1.081591E-14	1.728293E-16
4.412783E+03	1.071674E-14	1.747158E-16
4.422677E+03	1.062395E-14	1.766782E-16
4.432571E+03	1.053800E-14	1.787158E-16
4.442466E+03	1.045921E-14	1.808272E-16
4.452360E+03	1.038771E-14	1.830104E-16
4.462254E+03	1.032284E-14	1.852498E-16
4.472148E+03	1.026409E-14	1.875332E-16
4.482042E+03	1.021071E-14	1.898442E-16
4.491936E+03	1.016175E-14	1.921622E-16
4.501830E+03	1.011657E-14	1.944723E-16
4.511725E+03	1.007429E-14	1.967545E-16
4.521619E+03	1.003438E-14	1.989956E-16
4.531513E+03	9.996224E-15	2.011800E-16
4.541407E+03	9.959550E-15	2.032993E-16
4.551301E+03	9.924111E-15	2.053457E-16
4.561195E+03	9.889813E-15	2.073144E-16
4.571089E+03	9.856778E-15	2.092057E-16
4.580983E+03	9.825030E-15	2.110184E-16
4.590878E+03	9.794903E-15	2.127578E-16
4.600772E+03	9.766686E-15	2.144293E-16
4.610666E+03	9.740845E-15	2.160423E-16
4.620560E+03	9.717848E-15	2.176071E-16
4.630454E+03	9.698071E-15	2.191322E-16
4.640348E+03	9.682142E-15	2.206322E-16
4.650242E+03	9.670548E-15	2.221189E-16
4.660137E+03	9.663752E-15	2.236040E-16
4.670031E+03	9.662346E-15	2.251021E-16
4.679925E+03	9.666723E-15	2.266235E-16
4.689819E+03	9.677555E-15	2.281850E-16
4.699713E+03	9.695069E-15	2.297929E-16
4.709607E+03	9.719669E-15	2.314575E-16
4.719501E+03	9.751234E-15	2.331765E-16
4.729395E+03	9.789763E-15	2.349497E-16
4.739290E+03	9.834708E-15	2.367637E-16
4.749184E+03	9.885049E-15	2.385929E-16
4.759078E+03	9.939810E-15	2.404124E-16
4.768972E+03	9.997907E-15	2.421940E-16
4.778866E+03	1.005793E-14	2.439014E-16
4.788760E+03	1.011816E-14	2.454907E-16
4.798654E+03	1.017713E-14	2.469240E-16
4.808549E+03	1.023309E-14	2.481565E-16
4.818443E+03	1.028443E-14	2.491472E-16
4.828337E+03	1.032973E-14	2.498609E-16
4.838231E+03	1.036741E-14	2.502582E-16
4.848125E+03	1.039639E-14	2.503138E-16
4.858019E+03	1.041562E-14	2.500033E-16
4.867913E+03	1.042458E-14	2.493166E-16
4.877807E+03	1.042263E-14	2.482415E-16
4.887702E+03	1.040962E-14	2.467788E-16
4.897596E+03	1.038597E-14	2.449437E-16
4.907490E+03	1.035213E-14	2.427527E-16
4.917384E+03	1.030906E-14	2.402346E-16
4.927278E+03	1.025797E-14	2.374248E-16
4.937172E+03	1.020029E-14	2.343631E-16
4.947066E+03	1.013722E-14	2.310840E-16
4.956961E+03	1.007000E-14	2.276228E-16
4.966855E+03	9.999879E-15	2.240138E-16
4.976749E+03	9.927902E-15	2.202866E-16
4.986643E+03	9.854672E-15	2.164604E-16
4.996537E+03	9.780920E-15	2.125568E-16
5.006431E+03	9.707082E-15	2.085906E-16
5.016325E+03	9.633522E-15	2.045747E-16
5.026219E+03	9.560672E-15	2.005234E-16
5.036114E+03	9.488901E-15	1.964492E-16
5.046008E+03	9.418550E-15	1.923638E-16
5.055902E+03	9.350149E-15	1.882825E-16
5.065796E+03	9.284404E-15	1.842235E-16
5.075690E+03	9.221933E-15	1.802029E-16
5.085584E+03	9.163346E-15	1.762355E-16
5.095478E+03	9.109036E-15	1.723318E-16
5.105373E+03	9.059531E-15	1.685044E-16
5.115267E+03	9.014807E-15	1.647552E-16
5.125161E+03	8.974872E-15	1.610872E-16
5.135055E+03	8.939431E-15	1.574982E-16
5.144949E+03	8.908171E-15	1.539866E-16
5.154843E+03	8.880402E-15	1.505454E-16
5.164737E+03	8.855662E-15	1.471729E-16
5.174631E+03	8.833433E-15	1.438676E-16
5.184526E+03	8.813361E-15	1.406323E-16
5.194420E+03	8.794914E-15	1.374681E-16
5.204314E+03	8.777866E-15	1.343827E-16
5.214208E+03	8.762018E-15	1.313850E-16
5.224102E+03	8.747154E-15	1.284854E-16
5.233996E+03	8.733009E-15	1.256943E-16
5.243890E+03	8.719545E-15	1.230270E-16
5.253785E+03	8.706311E-15	1.204937E-16
5.263679E+03	8.692982E-15	1.181079E-16
5.273573E+03	8.679215E-15	1.158835E-16
5.283467E+03	8.664492E-15	1.138329E-16
5.293361E+03	8.648148E-15	1.119668E-16
5.303255E+03	8.629534E-15	1.102963E-16
5.313149E+03	8.607958E-15	1.088314E-16
5.323043E+03	8.582803E-15	1.075813E-16
5.332938E+03	8.553236E-15	1.065509E-16
5.342832E+03	8.518783E-15	1.057465E-16
5.352726E+03	8.479117E-15	1.051673E-16
5.362620E+03	8.434393E-15	1.048023E-16
5.372514E+03	8.385515E-15	1.046440E-16
5.382408E+03	8.334505E-15	1.046957E-16
5.392302E+03	8.283080E-15	1.049553E-16
5.402196E+03	8.232798E-15	1.054188E-16
5.412091E+03	8.185021E-15	1.060808E-16
5.421985E+03	8.140922E-15	1.069345E-16
5.431879E+03	8.101217E-15	1.079689E-16
5.441773E+03	8.066341E-15	1.091714E-16
5.451667E+03	8.036394E-15	1.105263E-16
5.461561E+03	8.010895E-15	1.120115E-16
5.471455E+03	7.989432E-15	1.136071E-16
5.481350E+03	7.971228E-15	1.152886E-16
5.491244E+03	7.955298E-15	1.170294E-16
5.501138E+03	7.940712E-15	1.188036E-16
5.511032E+03	7.926737E-15	1.205889E-16
5.520926E+03	7.912422E-15	1.223596E-16
5.530820E+03	7.897324E-15	1.240981E-16
5.540714E+03	7.881013E-15	1.257877E-16
5.550608E+03	7.863419E-15	1.274178E-16
5.560503E+03	7.844853E-15	1.289847E-16
5.570397E+03	7.825870E-15	1.304902E-16
5.580291E+03	7.807264E-15	1.319412E-16
5.590185E+03	7.789955E-15	1.333478E-16
5.600079E+03	7.774900E-15	1.347225E-16
5.609973E+03	7.763040E-15	1.360786E-16
5.619867E+03	7.755218E-15	1.374286E-16
5.629762E+03	7.752203E-15	1.387847E-16
5.639656E+03	7.754543E-15	1.401557E-16
5.649550E+03	7.762581E-15	1.415470E-16
5.659444E+03	7.776687E-15	1.429647E-16
5.669338E+03	7.797062E-15	1.444119E-16
5.679232E+03	7.823872E-15	1.458910E-16
5.689126E+03	7.857265E-15	1.474038E-16
5.699020E+03	7.897295E-15	1.489501E-16
5.708915E+03	7.944237E-15	1.505337E-16
5.718809E+03	7.998084E-15	1.521526E-16
5.728703E+03	8.058850E-15	1.538051E-16
5.738597E+03	8.126433E-15	1.554867E-16
5.748491E+03	8.200662E-15	1.571910E-16
5.758385E+03	8.280950E-15	1.589036E-16
5.768279E+03	8.366856E-15	1.606121E-16
5.778174E+03	8.457386E-15	1.622932E-16
5.788068E+03	8.551678E-15	1.639261E-16
5.797962E+03	8.648397E-15	1.654807E-16
5.807856E+03	8.745979E-15	1.669225E-16
5.817750E+03	8.842934E-15	1.682191E-16
5.827644E+03	8.937262E-15	1.693286E-16
5.837538E+03	9.027122E-15	1.702133E-16
5.847432E+03	9.110554E-15	1.708345E-16
5.857327E+03	9.185590E-15	1.711548E-16
5.867221E+03	9.250630E-15	1.711453E-16
5.877115E+03	9.304137E-15	1.707804E-16
5.887009E+03	9.344886E-15	1.700420E-16
5.896903E+03	9.372329E-15	1.689264E-16
5.906797E+03	9.386075E-15	1.674342E-16
5.916691E+03	9.386170E-15	1.655758E-16
5.926586E+03	9.373726E-15	1.633810E-16
5.936480E+03	9.349765E-15	1.608788E-16
5.946374E+03	9.316182E-15	1.581132E-16
5.956268E+03	9.274780E-15	1.551259E-16
5.966162E+03	9.227845E-15	1.519658E-16
5.976056E+03	9.177553E-15	1.486787E-16
5.985950E+03	9.126294E-15	1.453119E-16
5.995844E+03	9.076211E-15	1.419070E-16
6.005739E+03	9.029520E-15	1.385046E-16
6.015633E+03	8.987984E-15	1.351367E-16
6.025527E+03	8.953643E-15	1.318375E-16
6.035421E+03	8.927832E-15	1.286291E-16
6.045315E+03	8.911827E-15	1.255319E-16
6.055209E+03	8.906957E-15	1.225662E-16
6.065103E+03	8.913865E-15	1.197425E-16
6.074998E+03	8.933368E-15	1.170743E-16
6.084892E+03	8.965886E-15	1.145707E-16
6.094786E+03	9.011697E-15	1.122409E-16
6.104680E+03	9.070807E-15	1.100932E-16
6.114574E+03	9.142872E-15	1.081352E-16
6.124468E+03	9.226889E-15	1.063712E-16
6.134362E+03	9.321550E-15	1.048079E-16
6.144256E+03	9.424415E-15	1.034458E-16
6.154151E+03	9.532194E-15	1.022840E-16
6.164045E+03	9.640672E-15	1.013197E-16
6.173939E+03	9.744223E-15	1.005432E-16
6.183833E+03	9.835945E-15	9.993803E-17
6.193727E+03	9.907907E-15	9.948091E-17
6.203621E+03	9.952725E-15	9.915330E-17
6.213515E+03	9.965827E-15	9.895770E-17
6.223410E+03	9.950712E-15	9.896407E-17
6.233304E+03	9.914700E-15	9.926096E-17
6.243198E+03	9.866023E-15	9.991146E-17
6.253092E+03	9.812392E-15	1.009588E-16
6.262986E+03	9.760453E-15	1.024328E-16
6.272880E+03	9.715926E-15	1.043554E-16
6.282774E+03	9.683065E-15	1.067379E-16
6.292668E+03	9.665282E-15	1.095887E-16
6.302563E+03	9.664804E-15	1.129107E-16
6.312457E+03	9.683452E-15	1.167089E-16
6.322351E+03	9.722122E-15	1.209846E-16
6.332245E+03	9.781573E-15	1.257430E-16
6.342139E+03	9.861917E-15	1.309863E-16
6.352033E+03	9.962851E-15	1.367151E-16
6.361927E+03	1.008363E-14	1.429263E-16
6.371822E+03	1.022302E-14	1.496112E-16
6.381716E+03	1.037928E-14	1.567530E-16
6.391610E+03	1.055027E-14	1.643273E-16
6.401504E+03	1.073310E-14	1.722951E-16
6.411398E+03	1.092515E-14	1.806170E-16
6.421292E+03	1.112303E-14	1.892363E-16
6.431186E+03	1.132324E-14	1.980883E-16
6.441080E+03	1.152266E-14	2.071087E-16
6.450975E+03	1.171733E-14	2.162121E-16
6.460869E+03	1.190417E-14	2.253226E-16
6.470763E+03	1.207996E-14	2.343560E-16
6.480657E+03	1.224145E-14	2.432221E-16
6.490551E+03	1.238548E-14	2.518264E-16
6.500445E+03	1.250916E-14	2.600760E-16
6.510339E+03	1.260985E-14	2.678779E-16
6.520234E+03	1.268491E-14	2.751357E-16
6.530128E+03	1.273255E-14	2.817685E-16
6.540022E+03	1.275115E-14	2.876973E-16
6.549916E+03	1.273994E-14	2.928612E-16
6.559810E+03	1.269916E-14	2.972236E-16
6.569704E+03	1.262913E-14	3.007521E-16
6.579598E+03	1.253150E-14	3.034481E-16
6.589492E+03	1.240798E-14	3.053195E-16
6.599387E+03	1.226103E-14	3.063973E-16
6.609281E+03	1.209330E-14	3.067228E-16
6.619175E+03	1.190754E-14	3.063447E-16
6.629069E+03	1.170700E-14	3.053314E-16
6.638963E+03	1.149443E-14	3.037425E-16
6.648857E+03	1.127305E-14	3.016565E-16
6.658751E+03	1.104552E-14	2.991408E-16
6.668645E+03	1.081457E-14	2.962695E-16
6.678540E+03	1.058229E-14	2.931029E-16
6.688434E+03	1.035123E-14	2.897168E-16
6.698328E+03	1.012301E-14	2.861639E-16
6.708222E+03	9.899278E-15	2.824998E-16
6.718116E+03	9.681709E-15	2.787826E-16
6.728010E+03	9.471100E-15	2.750462E-16
6.737904E+03	9.268828E-15	2.713424E-16
6.747799E+03	9.075452E-15	2.676992E-16
6.757693E+03	8.891879E-15	2.641554E-16
6.767587E+03	8.718255E-15	2.607272E-16
6.777481E+03	8.555298E-15	2.574473E-16
6.787375E+03	8.403090E-15	2.543294E-16
6.797269E+03	8.261601E-15	2.513829E-16
6.807163E+03	8.130942E-15	2.486208E-16
6.817057E+03	8.011037E-15	2.460500E-16
6.826952E+03	7.901617E-15	2.436703E-16
6.836846E+03	7.802663E-15	2.414886E-16
6.846740E+03	7.713607E-15	2.394939E-16
6.856634E+03	7.634126E-15	2.376821E-16
6.866528E+03	7.563626E-15	2.360395E-16
6.876422E+03	7.501670E-15	2.345569E-16
6.886316E+03	7.447675E-15	2.332194E-16
6.896211E+03	7.401029E-15	2.320108E-16
6.906105E+03	7.360986E-15	2.309098E-16
6.915999E+03	7.326875E-15	2.298972E-16
6.925893E+03	7.298098E-15	2.289553E-16
6.935787E+03	7.273914E-15	2.280617E-16
6.945681E+03	7.253454E-15	2.271898E-16
6.955575E+03	7.235939E-15	2.263154E-16
6.965469E+03	7.220703E-15	2.254178E-16
6.975364E+03	7.206869E-15	2.244699E-16
6.985258E+03	7.193678E-15	2.234484E-16
6.995152E+03	7.180392E-15	2.223307E-16
7.005046E+03	7.166297E-15	2.210952E-16
7.014940E+03	7.150815E-15	2.197253E-16
7.024834E+03	7.133106E-15	2.181963E-16
7.034728E+03	7.112736E-15	2.164969E-16
7.044623E+03	7.089307E-15	2.146173E-16
7.054517E+03	7.062608E-15	2.125536E-16
7.064411E+03	7.032610E-15	2.103082E-16
7.074305E+03	6.999352E-15	2.078857E-16
7.084199E+03	6.963257E-15	2.053022E-16
7.094093E+03	6.924674E-15	2.025717E-16
7.103987E+03	6.884251E-15	1.997166E-16
7.113881E+03	6.842484E-15	1.967548E-16
7.123776E+03	6.799995E-15	1.937073E-16
7.133670E+03	6.757390E-15	1.905941E-16
7.143564E+03	6.715326E-15	1.874361E-16
7.153458E+03	6.674085E-15	1.842430E-16
7.163352E+03	6.634285E-15	1.810337E-16
7.173246E+03	6.596040E-15	1.778123E-16
7.183140E+03	6.559682E-15	1.745887E-16
7.193035E+03	6.525255E-15	1.713649E-16
7.202929E+03	6.492907E-15	1.681455E-16
7.212823E+03	6.462597E-15	1.649297E-16
7.222717E+03	6.433990E-15	1.617099E-16
7.232611E+03	6.407060E-15	1.584864E-16
7.242505E+03	6.381498E-15	1.552528E-16
7.252399E+03	6.356729E-15	1.519970E-16
7.262293E+03	6.332434E-15	1.487140E-16
7.272188E+03	6.308176E-15	1.453971E-16
7.282082E+03	6.283545E-15	1.420410E-16
7.291976E+03	6.258094E-15	1.386408E-16
7.301870E+03	6.231638E-15	1.351985E-16
7.311764E+03	6.203973E-15	1.317166E-16
7.321658E+03	6.174875E-15	1.281979E-16
7.331552E+03	6.144286E-15	1.246498E-16
7.341447E+03	6.112205E-15	1.210815E-16
7.351341E+03	6.078575E-15	1.175020E-16
7.361235E+03	6.043572E-15	1.139254E-16
7.371129E+03	6.007208E-15	1.103636E-16
7.381023E+03	5.969828E-15	1.068353E-16
7.390917E+03	5.931404E-15	1.033529E-16
7.400811E+03	5.892316E-15	9.993723E-17
7.410705E+03	5.852560E-15	9.660329E-17
7.420600E+03	5.812517E-15	9.337355E-17
7.430494E+03	5.772344E-15	9.026781E-17
7.440388E+03	5.732071E-15	8.730507E-17
7.450282E+03	5.691807E-15	8.450696E-17
7.460176E+03	5.651757E-15	8.189768E-17
7.470070E+03	5.611962E-15	7.949992E-17
7.479964E+03	5.572668E-15	7.733992E-17
7.489859E+03	5.533922E-15	7.544124E-17
7.499753E+03	5.495949E-15	7.382932E-17
7.509647E+03	5.458789E-15	7.252570E-17
7.519541E+03	5.422778E-15	7.155356E-17
7.529435E+03	5.387911E-15	7.092832E-17
7.539329E+03	5.354488E-15	7.066539E-17
7.549223E+03	5.322654E-15	7.077248E-17
7.559117E+03	5.292847E-15	7.124811E-17
7.569012E+03	5.265128E-15	7.207765E-17
7.578906E+03	5.239883E-15	7.324792E-17
7.588800E+03	5.217054E-15	7.473782E-17
7.598694E+03	5.196787E-15	7.652821E-17
7.608588E+03	5.179075E-15	7.859784E-17
7.618482E+03	5.163942E-15	8.092674E-17
7.628376E+03	5.151110E-15	8.349137E-17
7.638271E+03	5.140574E-15	8.627386E-17
7.648165E+03	5.132264E-15	8.925708E-17
7.658059E+03	5.126126E-15	9.242594E-17
7.667953E+03	5.122181E-15	9.576860E-17
7.677847E+03	5.120169E-15	9.926963E-17
