#wls	flux	fluxerr
1.583061E+03	4.982746E-15	3.499918E-16
1.622638E+03	5.083422E-15	3.420904E-16
1.662214E+03	5.179316E-15	3.333443E-16
1.701791E+03	5.271731E-15	3.239208E-16
1.741367E+03	5.359327E-15	3.138258E-16
1.780944E+03	5.440688E-15	3.030866E-16
1.820520E+03	5.516334E-15	2.918600E-16
1.860097E+03	5.582588E-15	2.800988E-16
1.899673E+03	5.635752E-15	2.678074E-16
1.939250E+03	5.674830E-15	2.551618E-16
1.978827E+03	5.693310E-15	2.421235E-16
2.018403E+03	5.690448E-15	2.289526E-16
2.057980E+03	5.669032E-15	2.160464E-16
2.097556E+03	5.641876E-15	2.041302E-16
2.137133E+03	5.639278E-15	1.944046E-16
2.176709E+03	5.684952E-15	1.875630E-16
2.216286E+03	5.781156E-15	1.834921E-16
2.255862E+03	5.916600E-15	1.817074E-16
2.295439E+03	6.080230E-15	1.817777E-16
2.335015E+03	6.269419E-15	1.835005E-16
2.374592E+03	6.483345E-15	1.867359E-16
2.414168E+03	6.720720E-15	1.913465E-16
2.453745E+03	6.980361E-15	1.972196E-16
2.493321E+03	7.255343E-15	2.041070E-16
2.532898E+03	7.531481E-15	2.115871E-16
2.572475E+03	7.782871E-15	2.189360E-16
2.612051E+03	7.975371E-15	2.252105E-16
2.651628E+03	8.106924E-15	2.303640E-16
2.691204E+03	8.204901E-15	2.350770E-16
2.730781E+03	8.287424E-15	2.396254E-16
2.770357E+03	8.366666E-15	2.441252E-16
2.809934E+03	8.444844E-15	2.484321E-16
2.849510E+03	8.523332E-15	2.524039E-16
2.889087E+03	8.599248E-15	2.558006E-16
2.928663E+03	8.671615E-15	2.584669E-16
2.968240E+03	8.739685E-15	2.602856E-16
2.978134E+03	8.756706E-15	2.606198E-16
2.988028E+03	8.772750E-15	2.608753E-16
2.997922E+03	8.789125E-15	2.610903E-16
3.007816E+03	8.805221E-15	2.612464E-16
3.017710E+03	8.821114E-15	2.613456E-16
3.027605E+03	8.837549E-15	2.614097E-16
3.037499E+03	8.853907E-15	2.614203E-16
3.047393E+03	8.870836E-15	2.613967E-16
3.057287E+03	8.887869E-15	2.613252E-16
3.067181E+03	8.905613E-15	2.612240E-16
3.077075E+03	8.924062E-15	2.610932E-16
3.086969E+03	8.943222E-15	2.609334E-16
3.096864E+03	8.963102E-15	2.607454E-16
3.106758E+03	8.983143E-15	2.605137E-16
3.116652E+03	9.004576E-15	2.602748E-16
3.126546E+03	9.026856E-15	2.600138E-16
3.136440E+03	9.050042E-15	2.597332E-16
3.146334E+03	9.074787E-15	2.594530E-16
3.156228E+03	9.100604E-15	2.591603E-16
3.166122E+03	9.128155E-15	2.588751E-16
3.176017E+03	9.157534E-15	2.586013E-16
3.185911E+03	9.188857E-15	2.583435E-16
3.195805E+03	9.221703E-15	2.580914E-16
3.205699E+03	9.257319E-15	2.578813E-16
3.215593E+03	9.295835E-15	2.577183E-16
3.225487E+03	9.336855E-15	2.575928E-16
3.235381E+03	9.381071E-15	2.575256E-16
3.245276E+03	9.428098E-15	2.575079E-16
3.255170E+03	9.479163E-15	2.575749E-16
3.265064E+03	9.533844E-15	2.577170E-16
3.274958E+03	9.592792E-15	2.579536E-16
3.284852E+03	9.655558E-15	2.582746E-16
3.294746E+03	9.723213E-15	2.587109E-16
3.304640E+03	9.795209E-15	2.592502E-16
3.314534E+03	9.871419E-15	2.598916E-16
3.324429E+03	9.952688E-15	2.606602E-16
3.334323E+03	1.003812E-14	2.615356E-16
3.344217E+03	1.012723E-14	2.625085E-16
3.354111E+03	1.022035E-14	2.635916E-16
3.364005E+03	1.031603E-14	2.647516E-16
3.373899E+03	1.041306E-14	2.659625E-16
3.383793E+03	1.051144E-14	2.672303E-16
3.393688E+03	1.060823E-14	2.684861E-16
3.403582E+03	1.070207E-14	2.697023E-16
3.413476E+03	1.078956E-14	2.708013E-16
3.423370E+03	1.086873E-14	2.717423E-16
3.433264E+03	1.093497E-14	2.724186E-16
3.443158E+03	1.098436E-14	2.727424E-16
3.453052E+03	1.101085E-14	2.725711E-16
3.462946E+03	1.101225E-14	2.718527E-16
3.472841E+03	1.098851E-14	2.705865E-16
3.482735E+03	1.094327E-14	2.688596E-16
3.492629E+03	1.088009E-14	2.667562E-16
3.502523E+03	1.080330E-14	2.643779E-16
3.512417E+03	1.071632E-14	2.618027E-16
3.522311E+03	1.062323E-14	2.591246E-16
3.532205E+03	1.052699E-14	2.564088E-16
3.542100E+03	1.043019E-14	2.537121E-16
3.551994E+03	1.033584E-14	2.511011E-16
3.561888E+03	1.024544E-14	2.486053E-16
3.571782E+03	1.016085E-14	2.462637E-16
3.581676E+03	1.008327E-14	2.440991E-16
3.591570E+03	1.001394E-14	2.421355E-16
3.601464E+03	9.953472E-15	2.403819E-16
3.611358E+03	9.902579E-15	2.388496E-16
3.621253E+03	9.861087E-15	2.375291E-16
3.631147E+03	9.829922E-15	2.364372E-16
3.641041E+03	9.808236E-15	2.355482E-16
3.650935E+03	9.796266E-15	2.348625E-16
3.660829E+03	9.793193E-15	2.343554E-16
3.670723E+03	9.798957E-15	2.340203E-16
3.680617E+03	9.812833E-15	2.338349E-16
3.690512E+03	9.833769E-15	2.337689E-16
3.700406E+03	9.861832E-15	2.338191E-16
3.710300E+03	9.896248E-15	2.339623E-16
3.720194E+03	9.935994E-15	2.341693E-16
3.730088E+03	9.980624E-15	2.344250E-16
3.739982E+03	1.002996E-14	2.347207E-16
3.749876E+03	1.008310E-14	2.350304E-16
3.759770E+03	1.013991E-14	2.353470E-16
3.769665E+03	1.019954E-14	2.356464E-16
3.779559E+03	1.026192E-14	2.359230E-16
3.789453E+03	1.032652E-14	2.361608E-16
3.799347E+03	1.039286E-14	2.363449E-16
3.809241E+03	1.046067E-14	2.364662E-16
3.819135E+03	1.052973E-14	2.365164E-16
3.829029E+03	1.059978E-14	2.364868E-16
3.838924E+03	1.067012E-14	2.363592E-16
3.848818E+03	1.074075E-14	2.361318E-16
3.858712E+03	1.081120E-14	2.357922E-16
3.868606E+03	1.088124E-14	2.353342E-16
3.878500E+03	1.095062E-14	2.347518E-16
3.888394E+03	1.101865E-14	2.340294E-16
3.898288E+03	1.108530E-14	2.331673E-16
3.908182E+03	1.115011E-14	2.321562E-16
3.918077E+03	1.121257E-14	2.309874E-16
3.927971E+03	1.127288E-14	2.296671E-16
3.937865E+03	1.133013E-14	2.281801E-16
3.947759E+03	1.138414E-14	2.265262E-16
3.957653E+03	1.143494E-14	2.247114E-16
3.967547E+03	1.148226E-14	2.227352E-16
3.977441E+03	1.152567E-14	2.205958E-16
3.987336E+03	1.156565E-14	2.183096E-16
3.997230E+03	1.160216E-14	2.158835E-16
4.007124E+03	1.163498E-14	2.133219E-16
4.017018E+03	1.166475E-14	2.106460E-16
4.026912E+03	1.169134E-14	2.078631E-16
4.036806E+03	1.171498E-14	2.049882E-16
4.046700E+03	1.173567E-14	2.020331E-16
4.056594E+03	1.175375E-14	1.990158E-16
4.066489E+03	1.176914E-14	1.959489E-16
4.076383E+03	1.178179E-14	1.928456E-16
4.086277E+03	1.179209E-14	1.897280E-16
4.096171E+03	1.179995E-14	1.866114E-16
4.106065E+03	1.180625E-14	1.835271E-16
4.115959E+03	1.181107E-14	1.804947E-16
4.125853E+03	1.181560E-14	1.775514E-16
4.135748E+03	1.182044E-14	1.747258E-16
4.145642E+03	1.182696E-14	1.720585E-16
4.155536E+03	1.183564E-14	1.695770E-16
4.165430E+03	1.184775E-14	1.673208E-16
4.175324E+03	1.186393E-14	1.653209E-16
4.185218E+03	1.188431E-14	1.636017E-16
4.195112E+03	1.190869E-14	1.621838E-16
4.205006E+03	1.193629E-14	1.610806E-16
4.214901E+03	1.196595E-14	1.603008E-16
4.224795E+03	1.199511E-14	1.598345E-16
4.234689E+03	1.202097E-14	1.596675E-16
4.244583E+03	1.204006E-14	1.597752E-16
4.254477E+03	1.204852E-14	1.601176E-16
4.264371E+03	1.204233E-14	1.606326E-16
4.274265E+03	1.201979E-14	1.612803E-16
4.284159E+03	1.198127E-14	1.620437E-16
4.294054E+03	1.192794E-14	1.629119E-16
4.303948E+03	1.186101E-14	1.638716E-16
4.313842E+03	1.178230E-14	1.649136E-16
4.323736E+03	1.169332E-14	1.660239E-16
4.333630E+03	1.159561E-14	1.671892E-16
4.343524E+03	1.149092E-14	1.684007E-16
4.353418E+03	1.138094E-14	1.696508E-16
4.363313E+03	1.126761E-14	1.709387E-16
4.373207E+03	1.115277E-14	1.722655E-16
4.383101E+03	1.103831E-14	1.736366E-16
4.392995E+03	1.092579E-14	1.750566E-16
4.402889E+03	1.081709E-14	1.765386E-16
4.412783E+03	1.071327E-14	1.780862E-16
4.422677E+03	1.061576E-14	1.797125E-16
4.432571E+03	1.052500E-14	1.814168E-16
4.442466E+03	1.044129E-14	1.831981E-16
4.452360E+03	1.036483E-14	1.850551E-16
4.462254E+03	1.029502E-14	1.869737E-16
4.472148E+03	1.023142E-14	1.889428E-16
4.482042E+03	1.017338E-14	1.909475E-16
4.491936E+03	1.012002E-14	1.929688E-16
4.501830E+03	1.007072E-14	1.949925E-16
4.511725E+03	1.002467E-14	1.969999E-16
4.521619E+03	9.981385E-15	1.989790E-16
4.531513E+03	9.940224E-15	2.009142E-16
4.541407E+03	9.900951E-15	2.027982E-16
4.551301E+03	9.863303E-15	2.046230E-16
4.561195E+03	9.827152E-15	2.063836E-16
4.571089E+03	9.792609E-15	2.080804E-16
4.580983E+03	9.759656E-15	2.097113E-16
4.590878E+03	9.728584E-15	2.112813E-16
4.600772E+03	9.699661E-15	2.127951E-16
4.610666E+03	9.673292E-15	2.142611E-16
4.620560E+03	9.649911E-15	2.156887E-16
4.630454E+03	9.629882E-15	2.170861E-16
4.640348E+03	9.613760E-15	2.184663E-16
4.650242E+03	9.602018E-15	2.198406E-16
4.660137E+03	9.595080E-15	2.212197E-16
4.670031E+03	9.593484E-15	2.226167E-16
4.679925E+03	9.597578E-15	2.240407E-16
4.689819E+03	9.607973E-15	2.255069E-16
4.699713E+03	9.624835E-15	2.270199E-16
4.709607E+03	9.648531E-15	2.285890E-16
4.719501E+03	9.678903E-15	2.302109E-16
4.729395E+03	9.715929E-15	2.318847E-16
4.739290E+03	9.759057E-15	2.335971E-16
4.749184E+03	9.807317E-15	2.353237E-16
4.759078E+03	9.859745E-15	2.370401E-16
4.768972E+03	9.915321E-15	2.387200E-16
4.778866E+03	9.972664E-15	2.403281E-16
4.788760E+03	1.003015E-14	2.418233E-16
4.798654E+03	1.008639E-14	2.431698E-16
4.808549E+03	1.013971E-14	2.443254E-16
4.818443E+03	1.018863E-14	2.452526E-16
4.828337E+03	1.023180E-14	2.459180E-16
4.838231E+03	1.026769E-14	2.462845E-16
4.848125E+03	1.029531E-14	2.463283E-16
4.858019E+03	1.031363E-14	2.460260E-16
4.867913E+03	1.032219E-14	2.453689E-16
4.877807E+03	1.032035E-14	2.443449E-16
4.887702E+03	1.030800E-14	2.429550E-16
4.897596E+03	1.028555E-14	2.412140E-16
4.907490E+03	1.025341E-14	2.391371E-16
4.917384E+03	1.021242E-14	2.367499E-16
4.927278E+03	1.016366E-14	2.340835E-16
4.937172E+03	1.010842E-14	2.311744E-16
4.947066E+03	1.004779E-14	2.280542E-16
4.956961E+03	9.982954E-15	2.247560E-16
4.966855E+03	9.915067E-15	2.213120E-16
4.976749E+03	9.845171E-15	2.177514E-16
4.986643E+03	9.773831E-15	2.140924E-16
4.996537E+03	9.701806E-15	2.103569E-16
5.006431E+03	9.629587E-15	2.065608E-16
5.016325E+03	9.557586E-15	2.027179E-16
5.026219E+03	9.486282E-15	1.988432E-16
5.036114E+03	9.416099E-15	1.949504E-16
5.046008E+03	9.347376E-15	1.910508E-16
5.055902E+03	9.280638E-15	1.871594E-16
5.065796E+03	9.216541E-15	1.832934E-16
5.075690E+03	9.155673E-15	1.794680E-16
5.085584E+03	9.098562E-15	1.756966E-16
5.095478E+03	9.045548E-15	1.719887E-16
5.105373E+03	8.997139E-15	1.683566E-16
5.115267E+03	8.953263E-15	1.648016E-16
5.125161E+03	8.913966E-15	1.613275E-16
5.135055E+03	8.879008E-15	1.579330E-16
5.144949E+03	8.848119E-15	1.546174E-16
5.154843E+03	8.820658E-15	1.513741E-16
5.164737E+03	8.796249E-15	1.482025E-16
5.174631E+03	8.774408E-15	1.451011E-16
5.184526E+03	8.754809E-15	1.420724E-16
5.194420E+03	8.736903E-15	1.391163E-16
5.204314E+03	8.720495E-15	1.362399E-16
5.214208E+03	8.705331E-15	1.334501E-16
5.224102E+03	8.691189E-15	1.307557E-16
5.233996E+03	8.677757E-15	1.281649E-16
5.243890E+03	8.664968E-15	1.256909E-16
5.253785E+03	8.652366E-15	1.233419E-16
5.263679E+03	8.639590E-15	1.211284E-16
5.273573E+03	8.626310E-15	1.190622E-16
5.283467E+03	8.612028E-15	1.171533E-16
5.293361E+03	8.596088E-15	1.154097E-16
5.303255E+03	8.577872E-15	1.138400E-16
5.313149E+03	8.556735E-15	1.124516E-16
5.323043E+03	8.532107E-15	1.112521E-16
5.332938E+03	8.503212E-15	1.102445E-16
5.342832E+03	8.469636E-15	1.094340E-16
5.352726E+03	8.431093E-15	1.088204E-16
5.362620E+03	8.387740E-15	1.083942E-16
5.372514E+03	8.340424E-15	1.081498E-16
5.382408E+03	8.290996E-15	1.080920E-16
5.392302E+03	8.241060E-15	1.082213E-16
5.402196E+03	8.192081E-15	1.085362E-16
5.412091E+03	8.145325E-15	1.090334E-16
5.421985E+03	8.101902E-15	1.097085E-16
5.431879E+03	8.062467E-15	1.105522E-16
5.441773E+03	8.027428E-15	1.115536E-16
5.451667E+03	7.996921E-15	1.126992E-16
5.461561E+03	7.970530E-15	1.139690E-16
5.471455E+03	7.947913E-15	1.153449E-16
5.481350E+03	7.928383E-15	1.168049E-16
5.491244E+03	7.911058E-15	1.183242E-16
5.501138E+03	7.895098E-15	1.198792E-16
5.511032E+03	7.879861E-15	1.214493E-16
5.520926E+03	7.864489E-15	1.230112E-16
5.530820E+03	7.848609E-15	1.245489E-16
5.540714E+03	7.831841E-15	1.260472E-16
5.550608E+03	7.814140E-15	1.274966E-16
5.560503E+03	7.795814E-15	1.288942E-16
5.570397E+03	7.777363E-15	1.302411E-16
5.580291E+03	7.759495E-15	1.315434E-16
5.590185E+03	7.743043E-15	1.328100E-16
5.600079E+03	7.728890E-15	1.340522E-16
5.609973E+03	7.717901E-15	1.352817E-16
5.619867E+03	7.710863E-15	1.365102E-16
5.629762E+03	7.708520E-15	1.377489E-16
5.639656E+03	7.711413E-15	1.390064E-16
5.649550E+03	7.719879E-15	1.402876E-16
5.659444E+03	7.734303E-15	1.415986E-16
5.669338E+03	7.754905E-15	1.429426E-16
5.679232E+03	7.781859E-15	1.443218E-16
5.689126E+03	7.815307E-15	1.457377E-16
5.699020E+03	7.855283E-15	1.471895E-16
5.708915E+03	7.902034E-15	1.486803E-16
5.718809E+03	7.955520E-15	1.502075E-16
5.728703E+03	8.015706E-15	1.517681E-16
5.738597E+03	8.082452E-15	1.533568E-16
5.748491E+03	8.155560E-15	1.549670E-16
5.758385E+03	8.234422E-15	1.565836E-16
5.768279E+03	8.318580E-15	1.581944E-16
5.778174E+03	8.407042E-15	1.597763E-16
5.788068E+03	8.498955E-15	1.613089E-16
5.797962E+03	8.593003E-15	1.627632E-16
5.807856E+03	8.687666E-15	1.641060E-16
5.817750E+03	8.781516E-15	1.653066E-16
5.827644E+03	8.872631E-15	1.663255E-16
5.837538E+03	8.959272E-15	1.671277E-16
5.847432E+03	9.039602E-15	1.676772E-16
5.857327E+03	9.111770E-15	1.679396E-16
5.867221E+03	9.174283E-15	1.678884E-16
5.877115E+03	9.225705E-15	1.675002E-16
5.887009E+03	9.264905E-15	1.667588E-16
5.896903E+03	9.291417E-15	1.656617E-16
5.906797E+03	9.304927E-15	1.642109E-16
5.916691E+03	9.305512E-15	1.624165E-16
5.926586E+03	9.294245E-15	1.603070E-16
5.936480E+03	9.272075E-15	1.579092E-16
5.946374E+03	9.240810E-15	1.552645E-16
5.956268E+03	9.202157E-15	1.524122E-16
5.966162E+03	9.158300E-15	1.493985E-16
5.976056E+03	9.111334E-15	1.462667E-16
5.985950E+03	9.063565E-15	1.430622E-16
5.995844E+03	9.017061E-15	1.398246E-16
6.005739E+03	8.973977E-15	1.365931E-16
6.015633E+03	8.936028E-15	1.333984E-16
6.025527E+03	8.905214E-15	1.302740E-16
6.035421E+03	8.882846E-15	1.272415E-16
6.045315E+03	8.870194E-15	1.243211E-16
6.055209E+03	8.868591E-15	1.215333E-16
6.065103E+03	8.878673E-15	1.188887E-16
6.074998E+03	8.901249E-15	1.164006E-16
6.084892E+03	8.936709E-15	1.140779E-16
6.094786E+03	8.985290E-15	1.119294E-16
6.104680E+03	9.046932E-15	1.099624E-16
6.114574E+03	9.121205E-15	1.081833E-16
6.124468E+03	9.207009E-15	1.065947E-16
6.134362E+03	9.302948E-15	1.052015E-16
6.144256E+03	9.406477E-15	1.040016E-16
6.154151E+03	9.514244E-15	1.029911E-16
6.164045E+03	9.622050E-15	1.021645E-16
6.173939E+03	9.724357E-15	1.015089E-16
6.183833E+03	9.814539E-15	1.010057E-16
6.193727E+03	9.885245E-15	1.006318E-16
6.203621E+03	9.929836E-15	1.003701E-16
6.213515E+03	9.944221E-15	1.002229E-16
6.223410E+03	9.931618E-15	1.002550E-16
6.233304E+03	9.898709E-15	1.005489E-16
6.243198E+03	9.853162E-15	1.011658E-16
6.253092E+03	9.802337E-15	1.021497E-16
6.262986E+03	9.752649E-15	1.035324E-16
6.272880E+03	9.709684E-15	1.053386E-16
6.282774E+03	9.677698E-15	1.075829E-16
6.292668E+03	9.660160E-15	1.102774E-16
6.302563E+03	9.659355E-15	1.134271E-16
6.312457E+03	9.677169E-15	1.170394E-16
6.322351E+03	9.714564E-15	1.211168E-16
6.332245E+03	9.772328E-15	1.256652E-16
6.342139E+03	9.850583E-15	1.306867E-16
6.352033E+03	9.949018E-15	1.361814E-16
6.361927E+03	1.006688E-14	1.421452E-16
6.371822E+03	1.020294E-14	1.485687E-16
6.381716E+03	1.035548E-14	1.554347E-16
6.391610E+03	1.052242E-14	1.627193E-16
6.401504E+03	1.070094E-14	1.703838E-16
6.411398E+03	1.088859E-14	1.783914E-16
6.421292E+03	1.108206E-14	1.866875E-16
6.431186E+03	1.127801E-14	1.952104E-16
6.441080E+03	1.147339E-14	2.038984E-16
6.450975E+03	1.166434E-14	2.126695E-16
6.460869E+03	1.184779E-14	2.214497E-16
6.470763E+03	1.202050E-14	2.301564E-16
6.480657E+03	1.217920E-14	2.387009E-16
6.490551E+03	1.232073E-14	2.469917E-16
6.500445E+03	1.244227E-14	2.549388E-16
6.510339E+03	1.254121E-14	2.624528E-16
6.520234E+03	1.261498E-14	2.694415E-16
6.530128E+03	1.266191E-14	2.758286E-16
6.540022E+03	1.268043E-14	2.815391E-16
6.549916E+03	1.266975E-14	2.865143E-16
6.559810E+03	1.263011E-14	2.907192E-16
6.569704E+03	1.256178E-14	2.941219E-16
6.579598E+03	1.246630E-14	2.967224E-16
6.589492E+03	1.234528E-14	2.985269E-16
6.599387E+03	1.220110E-14	2.995645E-16
6.609281E+03	1.203630E-14	2.998734E-16
6.619175E+03	1.185351E-14	2.994992E-16
6.629069E+03	1.165597E-14	2.985080E-16
6.638963E+03	1.144629E-14	2.969556E-16
6.648857E+03	1.122767E-14	2.949176E-16
6.658751E+03	1.100269E-14	2.924586E-16
6.668645E+03	1.077409E-14	2.896508E-16
6.678540E+03	1.054394E-14	2.865522E-16
6.688434E+03	1.031480E-14	2.832372E-16
6.698328E+03	1.008827E-14	2.797571E-16
6.708222E+03	9.866012E-15	2.761659E-16
6.718116E+03	9.649722E-15	2.725211E-16
6.728010E+03	9.440212E-15	2.688560E-16
6.737904E+03	9.238875E-15	2.652213E-16
6.747799E+03	9.046286E-15	2.616449E-16
6.757693E+03	8.863359E-15	2.581647E-16
6.767587E+03	8.690241E-15	2.547963E-16
6.777481E+03	8.527658E-15	2.515720E-16
6.787375E+03	8.375709E-15	2.485051E-16
6.797269E+03	8.234384E-15	2.456056E-16
6.807163E+03	8.103804E-15	2.428864E-16
6.817057E+03	7.983893E-15	2.403538E-16
6.826952E+03	7.874378E-15	2.380076E-16
6.836846E+03	7.775237E-15	2.358544E-16
6.846740E+03	7.685908E-15	2.338836E-16
6.856634E+03	7.606085E-15	2.320914E-16
6.866528E+03	7.535182E-15	2.304648E-16
6.876422E+03	7.472772E-15	2.289948E-16
6.886316E+03	7.418280E-15	2.276673E-16
6.896211E+03	7.371096E-15	2.264664E-16
6.906105E+03	7.330476E-15	2.253714E-16
6.915999E+03	7.295749E-15	2.243632E-16
6.925893E+03	7.266319E-15	2.234249E-16
6.935787E+03	7.241455E-15	2.225347E-16
6.945681E+03	7.220298E-15	2.216669E-16
6.955575E+03	7.202083E-15	2.207982E-16
6.965469E+03	7.186150E-15	2.199089E-16
6.975364E+03	7.171632E-15	2.189725E-16
6.985258E+03	7.157782E-15	2.179665E-16
6.995152E+03	7.143875E-15	2.168692E-16
7.005046E+03	7.129212E-15	2.156603E-16
7.014940E+03	7.113242E-15	2.143239E-16
7.024834E+03	7.095161E-15	2.128372E-16
7.034728E+03	7.074578E-15	2.111901E-16
7.044623E+03	7.051126E-15	2.093740E-16
7.054517E+03	7.024605E-15	2.073854E-16
7.064411E+03	6.994982E-15	2.052263E-16
7.074305E+03	6.962285E-15	2.029008E-16
7.084199E+03	6.926906E-15	2.004236E-16
7.094093E+03	6.889154E-15	1.978072E-16
7.103987E+03	6.849635E-15	1.950724E-16
7.113881E+03	6.808804E-15	1.922354E-16
7.123776E+03	6.767237E-15	1.893155E-16
7.133670E+03	6.725500E-15	1.863312E-16
7.143564E+03	6.684225E-15	1.833026E-16
7.153458E+03	6.643668E-15	1.802385E-16
7.163352E+03	6.604430E-15	1.771570E-16
7.173246E+03	6.566614E-15	1.740622E-16
7.183140E+03	6.530548E-15	1.709640E-16
7.193035E+03	6.496266E-15	1.678641E-16
7.202929E+03	6.463915E-15	1.647674E-16
7.212823E+03	6.433456E-15	1.616736E-16
7.222717E+03	6.404553E-15	1.585752E-16
7.232611E+03	6.377191E-15	1.554733E-16
7.242505E+03	6.351080E-15	1.523623E-16
7.252399E+03	6.325664E-15	1.492310E-16
7.262293E+03	6.300654E-15	1.460756E-16
7.272188E+03	6.275645E-15	1.428903E-16
7.282082E+03	6.250257E-15	1.396706E-16
7.291976E+03	6.224052E-15	1.364122E-16
7.301870E+03	6.196855E-15	1.331172E-16
7.311764E+03	6.168458E-15	1.297881E-16
7.321658E+03	6.138629E-15	1.264276E-16
7.331552E+03	6.107294E-15	1.230426E-16
7.341447E+03	6.074437E-15	1.196419E-16
7.351341E+03	6.039987E-15	1.162342E-16
7.361235E+03	6.004108E-15	1.128331E-16
7.371129E+03	5.966803E-15	1.094502E-16
7.381023E+03	5.928402E-15	1.061034E-16
7.390917E+03	5.888863E-15	1.028048E-16
7.400811E+03	5.848554E-15	9.957438E-17
7.410705E+03	5.807458E-15	9.642627E-17
7.420600E+03	5.765941E-15	9.338192E-17
7.430494E+03	5.724158E-15	9.045997E-17
7.440388E+03	5.682150E-15	8.767824E-17
7.450282E+03	5.640039E-15	8.505678E-17
7.460176E+03	5.598049E-15	8.261791E-17
7.470070E+03	5.556227E-15	8.038177E-17
7.479964E+03	5.514820E-15	7.837165E-17
7.489859E+03	5.473890E-15	7.660787E-17
7.499753E+03	5.433683E-15	7.511259E-17
7.509647E+03	5.394267E-15	7.390396E-17
7.519541E+03	5.356003E-15	7.300201E-17
7.529435E+03	5.318912E-15	7.241923E-17
7.539329E+03	5.283314E-15	7.216884E-17
7.549223E+03	5.249377E-15	7.225695E-17
7.559117E+03	5.217550E-15	7.268197E-17
7.569012E+03	5.187916E-15	7.343109E-17
7.578906E+03	5.160893E-15	7.449400E-17
7.588800E+03	5.136488E-15	7.585334E-17
7.598694E+03	5.114928E-15	7.749446E-17
7.608588E+03	5.096309E-15	7.940107E-17
7.618482E+03	5.080776E-15	8.155859E-17
7.628376E+03	5.068159E-15	8.394863E-17
7.638271E+03	5.058462E-15	8.655697E-17
7.648165E+03	5.051525E-15	8.936807E-17
7.658059E+03	5.047161E-15	9.236729E-17
7.667953E+03	5.045281E-15	9.554302E-17
7.677847E+03	5.045532E-15	9.887988E-17
