#wls	flux	fluxerr
1.583061E+03	4.202318E-15	3.527915E-16
1.622638E+03	4.301586E-15	3.535439E-16
1.662214E+03	4.399063E-15	3.538238E-16
1.701791E+03	4.495301E-15	3.537003E-16
1.741367E+03	4.589803E-15	3.531605E-16
1.780944E+03	4.681940E-15	3.521880E-16
1.820520E+03	4.768441E-15	3.505787E-16
1.860097E+03	4.847654E-15	3.482702E-16
1.899673E+03	4.914178E-15	3.449496E-16
1.939250E+03	4.964577E-15	3.404757E-16
1.978827E+03	4.994227E-15	3.346494E-16
2.018403E+03	5.001953E-15	3.275240E-16
2.057980E+03	4.994815E-15	3.196828E-16
2.097556E+03	4.988364E-15	3.121946E-16
2.137133E+03	5.004241E-15	3.064095E-16
2.176709E+03	5.058831E-15	3.032337E-16
2.216286E+03	5.153948E-15	3.026377E-16
2.255862E+03	5.286718E-15	3.043289E-16
2.295439E+03	5.445863E-15	3.075617E-16
2.335015E+03	5.626667E-15	3.120015E-16
2.374592E+03	5.824865E-15	3.173628E-16
2.414168E+03	6.037108E-15	3.234303E-16
2.453745E+03	6.261184E-15	3.300641E-16
2.493321E+03	6.485758E-15	3.366613E-16
2.532898E+03	6.698995E-15	3.426302E-16
2.572475E+03	6.882704E-15	3.470921E-16
2.612051E+03	7.018726E-15	3.492164E-16
2.651628E+03	7.107945E-15	3.491465E-16
2.691204E+03	7.161891E-15	3.475164E-16
2.730781E+03	7.196151E-15	3.450878E-16
2.770357E+03	7.223098E-15	3.424275E-16
2.809934E+03	7.252619E-15	3.399595E-16
2.849510E+03	7.292485E-15	3.379922E-16
2.889087E+03	7.345488E-15	3.365938E-16
2.928663E+03	7.417133E-15	3.359543E-16
2.968240E+03	7.512499E-15	3.362374E-16
2.978134E+03	7.540441E-15	3.364619E-16
2.988028E+03	7.569680E-15	3.367303E-16
2.997922E+03	7.602113E-15	3.371261E-16
3.007816E+03	7.635993E-15	3.375700E-16
3.017710E+03	7.672370E-15	3.381075E-16
3.027605E+03	7.711384E-15	3.387434E-16
3.037499E+03	7.752205E-15	3.394397E-16
3.047393E+03	7.796740E-15	3.402788E-16
3.057287E+03	7.843363E-15	3.411878E-16
3.067181E+03	7.893950E-15	3.422470E-16
3.077075E+03	7.946742E-15	3.433784E-16
3.086969E+03	8.003632E-15	3.446623E-16
3.096864E+03	8.063789E-15	3.460609E-16
3.106758E+03	8.127297E-15	3.475762E-16
3.116652E+03	8.194247E-15	3.492103E-16
3.126546E+03	8.265650E-15	3.510045E-16
3.136440E+03	8.341610E-15	3.529609E-16
3.146334E+03	8.421311E-15	3.550428E-16
3.156228E+03	8.504851E-15	3.572526E-16
3.166122E+03	8.594178E-15	3.596699E-16
3.176017E+03	8.687539E-15	3.622187E-16
3.185911E+03	8.785945E-15	3.649392E-16
3.195805E+03	8.889471E-15	3.678319E-16
3.205699E+03	8.999112E-15	3.709355E-16
3.215593E+03	9.113964E-15	3.742099E-16
3.225487E+03	9.234033E-15	3.776529E-16
3.235381E+03	9.359263E-15	3.812597E-16
3.245276E+03	9.491483E-15	3.851022E-16
3.255170E+03	9.628634E-15	3.890939E-16
3.265064E+03	9.771453E-15	3.932622E-16
3.274958E+03	9.919628E-15	3.975922E-16
3.284852E+03	1.007373E-14	4.021040E-16
3.294746E+03	1.023224E-14	4.067351E-16
3.304640E+03	1.039445E-14	4.114556E-16
3.314534E+03	1.056053E-14	4.162703E-16
3.324429E+03	1.072943E-14	4.211369E-16
3.334323E+03	1.090090E-14	4.260454E-16
3.344217E+03	1.107146E-14	4.308590E-16
3.354111E+03	1.124140E-14	4.355902E-16
3.364005E+03	1.140871E-14	4.401632E-16
3.373899E+03	1.157011E-14	4.444537E-16
3.383793E+03	1.172511E-14	4.484468E-16
3.393688E+03	1.186989E-14	4.520017E-16
3.403582E+03	1.200145E-14	4.550110E-16
3.413476E+03	1.211867E-14	4.574398E-16
3.423370E+03	1.221625E-14	4.590978E-16
3.433264E+03	1.229200E-14	4.599135E-16
3.443158E+03	1.234272E-14	4.597797E-16
3.453052E+03	1.236626E-14	4.586303E-16
3.462946E+03	1.236062E-14	4.564040E-16
3.472841E+03	1.232579E-14	4.531137E-16
3.482735E+03	1.226312E-14	4.488219E-16
3.492629E+03	1.217482E-14	4.436206E-16
3.502523E+03	1.206456E-14	4.376549E-16
3.512417E+03	1.193455E-14	4.310135E-16
3.522311E+03	1.178978E-14	4.238840E-16
3.532205E+03	1.163177E-14	4.163273E-16
3.542100E+03	1.146532E-14	4.085193E-16
3.551994E+03	1.129256E-14	4.005389E-16
3.561888E+03	1.111694E-14	3.925098E-16
3.571782E+03	1.094012E-14	3.844912E-16
3.581676E+03	1.076495E-14	3.765830E-16
3.591570E+03	1.059325E-14	3.688468E-16
3.601464E+03	1.042656E-14	3.613336E-16
3.611358E+03	1.026674E-14	3.541050E-16
3.621253E+03	1.011360E-14	3.471506E-16
3.631147E+03	9.969145E-15	3.405354E-16
3.641041E+03	9.833396E-15	3.342554E-16
3.650935E+03	9.707335E-15	3.283395E-16
3.660829E+03	9.590698E-15	3.227737E-16
3.670723E+03	9.483658E-15	3.175589E-16
3.680617E+03	9.386774E-15	3.127088E-16
3.690512E+03	9.299974E-15	3.082160E-16
3.700406E+03	9.223118E-15	3.040705E-16
3.710300E+03	9.155547E-15	3.002458E-16
3.720194E+03	9.097049E-15	2.967300E-16
3.730088E+03	9.047798E-15	2.935241E-16
3.739982E+03	9.007472E-15	2.906132E-16
3.749876E+03	8.975730E-15	2.879815E-16
3.759770E+03	8.951417E-15	2.855879E-16
3.769665E+03	8.935390E-15	2.834558E-16
3.779559E+03	8.926101E-15	2.815321E-16
3.789453E+03	8.923971E-15	2.798267E-16
3.799347E+03	8.928620E-15	2.783240E-16
3.809241E+03	8.938949E-15	2.769869E-16
3.819135E+03	8.954979E-15	2.758131E-16
3.829029E+03	8.976707E-15	2.748000E-16
3.838924E+03	9.003089E-15	2.739131E-16
3.848818E+03	9.033803E-15	2.731408E-16
3.858712E+03	9.069202E-15	2.724920E-16
3.868606E+03	9.107977E-15	2.719257E-16
3.878500E+03	9.150500E-15	2.714520E-16
3.888394E+03	9.196167E-15	2.710519E-16
3.898288E+03	9.244724E-15	2.707174E-16
3.908182E+03	9.295627E-15	2.704322E-16
3.918077E+03	9.348979E-15	2.701992E-16
3.927971E+03	9.404289E-15	2.700045E-16
3.937865E+03	9.461696E-15	2.698524E-16
3.947759E+03	9.520475E-15	2.697230E-16
3.957653E+03	9.580533E-15	2.696149E-16
3.967547E+03	9.642085E-15	2.695352E-16
3.977441E+03	9.704798E-15	2.694761E-16
3.987336E+03	9.768654E-15	2.694388E-16
3.997230E+03	9.833658E-15	2.694253E-16
4.007124E+03	9.899569E-15	2.694311E-16
4.017018E+03	9.966713E-15	2.694673E-16
4.026912E+03	1.003463E-14	2.695239E-16
4.036806E+03	1.010341E-14	2.696063E-16
4.046700E+03	1.017345E-14	2.697277E-16
4.056594E+03	1.024486E-14	2.698940E-16
4.066489E+03	1.031728E-14	2.700986E-16
4.076383E+03	1.039087E-14	2.703494E-16
4.086277E+03	1.046602E-14	2.706602E-16
4.096171E+03	1.054263E-14	2.710317E-16
4.106065E+03	1.062061E-14	2.714655E-16
4.115959E+03	1.070031E-14	2.719744E-16
4.125853E+03	1.078174E-14	2.725632E-16
4.135748E+03	1.086440E-14	2.732236E-16
4.145642E+03	1.094839E-14	2.739624E-16
4.155536E+03	1.103337E-14	2.747767E-16
4.165430E+03	1.111842E-14	2.756482E-16
4.175324E+03	1.120328E-14	2.765766E-16
4.185218E+03	1.128677E-14	2.775385E-16
4.195112E+03	1.136742E-14	2.785041E-16
4.205006E+03	1.144395E-14	2.794486E-16
4.214901E+03	1.151414E-14	2.803244E-16
4.224795E+03	1.157640E-14	2.811001E-16
4.234689E+03	1.162815E-14	2.817199E-16
4.244583E+03	1.166720E-14	2.821372E-16
4.254477E+03	1.169176E-14	2.823147E-16
4.264371E+03	1.170002E-14	2.822116E-16
4.274265E+03	1.169130E-14	2.818091E-16
4.284159E+03	1.166603E-14	2.811137E-16
4.294054E+03	1.162504E-14	2.801407E-16
4.303948E+03	1.156976E-14	2.789189E-16
4.313842E+03	1.150185E-14	2.774814E-16
4.323736E+03	1.142322E-14	2.758677E-16
4.333630E+03	1.133505E-14	2.740986E-16
4.343524E+03	1.123961E-14	2.722214E-16
4.353418E+03	1.113819E-14	2.702599E-16
4.363313E+03	1.103221E-14	2.682407E-16
4.373207E+03	1.092351E-14	2.662016E-16
4.383101E+03	1.081314E-14	2.641613E-16
4.392995E+03	1.070256E-14	2.621488E-16
4.402889E+03	1.059290E-14	2.601860E-16
4.412783E+03	1.048501E-14	2.582883E-16
4.422677E+03	1.037960E-14	2.564680E-16
4.432571E+03	1.027770E-14	2.547462E-16
4.442466E+03	1.017959E-14	2.531254E-16
4.452360E+03	1.008570E-14	2.516132E-16
4.462254E+03	9.996517E-15	2.502179E-16
4.472148E+03	9.911942E-15	2.489344E-16
4.482042E+03	9.832382E-15	2.477704E-16
4.491936E+03	9.757458E-15	2.467138E-16
4.501830E+03	9.687563E-15	2.457725E-16
4.511725E+03	9.622223E-15	2.449327E-16
4.521619E+03	9.561493E-15	2.441938E-16
4.531513E+03	9.505146E-15	2.435485E-16
4.541407E+03	9.453227E-15	2.429965E-16
4.551301E+03	9.405653E-15	2.425343E-16
4.561195E+03	9.362106E-15	2.421524E-16
4.571089E+03	9.322684E-15	2.418522E-16
4.580983E+03	9.287249E-15	2.416291E-16
4.590878E+03	9.255937E-15	2.414856E-16
4.600772E+03	9.228538E-15	2.414153E-16
4.610666E+03	9.205342E-15	2.414249E-16
4.620560E+03	9.186167E-15	2.415090E-16
4.630454E+03	9.171075E-15	2.416683E-16
4.640348E+03	9.160234E-15	2.419066E-16
4.650242E+03	9.153562E-15	2.422210E-16
4.660137E+03	9.151069E-15	2.426112E-16
4.670031E+03	9.152725E-15	2.430756E-16
4.679925E+03	9.158456E-15	2.436117E-16
4.689819E+03	9.168019E-15	2.442123E-16
4.699713E+03	9.181448E-15	2.448776E-16
4.709607E+03	9.198480E-15	2.455996E-16
4.719501E+03	9.218664E-15	2.463657E-16
4.729395E+03	9.241701E-15	2.471670E-16
4.739290E+03	9.267094E-15	2.479894E-16
4.749184E+03	9.294297E-15	2.488172E-16
4.759078E+03	9.322660E-15	2.496323E-16
4.768972E+03	9.351520E-15	2.504161E-16
4.778866E+03	9.380238E-15	2.511506E-16
4.788760E+03	9.407856E-15	2.518094E-16
4.798654E+03	9.433577E-15	2.523707E-16
4.808549E+03	9.456868E-15	2.528197E-16
4.818443E+03	9.476773E-15	2.531306E-16
4.828337E+03	9.492591E-15	2.532846E-16
4.838231E+03	9.503914E-15	2.532712E-16
4.848125E+03	9.510078E-15	2.530731E-16
4.858019E+03	9.510649E-15	2.526794E-16
4.867913E+03	9.505392E-15	2.520851E-16
4.877807E+03	9.493959E-15	2.512822E-16
4.887702E+03	9.476378E-15	2.502732E-16
4.897596E+03	9.452772E-15	2.490631E-16
4.907490E+03	9.423168E-15	2.476548E-16
4.917384E+03	9.387916E-15	2.460598E-16
4.927278E+03	9.347260E-15	2.442870E-16
4.937172E+03	9.301824E-15	2.423554E-16
4.947066E+03	9.252098E-15	2.402803E-16
4.956961E+03	9.198505E-15	2.380755E-16
4.966855E+03	9.141724E-15	2.357613E-16
4.976749E+03	9.082439E-15	2.333582E-16
4.986643E+03	9.021049E-15	2.308791E-16
4.996537E+03	8.958426E-15	2.283488E-16
5.006431E+03	8.894943E-15	2.257793E-16
5.016325E+03	8.831261E-15	2.231899E-16
5.026219E+03	8.767899E-15	2.205959E-16
5.036114E+03	8.705347E-15	2.180116E-16
5.046008E+03	8.644160E-15	2.154531E-16
5.055902E+03	8.584662E-15	2.129301E-16
5.065796E+03	8.527311E-15	2.104557E-16
5.075690E+03	8.472430E-15	2.080395E-16
5.085584E+03	8.420194E-15	2.056872E-16
5.095478E+03	8.370990E-15	2.034096E-16
5.105373E+03	8.324876E-15	2.012095E-16
5.115267E+03	8.281937E-15	1.990902E-16
5.125161E+03	8.242199E-15	1.970535E-16
5.135055E+03	8.205714E-15	1.951021E-16
5.144949E+03	8.172220E-15	1.932310E-16
5.154843E+03	8.141834E-15	1.914444E-16
5.164737E+03	8.114200E-15	1.897355E-16
5.174631E+03	8.089096E-15	1.881007E-16
5.184526E+03	8.066351E-15	1.865379E-16
5.194420E+03	8.045682E-15	1.850425E-16
5.204314E+03	8.026700E-15	1.836076E-16
5.214208E+03	8.009169E-15	1.822301E-16
5.224102E+03	7.992668E-15	1.809029E-16
5.233996E+03	7.977016E-15	1.796245E-16
5.243890E+03	7.961692E-15	1.783859E-16
5.253785E+03	7.946333E-15	1.771818E-16
5.263679E+03	7.930741E-15	1.760109E-16
5.273573E+03	7.914387E-15	1.748645E-16
5.283467E+03	7.897003E-15	1.737396E-16
5.293361E+03	7.878168E-15	1.726303E-16
5.303255E+03	7.857651E-15	1.715346E-16
5.313149E+03	7.835252E-15	1.704511E-16
5.323043E+03	7.810505E-15	1.693726E-16
5.332938E+03	7.783482E-15	1.683034E-16
5.342832E+03	7.753940E-15	1.672408E-16
5.352726E+03	7.722036E-15	1.661892E-16
5.362620E+03	7.687648E-15	1.651435E-16
5.372514E+03	7.651293E-15	1.641115E-16
5.382408E+03	7.613350E-15	1.630979E-16
5.392302E+03	7.574249E-15	1.621081E-16
5.402196E+03	7.534574E-15	1.611510E-16
5.412091E+03	7.494816E-15	1.602331E-16
5.421985E+03	7.455350E-15	1.593588E-16
5.431879E+03	7.416647E-15	1.585344E-16
5.441773E+03	7.379039E-15	1.577632E-16
5.451667E+03	7.342789E-15	1.570473E-16
5.461561E+03	7.308168E-15	1.563890E-16
5.471455E+03	7.275168E-15	1.557849E-16
5.481350E+03	7.244023E-15	1.552367E-16
5.491244E+03	7.214785E-15	1.547425E-16
5.501138E+03	7.187346E-15	1.542969E-16
5.511032E+03	7.161872E-15	1.539007E-16
5.520926E+03	7.138330E-15	1.535505E-16
5.530820E+03	7.116774E-15	1.532448E-16
5.540714E+03	7.097292E-15	1.529832E-16
5.550608E+03	7.080082E-15	1.527674E-16
5.560503E+03	7.065237E-15	1.525975E-16
5.570397E+03	7.053033E-15	1.524771E-16
5.580291E+03	7.043646E-15	1.524081E-16
5.590185E+03	7.037414E-15	1.523960E-16
5.600079E+03	7.034562E-15	1.524438E-16
5.609973E+03	7.035392E-15	1.525563E-16
5.619867E+03	7.040275E-15	1.527400E-16
5.629762E+03	7.049495E-15	1.529994E-16
5.639656E+03	7.063178E-15	1.533357E-16
5.649550E+03	7.081690E-15	1.537554E-16
5.659444E+03	7.105144E-15	1.542593E-16
5.669338E+03	7.133741E-15	1.548503E-16
5.679232E+03	7.167408E-15	1.555253E-16
5.689126E+03	7.206287E-15	1.562857E-16
5.699020E+03	7.250233E-15	1.571267E-16
5.708915E+03	7.299090E-15	1.580435E-16
5.718809E+03	7.352544E-15	1.590275E-16
5.728703E+03	7.410406E-15	1.600730E-16
5.738597E+03	7.472104E-15	1.611660E-16
5.748491E+03	7.537189E-15	1.622951E-16
5.758385E+03	7.604973E-15	1.634440E-16
5.768279E+03	7.674821E-15	1.645976E-16
5.778174E+03	7.745872E-15	1.657361E-16
5.788068E+03	7.817340E-15	1.668417E-16
5.797962E+03	7.888158E-15	1.678907E-16
5.807856E+03	7.957527E-15	1.688656E-16
5.817750E+03	8.024334E-15	1.697425E-16
5.827644E+03	8.087710E-15	1.705033E-16
5.837538E+03	8.146763E-15	1.711298E-16
5.847432E+03	8.200603E-15	1.716044E-16
5.857327E+03	8.248614E-15	1.719158E-16
5.867221E+03	8.290093E-15	1.720514E-16
5.877115E+03	8.324831E-15	1.720094E-16
5.887009E+03	8.352501E-15	1.717859E-16
5.896903E+03	8.373236E-15	1.713869E-16
5.906797E+03	8.387238E-15	1.708201E-16
5.916691E+03	8.395014E-15	1.700996E-16
5.926586E+03	8.397293E-15	1.692440E-16
5.936480E+03	8.395004E-15	1.682761E-16
5.946374E+03	8.389177E-15	1.672202E-16
5.956268E+03	8.381067E-15	1.661051E-16
5.966162E+03	8.372036E-15	1.649613E-16
5.976056E+03	8.363528E-15	1.638203E-16
5.985950E+03	8.356932E-15	1.627123E-16
5.995844E+03	8.353713E-15	1.616684E-16
6.005739E+03	8.355292E-15	1.607182E-16
6.015633E+03	8.362924E-15	1.598880E-16
6.025527E+03	8.377829E-15	1.592027E-16
6.035421E+03	8.400988E-15	1.586827E-16
6.045315E+03	8.433358E-15	1.583476E-16
6.055209E+03	8.475425E-15	1.582083E-16
6.065103E+03	8.527740E-15	1.582771E-16
6.074998E+03	8.590232E-15	1.585549E-16
6.084892E+03	8.662735E-15	1.590417E-16
6.094786E+03	8.744634E-15	1.597298E-16
6.104680E+03	8.834903E-15	1.606049E-16
6.114574E+03	8.932259E-15	1.616491E-16
6.124468E+03	9.034802E-15	1.628344E-16
6.134362E+03	9.140025E-15	1.641232E-16
6.144256E+03	9.245099E-15	1.654730E-16
6.154151E+03	9.346973E-15	1.668387E-16
6.164045E+03	9.442314E-15	1.681706E-16
6.173939E+03	9.527874E-15	1.694210E-16
6.183833E+03	9.600730E-15	1.705480E-16
6.193727E+03	9.658274E-15	1.715147E-16
6.203621E+03	9.698993E-15	1.723025E-16
6.213515E+03	9.722247E-15	1.729071E-16
6.223410E+03	9.729068E-15	1.733522E-16
6.233304E+03	9.721705E-15	1.736816E-16
6.243198E+03	9.703165E-15	1.739483E-16
6.253092E+03	9.677077E-15	1.742106E-16
6.262986E+03	9.647111E-15	1.745267E-16
6.272880E+03	9.617312E-15	1.749627E-16
6.282774E+03	9.591027E-15	1.755727E-16
6.292668E+03	9.571736E-15	1.764153E-16
6.302563E+03	9.561986E-15	1.775335E-16
6.312457E+03	9.564119E-15	1.789684E-16
6.322351E+03	9.580055E-15	1.807551E-16
6.332245E+03	9.610904E-15	1.829152E-16
6.342139E+03	9.657473E-15	1.854659E-16
6.352033E+03	9.719989E-15	1.884145E-16
6.361927E+03	9.798327E-15	1.917621E-16
6.371822E+03	9.891838E-15	1.955000E-16
6.381716E+03	9.999576E-15	1.996135E-16
6.391610E+03	1.012002E-14	2.040759E-16
6.401504E+03	1.025150E-14	2.088568E-16
6.411398E+03	1.039195E-14	2.139162E-16
6.421292E+03	1.053893E-14	2.192045E-16
6.431186E+03	1.069008E-14	2.246721E-16
6.441080E+03	1.084253E-14	2.302564E-16
6.450975E+03	1.099366E-14	2.358972E-16
6.460869E+03	1.114040E-14	2.415226E-16
6.470763E+03	1.127994E-14	2.470637E-16
6.480657E+03	1.140940E-14	2.524467E-16
6.490551E+03	1.152605E-14	2.575995E-16
6.500445E+03	1.162747E-14	2.624539E-16
6.510339E+03	1.171137E-14	2.669429E-16
6.520234E+03	1.177566E-14	2.710023E-16
6.530128E+03	1.181888E-14	2.745805E-16
6.540022E+03	1.183997E-14	2.776348E-16
6.549916E+03	1.183790E-14	2.801227E-16
6.559810E+03	1.181263E-14	2.820246E-16
6.569704E+03	1.176427E-14	2.833256E-16
6.579598E+03	1.169339E-14	2.840217E-16
6.589492E+03	1.160094E-14	2.841205E-16
6.599387E+03	1.148822E-14	2.836388E-16
6.609281E+03	1.135683E-14	2.826030E-16
6.619175E+03	1.120874E-14	2.810506E-16
6.629069E+03	1.104598E-14	2.790231E-16
6.638963E+03	1.087056E-14	2.765633E-16
6.648857E+03	1.068496E-14	2.737280E-16
6.658751E+03	1.049125E-14	2.705664E-16
6.668645E+03	1.029162E-14	2.671320E-16
6.678540E+03	1.008829E-14	2.634813E-16
6.688434E+03	9.883222E-15	2.596658E-16
6.698328E+03	9.678157E-15	2.557327E-16
6.708222E+03	9.474888E-15	2.517318E-16
6.718116E+03	9.274926E-15	2.477064E-16
6.728010E+03	9.079606E-15	2.436962E-16
6.737904E+03	8.890189E-15	2.397397E-16
6.747799E+03	8.707551E-15	2.358653E-16
6.757693E+03	8.532510E-15	2.321003E-16
6.767587E+03	8.365723E-15	2.284678E-16
6.777481E+03	8.207795E-15	2.249895E-16
6.787375E+03	8.059090E-15	2.216806E-16
6.797269E+03	7.919753E-15	2.185502E-16
6.807163E+03	7.790001E-15	2.156089E-16
6.817057E+03	7.669850E-15	2.128618E-16
6.826952E+03	7.559129E-15	2.103083E-16
6.836846E+03	7.457765E-15	2.079502E-16
6.846740E+03	7.365514E-15	2.057844E-16
6.856634E+03	7.281975E-15	2.038026E-16
6.866528E+03	7.206859E-15	2.019998E-16
6.876422E+03	7.139737E-15	2.003663E-16
6.886316E+03	7.080128E-15	1.988908E-16
6.896211E+03	7.027510E-15	1.975604E-16
6.906105E+03	6.981243E-15	1.963587E-16
6.915999E+03	6.940739E-15	1.952705E-16
6.925893E+03	6.905560E-15	1.942846E-16
6.935787E+03	6.874915E-15	1.933795E-16
6.945681E+03	6.848170E-15	1.925384E-16
6.955575E+03	6.824695E-15	1.917441E-16
6.965469E+03	6.803952E-15	1.909822E-16
6.975364E+03	6.785249E-15	1.902338E-16
6.985258E+03	6.768008E-15	1.894834E-16
6.995152E+03	6.751686E-15	1.887165E-16
7.005046E+03	6.735783E-15	1.879200E-16
7.014940E+03	6.719856E-15	1.870822E-16
7.024834E+03	6.703434E-15	1.861911E-16
7.034728E+03	6.686204E-15	1.852392E-16
7.044623E+03	6.667998E-15	1.842232E-16
7.054517E+03	6.648482E-15	1.831353E-16
7.064411E+03	6.627721E-15	1.819788E-16
7.074305E+03	6.605520E-15	1.807502E-16
7.084199E+03	6.581914E-15	1.794523E-16
7.094093E+03	6.556998E-15	1.780896E-16
7.103987E+03	6.530991E-15	1.766701E-16
7.113881E+03	6.503909E-15	1.751964E-16
7.123776E+03	6.475950E-15	1.736759E-16
7.133670E+03	6.447330E-15	1.721167E-16
7.143564E+03	6.418263E-15	1.705266E-16
7.153458E+03	6.388877E-15	1.689112E-16
7.163352E+03	6.359356E-15	1.672778E-16
7.173246E+03	6.329861E-15	1.656329E-16
7.183140E+03	6.300518E-15	1.639819E-16
7.193035E+03	6.271258E-15	1.623255E-16
7.202929E+03	6.242129E-15	1.606673E-16
7.212823E+03	6.213219E-15	1.590123E-16
7.222717E+03	6.184340E-15	1.573581E-16
7.232611E+03	6.155424E-15	1.557058E-16
7.242505E+03	6.126374E-15	1.540558E-16
7.252399E+03	6.097064E-15	1.524081E-16
7.262293E+03	6.067196E-15	1.507585E-16
7.272188E+03	6.036617E-15	1.491065E-16
7.282082E+03	6.005169E-15	1.474519E-16
7.291976E+03	5.972694E-15	1.457945E-16
7.301870E+03	5.938971E-15	1.441330E-16
7.311764E+03	5.903797E-15	1.424662E-16
7.321658E+03	5.867065E-15	1.407960E-16
7.331552E+03	5.828688E-15	1.391244E-16
7.341447E+03	5.788612E-15	1.374543E-16
7.351341E+03	5.746736E-15	1.357877E-16
7.361235E+03	5.702988E-15	1.341270E-16
7.371129E+03	5.657543E-15	1.324806E-16
7.381023E+03	5.610387E-15	1.308520E-16
7.390917E+03	5.561672E-15	1.292487E-16
7.400811E+03	5.511503E-15	1.276767E-16
7.410705E+03	5.460004E-15	1.261423E-16
7.420600E+03	5.407390E-15	1.246536E-16
7.430494E+03	5.353823E-15	1.232172E-16
7.440388E+03	5.299477E-15	1.218396E-16
7.450282E+03	5.244612E-15	1.205290E-16
7.460176E+03	5.189432E-15	1.192921E-16
7.470070E+03	5.134217E-15	1.181369E-16
7.479964E+03	5.079129E-15	1.170685E-16
7.489859E+03	5.024539E-15	1.160963E-16
7.499753E+03	4.970632E-15	1.152254E-16
7.509647E+03	4.917736E-15	1.144639E-16
7.519541E+03	4.866125E-15	1.138185E-16
7.529435E+03	4.816151E-15	1.132975E-16
7.539329E+03	4.768051E-15	1.129052E-16
7.549223E+03	4.722140E-15	1.126454E-16
7.559117E+03	4.678870E-15	1.125259E-16
7.569012E+03	4.638521E-15	1.125503E-16
7.578906E+03	4.601509E-15	1.127265E-16
7.588800E+03	4.568075E-15	1.130582E-16
7.598694E+03	4.538761E-15	1.135577E-16
7.608588E+03	4.513794E-15	1.142298E-16
7.618482E+03	4.493528E-15	1.150837E-16
7.628376E+03	4.478151E-15	1.161247E-16
7.638271E+03	4.467528E-15	1.173508E-16
7.648165E+03	4.461434E-15	1.187576E-16
7.658059E+03	4.459297E-15	1.203314E-16
7.667953E+03	4.460740E-15	1.220636E-16
7.677847E+03	4.465146E-15	1.239385E-16
