#wls	flux	fluxerr
1.583061E+03	3.562198E-15	3.286415E-16
1.622638E+03	3.658498E-15	3.332277E-16
1.662214E+03	3.754246E-15	3.375097E-16
1.701791E+03	3.848193E-15	3.413798E-16
1.741367E+03	3.940241E-15	3.448379E-16
1.780944E+03	4.028648E-15	3.477430E-16
1.820520E+03	4.111663E-15	3.499625E-16
1.860097E+03	4.185195E-15	3.511764E-16
1.899673E+03	4.246126E-15	3.511660E-16
1.939250E+03	4.290555E-15	3.496645E-16
1.978827E+03	4.316897E-15	3.466103E-16
2.018403E+03	4.326721E-15	3.421991E-16
2.057980E+03	4.327463E-15	3.370765E-16
2.097556E+03	4.335981E-15	3.325747E-16
2.137133E+03	4.368696E-15	3.299134E-16
2.176709E+03	4.438416E-15	3.299636E-16
2.216286E+03	4.546524E-15	3.326988E-16
2.255862E+03	4.689098E-15	3.377060E-16
2.295439E+03	4.855347E-15	3.441042E-16
2.335015E+03	5.038676E-15	3.513533E-16
2.374592E+03	5.232432E-15	3.589396E-16
2.414168E+03	5.432380E-15	3.665432E-16
2.453745E+03	5.635262E-15	3.739283E-16
2.493321E+03	5.835872E-15	3.807473E-16
2.532898E+03	6.028011E-15	3.866119E-16
2.572475E+03	6.205702E-15	3.911757E-16
2.612051E+03	6.365094E-15	3.942506E-16
2.651628E+03	6.506204E-15	3.959007E-16
2.691204E+03	6.631420E-15	3.963308E-16
2.730781E+03	6.746245E-15	3.959108E-16
2.770357E+03	6.859787E-15	3.951904E-16
2.809934E+03	6.979189E-15	3.945694E-16
2.849510E+03	7.111031E-15	3.943865E-16
2.889087E+03	7.264275E-15	3.950823E-16
2.928663E+03	7.445173E-15	3.969157E-16
2.968240E+03	7.660660E-15	4.001554E-16
2.978134E+03	7.720916E-15	4.012225E-16
2.988028E+03	7.783767E-15	4.023905E-16
2.997922E+03	7.849288E-15	4.036609E-16
3.007816E+03	7.917572E-15	4.050365E-16
3.017710E+03	7.988757E-15	4.065221E-16
3.027605E+03	8.064043E-15	4.081760E-16
3.037499E+03	8.142456E-15	4.099458E-16
3.047393E+03	8.224053E-15	4.118320E-16
3.057287E+03	8.310100E-15	4.138950E-16
3.067181E+03	8.399548E-15	4.160792E-16
3.077075E+03	8.493499E-15	4.184365E-16
3.086969E+03	8.590909E-15	4.209118E-16
3.096864E+03	8.692874E-15	4.235560E-16
3.106758E+03	8.799416E-15	4.263664E-16
3.116652E+03	8.909454E-15	4.292875E-16
3.126546E+03	9.025162E-15	4.324207E-16
3.136440E+03	9.144362E-15	4.356578E-16
3.146334E+03	9.268099E-15	4.390455E-16
3.156228E+03	9.396335E-15	4.425787E-16
3.166122E+03	9.528999E-15	4.462505E-16
3.176017E+03	9.667093E-15	4.501043E-16
3.185911E+03	9.809389E-15	4.540791E-16
3.195805E+03	9.955699E-15	4.581631E-16
3.205699E+03	1.010581E-14	4.623438E-16
3.215593E+03	1.026058E-14	4.666571E-16
3.225487E+03	1.041970E-14	4.710861E-16
3.235381E+03	1.058163E-14	4.755580E-16
3.245276E+03	1.074705E-14	4.801021E-16
3.255170E+03	1.091543E-14	4.846915E-16
3.265064E+03	1.108613E-14	4.892974E-16
3.274958E+03	1.125844E-14	4.938862E-16
3.284852E+03	1.143151E-14	4.984209E-16
3.294746E+03	1.160560E-14	5.029124E-16
3.304640E+03	1.177730E-14	5.072134E-16
3.314534E+03	1.194897E-14	5.114288E-16
3.324429E+03	1.211699E-14	5.154042E-16
3.334323E+03	1.227994E-14	5.190839E-16
3.344217E+03	1.243871E-14	5.225099E-16
3.354111E+03	1.258930E-14	5.255197E-16
3.364005E+03	1.273243E-14	5.281504E-16
3.373899E+03	1.286397E-14	5.302386E-16
3.383793E+03	1.298451E-14	5.318185E-16
3.393688E+03	1.309225E-14	5.328262E-16
3.403582E+03	1.318422E-14	5.331532E-16
3.413476E+03	1.325989E-14	5.327905E-16
3.423370E+03	1.331760E-14	5.316863E-16
3.433264E+03	1.335468E-14	5.297486E-16
3.443158E+03	1.337189E-14	5.270246E-16
3.453052E+03	1.336767E-14	5.234684E-16
3.462946E+03	1.333877E-14	5.189702E-16
3.472841E+03	1.328826E-14	5.136664E-16
3.482735E+03	1.321442E-14	5.075064E-16
3.492629E+03	1.311927E-14	5.005842E-16
3.502523E+03	1.300413E-14	4.929647E-16
3.512417E+03	1.287068E-14	4.847254E-16
3.522311E+03	1.272079E-14	4.759486E-16
3.532205E+03	1.255743E-14	4.667560E-16
3.542100E+03	1.238267E-14	4.572334E-16
3.551994E+03	1.219860E-14	4.474647E-16
3.561888E+03	1.200732E-14	4.375326E-16
3.571782E+03	1.181086E-14	4.275150E-16
3.581676E+03	1.161117E-14	4.174848E-16
3.591570E+03	1.141083E-14	4.075359E-16
3.601464E+03	1.121077E-14	3.977006E-16
3.611358E+03	1.101324E-14	3.880580E-16
3.621253E+03	1.082027E-14	3.786768E-16
3.631147E+03	1.063175E-14	3.695487E-16
3.641041E+03	1.045008E-14	3.607533E-16
3.650935E+03	1.027557E-14	3.522961E-16
3.660829E+03	1.010964E-14	3.442193E-16
3.670723E+03	9.952904E-15	3.365380E-16
3.680617E+03	9.805853E-15	3.292615E-16
3.690512E+03	9.668774E-15	3.223924E-16
3.700406E+03	9.541761E-15	3.159266E-16
3.710300E+03	9.425243E-15	3.098711E-16
3.720194E+03	9.318525E-15	3.041956E-16
3.730088E+03	9.222254E-15	2.989144E-16
3.739982E+03	9.135129E-15	2.939782E-16
3.749876E+03	9.057245E-15	2.893839E-16
3.759770E+03	8.988173E-15	2.851115E-16
3.769665E+03	8.927906E-15	2.811549E-16
3.779559E+03	8.875977E-15	2.774937E-16
3.789453E+03	8.831114E-15	2.740830E-16
3.799347E+03	8.794027E-15	2.709400E-16
3.809241E+03	8.763809E-15	2.680322E-16
3.819135E+03	8.739579E-15	2.653286E-16
3.829029E+03	8.721553E-15	2.628322E-16
3.838924E+03	8.708500E-15	2.605024E-16
3.848818E+03	8.700624E-15	2.583427E-16
3.858712E+03	8.697431E-15	2.563356E-16
3.868606E+03	8.697808E-15	2.544463E-16
3.878500E+03	8.702007E-15	2.526806E-16
3.888394E+03	8.709648E-15	2.510257E-16
3.898288E+03	8.720084E-15	2.494621E-16
3.908182E+03	8.733336E-15	2.479893E-16
3.918077E+03	8.749144E-15	2.465994E-16
3.927971E+03	8.766990E-15	2.452774E-16
3.937865E+03	8.786687E-15	2.440180E-16
3.947759E+03	8.808636E-15	2.428324E-16
3.957653E+03	8.831843E-15	2.416934E-16
3.967547E+03	8.856753E-15	2.406138E-16
3.977441E+03	8.883257E-15	2.395910E-16
3.987336E+03	8.911003E-15	2.386164E-16
3.997230E+03	8.939916E-15	2.376889E-16
4.007124E+03	8.969916E-15	2.368073E-16
4.017018E+03	9.000894E-15	2.359702E-16
4.026912E+03	9.032728E-15	2.351756E-16
4.036806E+03	9.064993E-15	2.344141E-16
4.046700E+03	9.097755E-15	2.336893E-16
4.056594E+03	9.130525E-15	2.329904E-16
4.066489E+03	9.162849E-15	2.323081E-16
4.076383E+03	9.194723E-15	2.316449E-16
4.086277E+03	9.225736E-15	2.309928E-16
4.096171E+03	9.255731E-15	2.303508E-16
4.106065E+03	9.284614E-15	2.297193E-16
4.115959E+03	9.311965E-15	2.290908E-16
4.125853E+03	9.338041E-15	2.284746E-16
4.135748E+03	9.362774E-15	2.278721E-16
4.145642E+03	9.386330E-15	2.272900E-16
4.155536E+03	9.408722E-15	2.267316E-16
4.165430E+03	9.429954E-15	2.261997E-16
4.175324E+03	9.450246E-15	2.257023E-16
4.185218E+03	9.469755E-15	2.252456E-16
4.195112E+03	9.488216E-15	2.248258E-16
4.205006E+03	9.505697E-15	2.244471E-16
4.214901E+03	9.522006E-15	2.241072E-16
4.224795E+03	9.537094E-15	2.238072E-16
4.234689E+03	9.550473E-15	2.235381E-16
4.244583E+03	9.562160E-15	2.233017E-16
4.254477E+03	9.571397E-15	2.230792E-16
4.264371E+03	9.577861E-15	2.228613E-16
4.274265E+03	9.581066E-15	2.226343E-16
4.284159E+03	9.580032E-15	2.223732E-16
4.294054E+03	9.574087E-15	2.220597E-16
4.303948E+03	9.562339E-15	2.216707E-16
4.313842E+03	9.544246E-15	2.211905E-16
4.323736E+03	9.519623E-15	2.206117E-16
4.333630E+03	9.488366E-15	2.199287E-16
4.343524E+03	9.450322E-15	2.191342E-16
4.353418E+03	9.406161E-15	2.182402E-16
4.363313E+03	9.356314E-15	2.172530E-16
4.373207E+03	9.301524E-15	2.161859E-16
4.383101E+03	9.242636E-15	2.150547E-16
4.392995E+03	9.180581E-15	2.138775E-16
4.402889E+03	9.116147E-15	2.126689E-16
4.412783E+03	9.050527E-15	2.114532E-16
4.422677E+03	8.984529E-15	2.102462E-16
4.432571E+03	8.919098E-15	2.090669E-16
4.442466E+03	8.854897E-15	2.079280E-16
4.452360E+03	8.792181E-15	2.068328E-16
4.462254E+03	8.731686E-15	2.057963E-16
4.472148E+03	8.673404E-15	2.048160E-16
4.482042E+03	8.617710E-15	2.038988E-16
4.491936E+03	8.564426E-15	2.030385E-16
4.501830E+03	8.513679E-15	2.022364E-16
4.511725E+03	8.465555E-15	2.014928E-16
4.521619E+03	8.420004E-15	2.008050E-16
4.531513E+03	8.376977E-15	2.001705E-16
4.541407E+03	8.336428E-15	1.995867E-16
4.551301E+03	8.298431E-15	1.990543E-16
4.561195E+03	8.262966E-15	1.985715E-16
4.571089E+03	8.230030E-15	1.981372E-16
4.580983E+03	8.199737E-15	1.977532E-16
4.590878E+03	8.172115E-15	1.974192E-16
4.600772E+03	8.147303E-15	1.971377E-16
4.610666E+03	8.125440E-15	1.969113E-16
4.620560E+03	8.106469E-15	1.967378E-16
4.630454E+03	8.090527E-15	1.966198E-16
4.640348E+03	8.077738E-15	1.965599E-16
4.650242E+03	8.068211E-15	1.965599E-16
4.660137E+03	8.061832E-15	1.966165E-16
4.670031E+03	8.058755E-15	1.967329E-16
4.679925E+03	8.058800E-15	1.969041E-16
4.689819E+03	8.062041E-15	1.971314E-16
4.699713E+03	8.068204E-15	1.974074E-16
4.709607E+03	8.077149E-15	1.977283E-16
4.719501E+03	8.088575E-15	1.980861E-16
4.729395E+03	8.102111E-15	1.984709E-16
4.739290E+03	8.117511E-15	1.988764E-16
4.749184E+03	8.134086E-15	1.992851E-16
4.759078E+03	8.151488E-15	1.996877E-16
4.768972E+03	8.169142E-15	2.000699E-16
4.778866E+03	8.186453E-15	2.004164E-16
4.788760E+03	8.202815E-15	2.007121E-16
4.798654E+03	8.217626E-15	2.009420E-16
4.808549E+03	8.230397E-15	2.010938E-16
4.818443E+03	8.240575E-15	2.011540E-16
4.828337E+03	8.247656E-15	2.011104E-16
4.838231E+03	8.251284E-15	2.009544E-16
4.848125E+03	8.250884E-15	2.006724E-16
4.858019E+03	8.246330E-15	2.002618E-16
4.867913E+03	8.237382E-15	1.997175E-16
4.877807E+03	8.223880E-15	1.990365E-16
4.887702E+03	8.205849E-15	1.982202E-16
4.897596E+03	8.183132E-15	1.972662E-16
4.907490E+03	8.156047E-15	1.961831E-16
4.917384E+03	8.124822E-15	1.949780E-16
4.927278E+03	8.089680E-15	1.936576E-16
4.937172E+03	8.051170E-15	1.922364E-16
4.947066E+03	8.009517E-15	1.907215E-16
4.956961E+03	7.965329E-15	1.891287E-16
4.966855E+03	7.918954E-15	1.874679E-16
4.976749E+03	7.870838E-15	1.857512E-16
4.986643E+03	7.821511E-15	1.839924E-16
4.996537E+03	7.771329E-15	1.822015E-16
5.006431E+03	7.720812E-15	1.803919E-16
5.016325E+03	7.670387E-15	1.785748E-16
5.026219E+03	7.620392E-15	1.767595E-16
5.036114E+03	7.571331E-15	1.749587E-16
5.046008E+03	7.523617E-15	1.731828E-16
5.055902E+03	7.477656E-15	1.714423E-16
5.065796E+03	7.433842E-15	1.697470E-16
5.075690E+03	7.392541E-15	1.681058E-16
5.085584E+03	7.354082E-15	1.665269E-16
5.095478E+03	7.318732E-15	1.650169E-16
5.105373E+03	7.286692E-15	1.635807E-16
5.115267E+03	7.258071E-15	1.622212E-16
5.125161E+03	7.232892E-15	1.609393E-16
5.135055E+03	7.211086E-15	1.597338E-16
5.144949E+03	7.192507E-15	1.586019E-16
5.154843E+03	7.176941E-15	1.575395E-16
5.164737E+03	7.164120E-15	1.565413E-16
5.174631E+03	7.153746E-15	1.556014E-16
5.184526E+03	7.145572E-15	1.547154E-16
5.194420E+03	7.139112E-15	1.538738E-16
5.204314E+03	7.134109E-15	1.530719E-16
5.214208E+03	7.130227E-15	1.523041E-16
5.224102E+03	7.127137E-15	1.515645E-16
5.233996E+03	7.124435E-15	1.508461E-16
5.243890E+03	7.121941E-15	1.501467E-16
5.253785E+03	7.119176E-15	1.494579E-16
5.263679E+03	7.115890E-15	1.487762E-16
5.273573E+03	7.111683E-15	1.480953E-16
5.283467E+03	7.106312E-15	1.474120E-16
5.293361E+03	7.099481E-15	1.467221E-16
5.303255E+03	7.090843E-15	1.460205E-16
5.313149E+03	7.080231E-15	1.453058E-16
5.323043E+03	7.067373E-15	1.445744E-16
5.332938E+03	7.052122E-15	1.438252E-16
5.342832E+03	7.034460E-15	1.430597E-16
5.352726E+03	7.014283E-15	1.422775E-16
5.362620E+03	6.991571E-15	1.414784E-16
5.372514E+03	6.966637E-15	1.406673E-16
5.382408E+03	6.939722E-15	1.398473E-16
5.392302E+03	6.911136E-15	1.390229E-16
5.402196E+03	6.881424E-15	1.382033E-16
5.412091E+03	6.850860E-15	1.373918E-16
5.421985E+03	6.819843E-15	1.365946E-16
5.431879E+03	6.788814E-15	1.358184E-16
5.441773E+03	6.758111E-15	1.350680E-16
5.451667E+03	6.727958E-15	1.343459E-16
5.461561E+03	6.698605E-15	1.336549E-16
5.471455E+03	6.670317E-15	1.329985E-16
5.481350E+03	6.643117E-15	1.323754E-16
5.491244E+03	6.617327E-15	1.317899E-16
5.501138E+03	6.592908E-15	1.312395E-16
5.511032E+03	6.570006E-15	1.307255E-16
5.520926E+03	6.548637E-15	1.302466E-16
5.530820E+03	6.529024E-15	1.298054E-16
5.540714E+03	6.511157E-15	1.294004E-16
5.550608E+03	6.495252E-15	1.290342E-16
5.560503E+03	6.481564E-15	1.287107E-16
5.570397E+03	6.470197E-15	1.284303E-16
5.580291E+03	6.461546E-15	1.281997E-16
5.590185E+03	6.455786E-15	1.280211E-16
5.600079E+03	6.453368E-15	1.279021E-16
5.609973E+03	6.454504E-15	1.278457E-16
5.619867E+03	6.459657E-15	1.278600E-16
5.629762E+03	6.469024E-15	1.279475E-16
5.639656E+03	6.482967E-15	1.281143E-16
5.649550E+03	6.501746E-15	1.283643E-16
5.659444E+03	6.525570E-15	1.287004E-16
5.669338E+03	6.554521E-15	1.291230E-16
5.679232E+03	6.588735E-15	1.296335E-16
5.689126E+03	6.628132E-15	1.302292E-16
5.699020E+03	6.672668E-15	1.309078E-16
5.708915E+03	6.721999E-15	1.316613E-16
5.718809E+03	6.775936E-15	1.324846E-16
5.728703E+03	6.833980E-15	1.333670E-16
5.738597E+03	6.895590E-15	1.342964E-16
5.748491E+03	6.960121E-15	1.352592E-16
5.758385E+03	7.026762E-15	1.362386E-16
5.768279E+03	7.094755E-15	1.372190E-16
5.778174E+03	7.163135E-15	1.381809E-16
5.788068E+03	7.230948E-15	1.391055E-16
5.797962E+03	7.297271E-15	1.399747E-16
5.807856E+03	7.360961E-15	1.407665E-16
5.817750E+03	7.421084E-15	1.414633E-16
5.827644E+03	7.476682E-15	1.420474E-16
5.837538E+03	7.526790E-15	1.425016E-16
5.847432E+03	7.570615E-15	1.428120E-16
5.857327E+03	7.607577E-15	1.429695E-16
5.867221E+03	7.637044E-15	1.429640E-16
5.877115E+03	7.658878E-15	1.427953E-16
5.887009E+03	7.672801E-15	1.424607E-16
5.896903E+03	7.679215E-15	1.419705E-16
5.906797E+03	7.678335E-15	1.413314E-16
5.916691E+03	7.670984E-15	1.405617E-16
5.926586E+03	7.657995E-15	1.396794E-16
5.936480E+03	7.640475E-15	1.387075E-16
5.946374E+03	7.619629E-15	1.376707E-16
5.956268E+03	7.596943E-15	1.365981E-16
5.966162E+03	7.573920E-15	1.355190E-16
5.976056E+03	7.552042E-15	1.344617E-16
5.985950E+03	7.532809E-15	1.334545E-16
5.995844E+03	7.517912E-15	1.325285E-16
6.005739E+03	7.508698E-15	1.317085E-16
6.015633E+03	7.506645E-15	1.310209E-16
6.025527E+03	7.512969E-15	1.304875E-16
6.035421E+03	7.528822E-15	1.301285E-16
6.045315E+03	7.555180E-15	1.299609E-16
6.055209E+03	7.592749E-15	1.299973E-16
6.065103E+03	7.642066E-15	1.302470E-16
6.074998E+03	7.703398E-15	1.307153E-16
6.084892E+03	7.776681E-15	1.314021E-16
6.094786E+03	7.861401E-15	1.322999E-16
6.104680E+03	7.956824E-15	1.333985E-16
6.114574E+03	8.061557E-15	1.346772E-16
6.124468E+03	8.173629E-15	1.361065E-16
6.134362E+03	8.290264E-15	1.376444E-16
6.144256E+03	8.408330E-15	1.392439E-16
6.154151E+03	8.523787E-15	1.408441E-16
6.164045E+03	8.632072E-15	1.423758E-16
6.173939E+03	8.728266E-15	1.437648E-16
6.183833E+03	8.807126E-15	1.449314E-16
6.193727E+03	8.863987E-15	1.458051E-16
6.203621E+03	8.894991E-15	1.463282E-16
6.213515E+03	8.898894E-15	1.464841E-16
6.223410E+03	8.878486E-15	1.463215E-16
6.233304E+03	8.839045E-15	1.459287E-16
6.243198E+03	8.786853E-15	1.454095E-16
6.253092E+03	8.728329E-15	1.448671E-16
6.262986E+03	8.669678E-15	1.443991E-16
6.272880E+03	8.616049E-15	1.440866E-16
6.282774E+03	8.572092E-15	1.440040E-16
6.292668E+03	8.541402E-15	1.442095E-16
6.302563E+03	8.526645E-15	1.447474E-16
6.312457E+03	8.530060E-15	1.456562E-16
6.322351E+03	8.552774E-15	1.469572E-16
6.332245E+03	8.595565E-15	1.486666E-16
6.342139E+03	8.658680E-15	1.507925E-16
6.352033E+03	8.741802E-15	1.533340E-16
6.361927E+03	8.844170E-15	1.562826E-16
6.371822E+03	8.964698E-15	1.596242E-16
6.381716E+03	9.101899E-15	1.633374E-16
6.391610E+03	9.253894E-15	1.673929E-16
6.401504E+03	9.418332E-15	1.717522E-16
6.411398E+03	9.592615E-15	1.763708E-16
6.421292E+03	9.773974E-15	1.811996E-16
6.431186E+03	9.959149E-15	1.861785E-16
6.441080E+03	1.014510E-14	1.912497E-16
6.450975E+03	1.032831E-14	1.963438E-16
6.460869E+03	1.050567E-14	2.013972E-16
6.470763E+03	1.067439E-14	2.063502E-16
6.480657E+03	1.083135E-14	2.111349E-16
6.490551E+03	1.097418E-14	2.156958E-16
6.500445E+03	1.110034E-14	2.199725E-16
6.510339E+03	1.120755E-14	2.239078E-16
6.520234E+03	1.129408E-14	2.274549E-16
6.530128E+03	1.135827E-14	2.305668E-16
6.540022E+03	1.139894E-14	2.332055E-16
6.549916E+03	1.141541E-14	2.353428E-16
6.559810E+03	1.140738E-14	2.369585E-16
6.569704E+03	1.137520E-14	2.380459E-16
6.579598E+03	1.131934E-14	2.386014E-16
6.589492E+03	1.124076E-14	2.386325E-16
6.599387E+03	1.114087E-14	2.381580E-16
6.609281E+03	1.102126E-14	2.372009E-16
6.619175E+03	1.088360E-14	2.357882E-16
6.629069E+03	1.073013E-14	2.339599E-16
6.638963E+03	1.056271E-14	2.317503E-16
6.648857E+03	1.038362E-14	2.292041E-16
6.658751E+03	1.019507E-14	2.263657E-16
6.668645E+03	9.999222E-15	2.232806E-16
6.678540E+03	9.798215E-15	2.199947E-16
6.688434E+03	9.594191E-15	2.165554E-16
6.698328E+03	9.388968E-15	2.130043E-16
6.708222E+03	9.184440E-15	2.093856E-16
6.718116E+03	8.982129E-15	2.057359E-16
6.728010E+03	8.783493E-15	2.020911E-16
6.737904E+03	8.590003E-15	1.984881E-16
6.747799E+03	8.402548E-15	1.949508E-16
6.757693E+03	8.222046E-15	1.915042E-16
6.767587E+03	8.049434E-15	1.881740E-16
6.777481E+03	7.885112E-15	1.849732E-16
6.787375E+03	7.729618E-15	1.819186E-16
6.797269E+03	7.583267E-15	1.790212E-16
6.807163E+03	7.446265E-15	1.762896E-16
6.817057E+03	7.318711E-15	1.737297E-16
6.826952E+03	7.200608E-15	1.713451E-16
6.836846E+03	7.091783E-15	1.691345E-16
6.846740E+03	6.992217E-15	1.671006E-16
6.856634E+03	6.901468E-15	1.652353E-16
6.866528E+03	6.819344E-15	1.635366E-16
6.876422E+03	6.745257E-15	1.619925E-16
6.886316E+03	6.678879E-15	1.605969E-16
6.896211E+03	6.619510E-15	1.593348E-16
6.906105E+03	6.566651E-15	1.581957E-16
6.915999E+03	6.519691E-15	1.571660E-16
6.925893E+03	6.477991E-15	1.562315E-16
6.935787E+03	6.440818E-15	1.553754E-16
6.945681E+03	6.407661E-15	1.545864E-16
6.955575E+03	6.377696E-15	1.538453E-16
6.965469E+03	6.350264E-15	1.531370E-16
6.975364E+03	6.324876E-15	1.524503E-16
6.985258E+03	6.300684E-15	1.517655E-16
6.995152E+03	6.277334E-15	1.510749E-16
7.005046E+03	6.254062E-15	1.503609E-16
7.014940E+03	6.230538E-15	1.496162E-16
7.024834E+03	6.206345E-15	1.488320E-16
7.034728E+03	6.180993E-15	1.479974E-16
7.044623E+03	6.154380E-15	1.471111E-16
7.054517E+03	6.126268E-15	1.461687E-16
7.064411E+03	6.096585E-15	1.451697E-16
7.074305E+03	6.065261E-15	1.441140E-16
7.084199E+03	6.032526E-15	1.430083E-16
7.094093E+03	5.998367E-15	1.418539E-16
7.103987E+03	5.963111E-15	1.406601E-16
7.113881E+03	5.926740E-15	1.394280E-16
7.123776E+03	5.889698E-15	1.381697E-16
7.133670E+03	5.852064E-15	1.368886E-16
7.143564E+03	5.814061E-15	1.355916E-16
7.153458E+03	5.775976E-15	1.342868E-16
7.163352E+03	5.737927E-15	1.329788E-16
7.173246E+03	5.700088E-15	1.316730E-16
7.183140E+03	5.662669E-15	1.303759E-16
7.193035E+03	5.625635E-15	1.290884E-16
7.202929E+03	5.589193E-15	1.278166E-16
7.212823E+03	5.553298E-15	1.265613E-16
7.222717E+03	5.517864E-15	1.253221E-16
7.232611E+03	5.482974E-15	1.241027E-16
7.242505E+03	5.448400E-15	1.228995E-16
7.252399E+03	5.414095E-15	1.217133E-16
7.262293E+03	5.379927E-15	1.205430E-16
7.272188E+03	5.345753E-15	1.193873E-16
7.282082E+03	5.311436E-15	1.182451E-16
7.291976E+03	5.276782E-15	1.171141E-16
7.301870E+03	5.241751E-15	1.159955E-16
7.311764E+03	5.206257E-15	1.148893E-16
7.321658E+03	5.170238E-15	1.137964E-16
7.331552E+03	5.133659E-15	1.127181E-16
7.341447E+03	5.096449E-15	1.116547E-16
7.351341E+03	5.058754E-15	1.106115E-16
7.361235E+03	5.020618E-15	1.095915E-16
7.371129E+03	4.982044E-15	1.085966E-16
7.381023E+03	4.943191E-15	1.076321E-16
7.390917E+03	4.904042E-15	1.066993E-16
7.400811E+03	4.864785E-15	1.058040E-16
7.410705E+03	4.825553E-15	1.049508E-16
7.420600E+03	4.786418E-15	1.041426E-16
7.430494E+03	4.747573E-15	1.033850E-16
7.440388E+03	4.709089E-15	1.026809E-16
7.450282E+03	4.671159E-15	1.020358E-16
7.460176E+03	4.633865E-15	1.014525E-16
7.470070E+03	4.597362E-15	1.009355E-16
7.479964E+03	4.561815E-15	1.004894E-16
7.489859E+03	4.527389E-15	1.001188E-16
7.499753E+03	4.494305E-15	9.982964E-17
7.509647E+03	4.462600E-15	9.962349E-17
7.519541E+03	4.432531E-15	9.950702E-17
7.529435E+03	4.404166E-15	9.948201E-17
7.539329E+03	4.377609E-15	9.954970E-17
7.549223E+03	4.352944E-15	9.971075E-17
7.559117E+03	4.330276E-15	9.996650E-17
7.569012E+03	4.309503E-15	1.003136E-16
7.578906E+03	4.290644E-15	1.007516E-16
7.588800E+03	4.273667E-15	1.012789E-16
7.598694E+03	4.258385E-15	1.018902E-16
7.608588E+03	4.244581E-15	1.025797E-16
7.618482E+03	4.232198E-15	1.033449E-16
7.628376E+03	4.221081E-15	1.041814E-16
7.638271E+03	4.211018E-15	1.050830E-16
7.648165E+03	4.202070E-15	1.060504E-16
7.658059E+03	4.194104E-15	1.070793E-16
7.667953E+03	4.187215E-15	1.081713E-16
7.677847E+03	4.181375E-15	1.093251E-16
