#wls	flux	fluxerr
1.583061E+03	3.646222E-15	3.344735E-16
1.622638E+03	3.743059E-15	3.388231E-16
1.662214E+03	3.838609E-15	3.427997E-16
1.701791E+03	3.932350E-15	3.463645E-16
1.741367E+03	4.025016E-15	3.495911E-16
1.780944E+03	4.114129E-15	3.522752E-16
1.820520E+03	4.197932E-15	3.542866E-16
1.860097E+03	4.272246E-15	3.553028E-16
1.899673E+03	4.333831E-15	3.550998E-16
1.939250E+03	4.378561E-15	3.533986E-16
1.978827E+03	4.404581E-15	3.501216E-16
2.018403E+03	4.413199E-15	3.454473E-16
2.057980E+03	4.412574E-15	3.400761E-16
2.097556E+03	4.418060E-15	3.352146E-16
2.137133E+03	4.447241E-15	3.321627E-16
2.176709E+03	4.514097E-15	3.318696E-16
2.216286E+03	4.619330E-15	3.342574E-16
2.255862E+03	4.758234E-15	3.388625E-16
2.295439E+03	4.922681E-15	3.450050E-16
2.335015E+03	5.103573E-15	3.519729E-16
2.374592E+03	5.295283E-15	3.593319E-16
2.414168E+03	5.494631E-15	3.668363E-16
2.453745E+03	5.696290E-15	3.741140E-16
2.493321E+03	5.895484E-15	3.808519E-16
2.532898E+03	6.085068E-15	3.866074E-16
2.572475E+03	6.256790E-15	3.908989E-16
2.612051E+03	6.407849E-15	3.936145E-16
2.651628E+03	6.537192E-15	3.947594E-16
2.691204E+03	6.647038E-15	3.945353E-16
2.730781E+03	6.745065E-15	3.934431E-16
2.770357E+03	6.840242E-15	3.920228E-16
2.809934E+03	6.940294E-15	3.907073E-16
2.849510E+03	7.054149E-15	3.899659E-16
2.889087E+03	7.187700E-15	3.900679E-16
2.928663E+03	7.349225E-15	3.913867E-16
2.968240E+03	7.543542E-15	3.940829E-16
2.978134E+03	7.598798E-15	3.950407E-16
2.988028E+03	7.655640E-15	3.960516E-16
2.997922E+03	7.716203E-15	3.972244E-16
3.007816E+03	7.779555E-15	3.985084E-16
3.017710E+03	7.845840E-15	3.999088E-16
3.027605E+03	7.915205E-15	4.014307E-16
3.037499E+03	7.988768E-15	4.031283E-16
3.047393E+03	8.065576E-15	4.049505E-16
3.057287E+03	8.145817E-15	4.069041E-16
3.067181E+03	8.229524E-15	4.089884E-16
3.077075E+03	8.318846E-15	4.113067E-16
3.086969E+03	8.410663E-15	4.137015E-16
3.096864E+03	8.508186E-15	4.163279E-16
3.106758E+03	8.608272E-15	4.190289E-16
3.116652E+03	8.714127E-15	4.219575E-16
3.126546E+03	8.823652E-15	4.250085E-16
3.136440E+03	8.939011E-15	4.282829E-16
3.146334E+03	9.058044E-15	4.316732E-16
3.156228E+03	9.181808E-15	4.352271E-16
3.166122E+03	9.310270E-15	4.389395E-16
3.176017E+03	9.444457E-15	4.428551E-16
3.185911E+03	9.582079E-15	4.468630E-16
3.195805E+03	9.725214E-15	4.510572E-16
3.205699E+03	9.873699E-15	4.554262E-16
3.215593E+03	1.002619E-14	4.599048E-16
3.225487E+03	1.018242E-14	4.644775E-16
3.235381E+03	1.034315E-14	4.691771E-16
3.245276E+03	1.050798E-14	4.739820E-16
3.255170E+03	1.067527E-14	4.788162E-16
3.265064E+03	1.084673E-14	4.837541E-16
3.274958E+03	1.102051E-14	4.887120E-16
3.284852E+03	1.119468E-14	4.936027E-16
3.294746E+03	1.137178E-14	4.985381E-16
3.304640E+03	1.154731E-14	5.033206E-16
3.314534E+03	1.172242E-14	5.080021E-16
3.324429E+03	1.189464E-14	5.124770E-16
3.334323E+03	1.206492E-14	5.167886E-16
3.344217E+03	1.222932E-14	5.207721E-16
3.354111E+03	1.238735E-14	5.244116E-16
3.364005E+03	1.253725E-14	5.276388E-16
3.373899E+03	1.267713E-14	5.303815E-16
3.383793E+03	1.280625E-14	5.326175E-16
3.393688E+03	1.292147E-14	5.342257E-16
3.403582E+03	1.302202E-14	5.351857E-16
3.413476E+03	1.310598E-14	5.354307E-16
3.423370E+03	1.317037E-14	5.348532E-16
3.433264E+03	1.321574E-14	5.334907E-16
3.443158E+03	1.323929E-14	5.312446E-16
3.453052E+03	1.323933E-14	5.280646E-16
3.462946E+03	1.321472E-14	5.239224E-16
3.472841E+03	1.316634E-14	5.188691E-16
3.482735E+03	1.309468E-14	5.129403E-16
3.492629E+03	1.300079E-14	5.061925E-16
3.502523E+03	1.288611E-14	4.986970E-16
3.512417E+03	1.275344E-14	4.905746E-16
3.522311E+03	1.260288E-14	4.818414E-16
3.532205E+03	1.243856E-14	4.726656E-16
3.542100E+03	1.226269E-14	4.631396E-16
3.551994E+03	1.207753E-14	4.533555E-16
3.561888E+03	1.188530E-14	4.434014E-16
3.571782E+03	1.168813E-14	4.333608E-16
3.581676E+03	1.148883E-14	4.233398E-16
3.591570E+03	1.128846E-14	4.133782E-16
3.601464E+03	1.108951E-14	4.035660E-16
3.611358E+03	1.089349E-14	3.939570E-16
3.621253E+03	1.070111E-14	3.845737E-16
3.631147E+03	1.051495E-14	3.755052E-16
3.641041E+03	1.033598E-14	3.667816E-16
3.650935E+03	1.016388E-14	3.583861E-16
3.660829E+03	1.000119E-14	3.504031E-16
3.670723E+03	9.847326E-15	3.428051E-16
3.680617E+03	9.703790E-15	3.356381E-16
3.690512E+03	9.569738E-15	3.288661E-16
3.700406E+03	9.446329E-15	3.225219E-16
3.710300E+03	9.332953E-15	3.165778E-16
3.720194E+03	9.229948E-15	3.110383E-16
3.730088E+03	9.137005E-15	3.058862E-16
3.739982E+03	9.053338E-15	3.010887E-16
3.749876E+03	8.979476E-15	2.966572E-16
3.759770E+03	8.914124E-15	2.925430E-16
3.769665E+03	8.857718E-15	2.887546E-16
3.779559E+03	8.809383E-15	2.852583E-16
3.789453E+03	8.769058E-15	2.820468E-16
3.799347E+03	8.736251E-15	2.790998E-16
3.809241E+03	8.710094E-15	2.763849E-16
3.819135E+03	8.690475E-15	2.738949E-16
3.829029E+03	8.676891E-15	2.716103E-16
3.838924E+03	8.668504E-15	2.695016E-16
3.848818E+03	8.665539E-15	2.675731E-16
3.858712E+03	8.667185E-15	2.657969E-16
3.868606E+03	8.673341E-15	2.641680E-16
3.878500E+03	8.682952E-15	2.626521E-16
3.888394E+03	8.696305E-15	2.612567E-16
3.898288E+03	8.712752E-15	2.599610E-16
3.908182E+03	8.732007E-15	2.587555E-16
3.918077E+03	8.754115E-15	2.576409E-16
3.927971E+03	8.778547E-15	2.566010E-16
3.937865E+03	8.805112E-15	2.556301E-16
3.947759E+03	8.833924E-15	2.547314E-16
3.957653E+03	8.864270E-15	2.538845E-16
3.967547E+03	8.896592E-15	2.531025E-16
3.977441E+03	8.930503E-15	2.523747E-16
3.987336E+03	8.965649E-15	2.516918E-16
3.997230E+03	9.002475E-15	2.510673E-16
4.007124E+03	9.040367E-15	2.504848E-16
4.017018E+03	9.079483E-15	2.499498E-16
4.026912E+03	9.119452E-15	2.494536E-16
4.036806E+03	9.160131E-15	2.489935E-16
4.046700E+03	9.201357E-15	2.485670E-16
4.056594E+03	9.242944E-15	2.481708E-16
4.066489E+03	9.284474E-15	2.477957E-16
4.076383E+03	9.325758E-15	2.474389E-16
4.086277E+03	9.366644E-15	2.470989E-16
4.096171E+03	9.406996E-15	2.467746E-16
4.106065E+03	9.446515E-15	2.464607E-16
4.115959E+03	9.484958E-15	2.461538E-16
4.125853E+03	9.522535E-15	2.458621E-16
4.135748E+03	9.558893E-15	2.455794E-16
4.145642E+03	9.594318E-15	2.453159E-16
4.155536E+03	9.628682E-15	2.450713E-16
4.165430E+03	9.661851E-15	2.448449E-16
4.175324E+03	9.693875E-15	2.446408E-16
4.185218E+03	9.724562E-15	2.444570E-16
4.195112E+03	9.753653E-15	2.442899E-16
4.205006E+03	9.781222E-15	2.441441E-16
4.214901E+03	9.806681E-15	2.440076E-16
4.224795E+03	9.829798E-15	2.438773E-16
4.234689E+03	9.849885E-15	2.437389E-16
4.244583E+03	9.866795E-15	2.435912E-16
4.254477E+03	9.879798E-15	2.434167E-16
4.264371E+03	9.888479E-15	2.432037E-16
4.274265E+03	9.892215E-15	2.429351E-16
4.284159E+03	9.890151E-15	2.425879E-16
4.294054E+03	9.881844E-15	2.421489E-16
4.303948E+03	9.866968E-15	2.416077E-16
4.313842E+03	9.845038E-15	2.409498E-16
4.323736E+03	9.815933E-15	2.401692E-16
4.333630E+03	9.779722E-15	2.392645E-16
4.343524E+03	9.736710E-15	2.382397E-16
4.353418E+03	9.687518E-15	2.371066E-16
4.363313E+03	9.632650E-15	2.358738E-16
4.373207E+03	9.572897E-15	2.345571E-16
4.383101E+03	9.509282E-15	2.331778E-16
4.392995E+03	9.442573E-15	2.317512E-16
4.402889E+03	9.373986E-15	2.303037E-16
4.412783E+03	9.304247E-15	2.288496E-16
4.422677E+03	9.234432E-15	2.274122E-16
4.432571E+03	9.165205E-15	2.260051E-16
4.442466E+03	9.097250E-15	2.246420E-16
4.452360E+03	9.031083E-15	2.233333E-16
4.462254E+03	8.967247E-15	2.220899E-16
4.472148E+03	8.905749E-15	2.209098E-16
4.482042E+03	8.847021E-15	2.198016E-16
4.491936E+03	8.791034E-15	2.187626E-16
4.501830E+03	8.737945E-15	2.177950E-16
4.511725E+03	8.687745E-15	2.168969E-16
4.521619E+03	8.640406E-15	2.160661E-16
4.531513E+03	8.595888E-15	2.153001E-16
4.541407E+03	8.554262E-15	2.145993E-16
4.551301E+03	8.515494E-15	2.139616E-16
4.561195E+03	8.479559E-15	2.133851E-16
4.571089E+03	8.446448E-15	2.128687E-16
4.580983E+03	8.416381E-15	2.124168E-16
4.590878E+03	8.389161E-15	2.120233E-16
4.600772E+03	8.365025E-15	2.116936E-16
4.610666E+03	8.344007E-15	2.114274E-16
4.620560E+03	8.326138E-15	2.112249E-16
4.630454E+03	8.311445E-15	2.110860E-16
4.640348E+03	8.299948E-15	2.110104E-16
4.650242E+03	8.291850E-15	2.110027E-16
4.660137E+03	8.286923E-15	2.110563E-16
4.670031E+03	8.285316E-15	2.111745E-16
4.679925E+03	8.286734E-15	2.113489E-16
4.689819E+03	8.291342E-15	2.115833E-16
4.699713E+03	8.298746E-15	2.118668E-16
4.709607E+03	8.308698E-15	2.121926E-16
4.719501E+03	8.320985E-15	2.125545E-16
4.729395E+03	8.335326E-15	2.129448E-16
4.739290E+03	8.351182E-15	2.133490E-16
4.749184E+03	8.368056E-15	2.137538E-16
4.759078E+03	8.385604E-15	2.141499E-16
4.768972E+03	8.403246E-15	2.145219E-16
4.778866E+03	8.420285E-15	2.148515E-16
4.788760E+03	8.436304E-15	2.151278E-16
4.798654E+03	8.450696E-15	2.153350E-16
4.808549E+03	8.462868E-15	2.154576E-16
4.818443E+03	8.472359E-15	2.154840E-16
4.828337E+03	8.478650E-15	2.154010E-16
4.838231E+03	8.481378E-15	2.151997E-16
4.848125E+03	8.480048E-15	2.148677E-16
4.858019E+03	8.474529E-15	2.144025E-16
4.867913E+03	8.464477E-15	2.137958E-16
4.877807E+03	8.449735E-15	2.130448E-16
4.887702E+03	8.430423E-15	2.121533E-16
4.897596E+03	8.406381E-15	2.111186E-16
4.907490E+03	8.377921E-15	2.099497E-16
4.917384E+03	8.345257E-15	2.086534E-16
4.927278E+03	8.308585E-15	2.072360E-16
4.937172E+03	8.268354E-15	2.057103E-16
4.947066E+03	8.224958E-15	2.040876E-16
4.956961E+03	8.178826E-15	2.023802E-16
4.966855E+03	8.130494E-15	2.006027E-16
4.976749E+03	8.080326E-15	1.987658E-16
4.986643E+03	8.028783E-15	1.968822E-16
4.996537E+03	7.976500E-15	1.949690E-16
5.006431E+03	7.923668E-15	1.930323E-16
5.016325E+03	7.870995E-15	1.910905E-16
5.026219E+03	7.818833E-15	1.891534E-16
5.036114E+03	7.767529E-15	1.872305E-16
5.046008E+03	7.717588E-15	1.853351E-16
5.055902E+03	7.669496E-15	1.834797E-16
5.065796E+03	7.623469E-15	1.816702E-16
5.075690E+03	7.579940E-15	1.799178E-16
5.085584E+03	7.539295E-15	1.782321E-16
5.095478E+03	7.501618E-15	1.766158E-16
5.105373E+03	7.467252E-15	1.750773E-16
5.115267E+03	7.436217E-15	1.736176E-16
5.125161E+03	7.408537E-15	1.722376E-16
5.135055E+03	7.384153E-15	1.709363E-16
5.144949E+03	7.362937E-15	1.697114E-16
5.154843E+03	7.344774E-15	1.685606E-16
5.164737E+03	7.329264E-15	1.674755E-16
5.174631E+03	7.316284E-15	1.664538E-16
5.184526E+03	7.305449E-15	1.654878E-16
5.194420E+03	7.296435E-15	1.645709E-16
5.204314E+03	7.288836E-15	1.636952E-16
5.214208E+03	7.282470E-15	1.628579E-16
5.224102E+03	7.276925E-15	1.620509E-16
5.233996E+03	7.271866E-15	1.612684E-16
5.243890E+03	7.266881E-15	1.605028E-16
5.253785E+03	7.261716E-15	1.597501E-16
5.263679E+03	7.256116E-15	1.590065E-16
5.273573E+03	7.249608E-15	1.582635E-16
5.283467E+03	7.241886E-15	1.575164E-16
5.293361E+03	7.232732E-15	1.567623E-16
5.303255E+03	7.221885E-15	1.559976E-16
5.313149E+03	7.209114E-15	1.552193E-16
5.323043E+03	7.194084E-15	1.544220E-16
5.332938E+03	7.176809E-15	1.536079E-16
5.342832E+03	7.157211E-15	1.527772E-16
5.352726E+03	7.135203E-15	1.519296E-16
5.362620E+03	7.110777E-15	1.510646E-16
5.372514E+03	7.084251E-15	1.501874E-16
5.382408E+03	7.055854E-15	1.493013E-16
5.392302E+03	7.025943E-15	1.484119E-16
5.402196E+03	6.994835E-15	1.475242E-16
5.412091E+03	6.962993E-15	1.466459E-16
5.421985E+03	6.930732E-15	1.457817E-16
5.431879E+03	6.898482E-15	1.449386E-16
5.441773E+03	6.866570E-15	1.441216E-16
5.451667E+03	6.835216E-15	1.433333E-16
5.461561E+03	6.804663E-15	1.425768E-16
5.471455E+03	6.775184E-15	1.418559E-16
5.481350E+03	6.746941E-15	1.411722E-16
5.491244E+03	6.719999E-15	1.405253E-16
5.501138E+03	6.694467E-15	1.399155E-16
5.511032E+03	6.670574E-15	1.393462E-16
5.520926E+03	6.648285E-15	1.388149E-16
5.530820E+03	6.627774E-15	1.383236E-16
5.540714E+03	6.609171E-15	1.378737E-16
5.550608E+03	6.592568E-15	1.374655E-16
5.560503E+03	6.578289E-15	1.371043E-16
5.570397E+03	6.566494E-15	1.367923E-16
5.580291E+03	6.557444E-15	1.365336E-16
5.590185E+03	6.551424E-15	1.363327E-16
5.600079E+03	6.548745E-15	1.361950E-16
5.609973E+03	6.549724E-15	1.361259E-16
5.619867E+03	6.554676E-15	1.361307E-16
5.629762E+03	6.563843E-15	1.362132E-16
5.639656E+03	6.577631E-15	1.363808E-16
5.649550E+03	6.596152E-15	1.366345E-16
5.659444E+03	6.619662E-15	1.369786E-16
5.669338E+03	6.648228E-15	1.374131E-16
5.679232E+03	6.681969E-15	1.379395E-16
5.689126E+03	6.720797E-15	1.385545E-16
5.699020E+03	6.764595E-15	1.392545E-16
5.708915E+03	6.813213E-15	1.400353E-16
5.718809E+03	6.866266E-15	1.408877E-16
5.728703E+03	6.923263E-15	1.418004E-16
5.738597E+03	6.983739E-15	1.427628E-16
5.748491E+03	7.047064E-15	1.437609E-16
5.758385E+03	7.112445E-15	1.447777E-16
5.768279E+03	7.179143E-15	1.457971E-16
5.778174E+03	7.246209E-15	1.467992E-16
5.788068E+03	7.312639E-15	1.477634E-16
5.797962E+03	7.377602E-15	1.486725E-16
5.807856E+03	7.440046E-15	1.495054E-16
5.817750E+03	7.498925E-15	1.502415E-16
5.827644E+03	7.553302E-15	1.508625E-16
5.837538E+03	7.602389E-15	1.513538E-16
5.847432E+03	7.645350E-15	1.516999E-16
5.857327E+03	7.681563E-15	1.518903E-16
5.867221E+03	7.710570E-15	1.519177E-16
5.877115E+03	7.732035E-15	1.517778E-16
5.887009E+03	7.745987E-15	1.514737E-16
5.896903E+03	7.752616E-15	1.510116E-16
5.906797E+03	7.752272E-15	1.504012E-16
5.916691E+03	7.745540E-15	1.496566E-16
5.926586E+03	7.733520E-15	1.488018E-16
5.936480E+03	7.717061E-15	1.478560E-16
5.946374E+03	7.697398E-15	1.468452E-16
5.956268E+03	7.676046E-15	1.458009E-16
5.966162E+03	7.654388E-15	1.447512E-16
5.976056E+03	7.633863E-15	1.437253E-16
5.985950E+03	7.615996E-15	1.427534E-16
5.995844E+03	7.602440E-15	1.418677E-16
6.005739E+03	7.594427E-15	1.410921E-16
6.015633E+03	7.593470E-15	1.404554E-16
6.025527E+03	7.600825E-15	1.399814E-16
6.035421E+03	7.617453E-15	1.396882E-16
6.045315E+03	7.644440E-15	1.395960E-16
6.055209E+03	7.682376E-15	1.397160E-16
6.065103E+03	7.731831E-15	1.400590E-16
6.074998E+03	7.792948E-15	1.406285E-16
6.084892E+03	7.865546E-15	1.414222E-16
6.094786E+03	7.949142E-15	1.424330E-16
6.104680E+03	8.042822E-15	1.436467E-16
6.114574E+03	8.145021E-15	1.450381E-16
6.124468E+03	8.253863E-15	1.465772E-16
6.134362E+03	8.366724E-15	1.482216E-16
6.144256E+03	8.480700E-15	1.499248E-16
6.154151E+03	8.591985E-15	1.516250E-16
6.164045E+03	8.696524E-15	1.532566E-16
6.173939E+03	8.789761E-15	1.547456E-16
6.183833E+03	8.867080E-15	1.560167E-16
6.193727E+03	8.924317E-15	1.570025E-16
6.203621E+03	8.958222E-15	1.576506E-16
6.213515E+03	8.967663E-15	1.579449E-16
6.223410E+03	8.954885E-15	1.579271E-16
6.233304E+03	8.924549E-15	1.576808E-16
6.243198E+03	8.881942E-15	1.572995E-16
6.253092E+03	8.832956E-15	1.568839E-16
6.262986E+03	8.782985E-15	1.565248E-16
6.272880E+03	8.737073E-15	1.563078E-16
6.282774E+03	8.699574E-15	1.563075E-16
6.292668E+03	8.673821E-15	1.565817E-16
6.302563E+03	8.662753E-15	1.571827E-16
6.312457E+03	8.668330E-15	1.581464E-16
6.322351E+03	8.692127E-15	1.595032E-16
6.332245E+03	8.734869E-15	1.612693E-16
6.342139E+03	8.796927E-15	1.634549E-16
6.352033E+03	8.878004E-15	1.660587E-16
6.361927E+03	8.977541E-15	1.690749E-16
6.371822E+03	9.094555E-15	1.724896E-16
6.381716E+03	9.227476E-15	1.762777E-16
6.391610E+03	9.374434E-15	1.804077E-16
6.401504E+03	9.533400E-15	1.848440E-16
6.411398E+03	9.701626E-15	1.895360E-16
6.421292E+03	9.876389E-15	1.944322E-16
6.431186E+03	1.005479E-14	1.994754E-16
6.441080E+03	1.023371E-14	2.046027E-16
6.450975E+03	1.041003E-14	2.097489E-16
6.460869E+03	1.058057E-14	2.148454E-16
6.470763E+03	1.074272E-14	2.198330E-16
6.480657E+03	1.089333E-14	2.246404E-16
6.490551E+03	1.103012E-14	2.292111E-16
6.500445E+03	1.115045E-14	2.334802E-16
6.510339E+03	1.125236E-14	2.373957E-16
6.520234E+03	1.133385E-14	2.409031E-16
6.530128E+03	1.139354E-14	2.439599E-16
6.540022E+03	1.143015E-14	2.465256E-16
6.549916E+03	1.144312E-14	2.485740E-16
6.559810E+03	1.143219E-14	2.500860E-16
6.569704E+03	1.139736E-14	2.510485E-16
6.579598E+03	1.133949E-14	2.514671E-16
6.589492E+03	1.125937E-14	2.513477E-16
6.599387E+03	1.115829E-14	2.507075E-16
6.609281E+03	1.103777E-14	2.495706E-16
6.619175E+03	1.089973E-14	2.479716E-16
6.629069E+03	1.074600E-14	2.459442E-16
6.638963E+03	1.057877E-14	2.435323E-16
6.648857E+03	1.040010E-14	2.407777E-16
6.658751E+03	1.021224E-14	2.377291E-16
6.668645E+03	1.001736E-14	2.344344E-16
6.678540E+03	9.817574E-15	2.309408E-16
6.688434E+03	9.614767E-15	2.272927E-16
6.698328E+03	9.410952E-15	2.235379E-16
6.708222E+03	9.207991E-15	2.197219E-16
6.718116E+03	9.007272E-15	2.158796E-16
6.728010E+03	8.810330E-15	2.120504E-16
6.737904E+03	8.618517E-15	2.082697E-16
6.747799E+03	8.432711E-15	2.045621E-16
6.757693E+03	8.254009E-15	2.009577E-16
6.767587E+03	8.083054E-15	1.974759E-16
6.777481E+03	7.920430E-15	1.941348E-16
6.787375E+03	7.766671E-15	1.909511E-16
6.797269E+03	7.621997E-15	1.879341E-16
6.807163E+03	7.486606E-15	1.850922E-16
6.817057E+03	7.360590E-15	1.824311E-16
6.826952E+03	7.244025E-15	1.799559E-16
6.836846E+03	7.136719E-15	1.776651E-16
6.846740E+03	7.038483E-15	1.755565E-16
6.856634E+03	6.949122E-15	1.736281E-16
6.866528E+03	6.868199E-15	1.718712E-16
6.876422E+03	6.795295E-15	1.702774E-16
6.886316E+03	6.729932E-15	1.688365E-16
6.896211E+03	6.671659E-15	1.675390E-16
6.906105E+03	6.619826E-15	1.663700E-16
6.915999E+03	6.573832E-15	1.653155E-16
6.925893E+03	6.533046E-15	1.643609E-16
6.935787E+03	6.496824E-15	1.634908E-16
6.945681E+03	6.464509E-15	1.626896E-16
6.955575E+03	6.435445E-15	1.619415E-16
6.965469E+03	6.408904E-15	1.612291E-16
6.975364E+03	6.384411E-15	1.605409E-16
6.985258E+03	6.361205E-15	1.598586E-16
6.995152E+03	6.338793E-15	1.591705E-16
7.005046E+03	6.316652E-15	1.584642E-16
7.014940E+03	6.294236E-15	1.577270E-16
7.024834E+03	6.271142E-15	1.569496E-16
7.034728E+03	6.247118E-15	1.561267E-16
7.044623E+03	6.221840E-15	1.552514E-16
7.054517E+03	6.195141E-15	1.543206E-16
7.064411E+03	6.166938E-15	1.533336E-16
7.074305E+03	6.137226E-15	1.522917E-16
7.084199E+03	6.106066E-15	1.511977E-16
7.094093E+03	6.073572E-15	1.500560E-16
7.103987E+03	6.039831E-15	1.488703E-16
7.113881E+03	6.005109E-15	1.476487E-16
7.123776E+03	5.969612E-15	1.463978E-16
7.133670E+03	5.933409E-15	1.451209E-16
7.143564E+03	5.896865E-15	1.438286E-16
7.153458E+03	5.860109E-15	1.425256E-16
7.163352E+03	5.823399E-15	1.412198E-16
7.173246E+03	5.786758E-15	1.399133E-16
7.183140E+03	5.750388E-15	1.386126E-16
7.193035E+03	5.714390E-15	1.373218E-16
7.202929E+03	5.678826E-15	1.360440E-16
7.212823E+03	5.643646E-15	1.347796E-16
7.222717E+03	5.608906E-15	1.335316E-16
7.232611E+03	5.574482E-15	1.322988E-16
7.242505E+03	5.540360E-15	1.310826E-16
7.252399E+03	5.506360E-15	1.298807E-16
7.262293E+03	5.472426E-15	1.286934E-16
7.272188E+03	5.438354E-15	1.275180E-16
7.282082E+03	5.404009E-15	1.263533E-16
7.291976E+03	5.369336E-15	1.251999E-16
7.301870E+03	5.334154E-15	1.240558E-16
7.311764E+03	5.298374E-15	1.229208E-16
7.321658E+03	5.262060E-15	1.217985E-16
7.331552E+03	5.224970E-15	1.206853E-16
7.341447E+03	5.187286E-15	1.195875E-16
7.351341E+03	5.148884E-15	1.185043E-16
7.361235E+03	5.109865E-15	1.174397E-16
7.371129E+03	5.070353E-15	1.163986E-16
7.381023E+03	5.030365E-15	1.153832E-16
7.390917E+03	4.989938E-15	1.143958E-16
7.400811E+03	4.949190E-15	1.134410E-16
7.410705E+03	4.908310E-15	1.125245E-16
7.420600E+03	4.867370E-15	1.116493E-16
7.430494E+03	4.826506E-15	1.108200E-16
7.440388E+03	4.785862E-15	1.100410E-16
7.450282E+03	4.745588E-15	1.093169E-16
7.460176E+03	4.705779E-15	1.086510E-16
7.470070E+03	4.666723E-15	1.080508E-16
7.479964E+03	4.628472E-15	1.075185E-16
7.489859E+03	4.591206E-15	1.070590E-16
7.499753E+03	4.555221E-15	1.066802E-16
7.509647E+03	4.520571E-15	1.063840E-16
7.519541E+03	4.487479E-15	1.061765E-16
7.529435E+03	4.456041E-15	1.060604E-16
7.539329E+03	4.426453E-15	1.060394E-16
7.549223E+03	4.398831E-15	1.061150E-16
7.559117E+03	4.373210E-15	1.062868E-16
7.569012E+03	4.349708E-15	1.065569E-16
7.578906E+03	4.328349E-15	1.069249E-16
7.588800E+03	4.309119E-15	1.073897E-16
7.598694E+03	4.291916E-15	1.079482E-16
7.608588E+03	4.276777E-15	1.086008E-16
7.618482E+03	4.263500E-15	1.093419E-16
7.628376E+03	4.252044E-15	1.101699E-16
7.638271E+03	4.242312E-15	1.110821E-16
7.648165E+03	4.234159E-15	1.120743E-16
7.658059E+03	4.227608E-15	1.131467E-16
7.667953E+03	4.222509E-15	1.142950E-16
7.677847E+03	4.218757E-15	1.155162E-16
