#wls	flux	fluxerr
1.583061E+03	3.239723E-15	3.086049E-16
1.622638E+03	3.336442E-15	3.137544E-16
1.662214E+03	3.431573E-15	3.184726E-16
1.701791E+03	3.525070E-15	3.227587E-16
1.741367E+03	3.615994E-15	3.265318E-16
1.780944E+03	3.702610E-15	3.296455E-16
1.820520E+03	3.782560E-15	3.319080E-16
1.860097E+03	3.853729E-15	3.331614E-16
1.899673E+03	3.913009E-15	3.331754E-16
1.939250E+03	3.956871E-15	3.317014E-16
1.978827E+03	3.985704E-15	3.288339E-16
2.018403E+03	4.001401E-15	3.247887E-16
2.057980E+03	4.013324E-15	3.203686E-16
2.097556E+03	4.035280E-15	3.166756E-16
2.137133E+03	4.084170E-15	3.149758E-16
2.176709E+03	4.171673E-15	3.160471E-16
2.216286E+03	4.298517E-15	3.197858E-16
2.255862E+03	4.459312E-15	3.256366E-16
2.295439E+03	4.643788E-15	3.327227E-16
2.335015E+03	4.845750E-15	3.405082E-16
2.374592E+03	5.056514E-15	3.483196E-16
2.414168E+03	5.274682E-15	3.560229E-16
2.453745E+03	5.496507E-15	3.633373E-16
2.493321E+03	5.720634E-15	3.701577E-16
2.532898E+03	5.945372E-15	3.763662E-16
2.572475E+03	6.171011E-15	3.819778E-16
2.612051E+03	6.398893E-15	3.870705E-16
2.651628E+03	6.627509E-15	3.915475E-16
2.691204E+03	6.858169E-15	3.954846E-16
2.730781E+03	7.093672E-15	3.990318E-16
2.770357E+03	7.335076E-15	4.022260E-16
2.809934E+03	7.587701E-15	4.053266E-16
2.849510E+03	7.857396E-15	4.085915E-16
2.889087E+03	8.148941E-15	4.121935E-16
2.928663E+03	8.466815E-15	4.162655E-16
2.968240E+03	8.818296E-15	4.210513E-16
2.978134E+03	8.911917E-15	4.223675E-16
2.988028E+03	9.008578E-15	4.237620E-16
2.997922E+03	9.107122E-15	4.251778E-16
3.007816E+03	9.207591E-15	4.266151E-16
3.017710E+03	9.311216E-15	4.281286E-16
3.027605E+03	9.416902E-15	4.296655E-16
3.037499E+03	9.526967E-15	4.313289E-16
3.047393E+03	9.639068E-15	4.330091E-16
3.057287E+03	9.753279E-15	4.347078E-16
3.067181E+03	9.871860E-15	4.365230E-16
3.077075E+03	9.992345E-15	4.383424E-16
3.086969E+03	1.011699E-14	4.402626E-16
3.096864E+03	1.024327E-14	4.421709E-16
3.106758E+03	1.037224E-14	4.441110E-16
3.116652E+03	1.050493E-14	4.461242E-16
3.126546E+03	1.063873E-14	4.480982E-16
3.136440E+03	1.077584E-14	4.501235E-16
3.146334E+03	1.091482E-14	4.521379E-16
3.156228E+03	1.105540E-14	4.541290E-16
3.166122E+03	1.119848E-14	4.561327E-16
3.176017E+03	1.134373E-14	4.581343E-16
3.185911E+03	1.148836E-14	4.600196E-16
3.195805E+03	1.163559E-14	4.619189E-16
3.205699E+03	1.178256E-14	4.637174E-16
3.215593E+03	1.192997E-14	4.654441E-16
3.225487E+03	1.207731E-14	4.670792E-16
3.235381E+03	1.222396E-14	4.686009E-16
3.245276E+03	1.236932E-14	4.699873E-16
3.255170E+03	1.251270E-14	4.712154E-16
3.265064E+03	1.265336E-14	4.722608E-16
3.274958E+03	1.279055E-14	4.730992E-16
3.284852E+03	1.292465E-14	4.737501E-16
3.294746E+03	1.305483E-14	4.741871E-16
3.304640E+03	1.317896E-14	4.743390E-16
3.314534E+03	1.329614E-14	4.741808E-16
3.324429E+03	1.340784E-14	4.737730E-16
3.334323E+03	1.351070E-14	4.730045E-16
3.344217E+03	1.360497E-14	4.718939E-16
3.354111E+03	1.369087E-14	4.704586E-16
3.364005E+03	1.376511E-14	4.685962E-16
3.373899E+03	1.382915E-14	4.663681E-16
3.383793E+03	1.388210E-14	4.637557E-16
3.393688E+03	1.392198E-14	4.607056E-16
3.403582E+03	1.394807E-14	4.572072E-16
3.413476E+03	1.396190E-14	4.533245E-16
3.423370E+03	1.396060E-14	4.489774E-16
3.433264E+03	1.394571E-14	4.442304E-16
3.443158E+03	1.391446E-14	4.390088E-16
3.453052E+03	1.386827E-14	4.333718E-16
3.462946E+03	1.380665E-14	4.273162E-16
3.472841E+03	1.372857E-14	4.208227E-16
3.482735E+03	1.363539E-14	4.139450E-16
3.492629E+03	1.352765E-14	4.067109E-16
3.502523E+03	1.340612E-14	3.991543E-16
3.512417E+03	1.327175E-14	3.913128E-16
3.522311E+03	1.312564E-14	3.832279E-16
3.532205E+03	1.296983E-14	3.749668E-16
3.542100E+03	1.280474E-14	3.665478E-16
3.551994E+03	1.263335E-14	3.580610E-16
3.561888E+03	1.245534E-14	3.495017E-16
3.571782E+03	1.227290E-14	3.409340E-16
3.581676E+03	1.208807E-14	3.324162E-16
3.591570E+03	1.190137E-14	3.239628E-16
3.601464E+03	1.171475E-14	3.156261E-16
3.611358E+03	1.152865E-14	3.074170E-16
3.621253E+03	1.134549E-14	2.993972E-16
3.631147E+03	1.116494E-14	2.915546E-16
3.641041E+03	1.098918E-14	2.839420E-16
3.650935E+03	1.081898E-14	2.765744E-16
3.660829E+03	1.065391E-14	2.694351E-16
3.670723E+03	1.049626E-14	2.625768E-16
3.680617E+03	1.034592E-14	2.559896E-16
3.690512E+03	1.020318E-14	2.496744E-16
3.700406E+03	1.006821E-14	2.436283E-16
3.710300E+03	9.941020E-15	2.378447E-16
3.720194E+03	9.822406E-15	2.323359E-16
3.730088E+03	9.711209E-15	2.270674E-16
3.739982E+03	9.607595E-15	2.220369E-16
3.749876E+03	9.511209E-15	2.172301E-16
3.759770E+03	9.421660E-15	2.126320E-16
3.769665E+03	9.338925E-15	2.082369E-16
3.779559E+03	9.262152E-15	2.040205E-16
3.789453E+03	9.191617E-15	1.999842E-16
3.799347E+03	9.126042E-15	1.960959E-16
3.809241E+03	9.065296E-15	1.923490E-16
3.819135E+03	9.008855E-15	1.887293E-16
3.829029E+03	8.956214E-15	1.852234E-16
3.838924E+03	8.907183E-15	1.818251E-16
3.848818E+03	8.860962E-15	1.785160E-16
3.858712E+03	8.817407E-15	1.752921E-16
3.868606E+03	8.776093E-15	1.721437E-16
3.878500E+03	8.736360E-15	1.690575E-16
3.888394E+03	8.698187E-15	1.660330E-16
3.898288E+03	8.661574E-15	1.630703E-16
3.908182E+03	8.625730E-15	1.601550E-16
3.918077E+03	8.590787E-15	1.572905E-16
3.927971E+03	8.556587E-15	1.544748E-16
3.937865E+03	8.523059E-15	1.517082E-16
3.947759E+03	8.490399E-15	1.489954E-16
3.957653E+03	8.458066E-15	1.463286E-16
3.967547E+03	8.426549E-15	1.437181E-16
3.977441E+03	8.395385E-15	1.411581E-16
3.987336E+03	8.364826E-15	1.386550E-16
3.997230E+03	8.335099E-15	1.362148E-16
4.007124E+03	8.305728E-15	1.338323E-16
4.017018E+03	8.276676E-15	1.315095E-16
4.026912E+03	8.248070E-15	1.292514E-16
4.036806E+03	8.219769E-15	1.270591E-16
4.046700E+03	8.191198E-15	1.249268E-16
4.056594E+03	8.162568E-15	1.228617E-16
4.066489E+03	8.133299E-15	1.208587E-16
4.076383E+03	8.103435E-15	1.189227E-16
4.086277E+03	8.072709E-15	1.170540E-16
4.096171E+03	8.040960E-15	1.152545E-16
4.106065E+03	8.008651E-15	1.135351E-16
4.115959E+03	7.975481E-15	1.118956E-16
4.125853E+03	7.941950E-15	1.103470E-16
4.135748E+03	7.908453E-15	1.088985E-16
4.145642E+03	7.875288E-15	1.075574E-16
4.155536E+03	7.842800E-15	1.063316E-16
4.165430E+03	7.811509E-15	1.052307E-16
4.175324E+03	7.781776E-15	1.042621E-16
4.185218E+03	7.754078E-15	1.034342E-16
4.195112E+03	7.728689E-15	1.027523E-16
4.205006E+03	7.705960E-15	1.022227E-16
4.214901E+03	7.685891E-15	1.018453E-16
4.224795E+03	7.668706E-15	1.016188E-16
4.234689E+03	7.654436E-15	1.015383E-16
4.244583E+03	7.643220E-15	1.016002E-16
4.254477E+03	7.634902E-15	1.017969E-16
4.264371E+03	7.629340E-15	1.021211E-16
4.274265E+03	7.625852E-15	1.025582E-16
4.284159E+03	7.623120E-15	1.030847E-16
4.294054E+03	7.619628E-15	1.036744E-16
4.303948E+03	7.614146E-15	1.043042E-16
4.313842E+03	7.605567E-15	1.049522E-16
4.323736E+03	7.593082E-15	1.056003E-16
4.333630E+03	7.576288E-15	1.062358E-16
4.343524E+03	7.554601E-15	1.068429E-16
4.353418E+03	7.528270E-15	1.074178E-16
4.363313E+03	7.497314E-15	1.079534E-16
4.373207E+03	7.461935E-15	1.084456E-16
4.383101E+03	7.422685E-15	1.088957E-16
4.392995E+03	7.380094E-15	1.093048E-16
4.402889E+03	7.334622E-15	1.096741E-16
4.412783E+03	7.287218E-15	1.100123E-16
4.422677E+03	7.238548E-15	1.103247E-16
4.432571E+03	7.189557E-15	1.106216E-16
4.442466E+03	7.140739E-15	1.109072E-16
4.452360E+03	7.092733E-15	1.111885E-16
4.462254E+03	7.045860E-15	1.114678E-16
4.472148E+03	7.000428E-15	1.117482E-16
4.482042E+03	6.956481E-15	1.120284E-16
4.491936E+03	6.914368E-15	1.123126E-16
4.501830E+03	6.873945E-15	1.125972E-16
4.511725E+03	6.835232E-15	1.128814E-16
4.521619E+03	6.798417E-15	1.131674E-16
4.531513E+03	6.763428E-15	1.134532E-16
4.541407E+03	6.730291E-15	1.137386E-16
4.551301E+03	6.699049E-15	1.140238E-16
4.561195E+03	6.669761E-15	1.143094E-16
4.571089E+03	6.642422E-15	1.145950E-16
4.580983E+03	6.617208E-15	1.148834E-16
4.590878E+03	6.594227E-15	1.151763E-16
4.600772E+03	6.573594E-15	1.154757E-16
4.610666E+03	6.555354E-15	1.157823E-16
4.620560E+03	6.539632E-15	1.160984E-16
4.630454E+03	6.526626E-15	1.164277E-16
4.640348E+03	6.516291E-15	1.167694E-16
4.650242E+03	6.508882E-15	1.171282E-16
4.660137E+03	6.504397E-15	1.175042E-16
4.670031E+03	6.502889E-15	1.178986E-16
4.679925E+03	6.504383E-15	1.183117E-16
4.689819E+03	6.508787E-15	1.187421E-16
4.699713E+03	6.516043E-15	1.191885E-16
4.709607E+03	6.525966E-15	1.196476E-16
4.719501E+03	6.538466E-15	1.201175E-16
4.729395E+03	6.553165E-15	1.205910E-16
4.739290E+03	6.569853E-15	1.210641E-16
4.749184E+03	6.588036E-15	1.215273E-16
4.759078E+03	6.607255E-15	1.219718E-16
4.768972E+03	6.627168E-15	1.223908E-16
4.778866E+03	6.647177E-15	1.227729E-16
4.788760E+03	6.666825E-15	1.231094E-16
4.798654E+03	6.685414E-15	1.233871E-16
4.808549E+03	6.702491E-15	1.235974E-16
4.818443E+03	6.717554E-15	1.237309E-16
4.828337E+03	6.730068E-15	1.237779E-16
4.838231E+03	6.739707E-15	1.237326E-16
4.848125E+03	6.745976E-15	1.235863E-16
4.858019E+03	6.748683E-15	1.233361E-16
4.867913E+03	6.747559E-15	1.229778E-16
4.877807E+03	6.742566E-15	1.225117E-16
4.887702E+03	6.733531E-15	1.219360E-16
4.897596E+03	6.720600E-15	1.212545E-16
4.907490E+03	6.703939E-15	1.204719E-16
4.917384E+03	6.683728E-15	1.195929E-16
4.927278E+03	6.660368E-15	1.186265E-16
4.937172E+03	6.634084E-15	1.175785E-16
4.947066E+03	6.605414E-15	1.164602E-16
4.956961E+03	6.574615E-15	1.152781E-16
4.966855E+03	6.542166E-15	1.140424E-16
4.976749E+03	6.508468E-15	1.127618E-16
4.986643E+03	6.473920E-15	1.114450E-16
4.996537E+03	6.438911E-15	1.101005E-16
5.006431E+03	6.403753E-15	1.087351E-16
5.016325E+03	6.368892E-15	1.073580E-16
5.026219E+03	6.334631E-15	1.059757E-16
5.036114E+03	6.301475E-15	1.045980E-16
5.046008E+03	6.269658E-15	1.032299E-16
5.055902E+03	6.239544E-15	1.018785E-16
5.065796E+03	6.211624E-15	1.005528E-16
5.075690E+03	6.186101E-15	9.925696E-17
5.085584E+03	6.163278E-15	9.799643E-17
5.095478E+03	6.143539E-15	9.677797E-17
5.105373E+03	6.127009E-15	9.560404E-17
5.115267E+03	6.113738E-15	9.447590E-17
5.125161E+03	6.103823E-15	9.339559E-17
5.135055E+03	6.097283E-15	9.236388E-17
5.144949E+03	6.093867E-15	9.137764E-17
5.154843E+03	6.093460E-15	9.043594E-17
5.164737E+03	6.095894E-15	8.953730E-17
5.174631E+03	6.100780E-15	8.867717E-17
5.184526E+03	6.107963E-15	8.785477E-17
5.194420E+03	6.117086E-15	8.706667E-17
5.204314E+03	6.127851E-15	8.631060E-17
5.214208E+03	6.139958E-15	8.558461E-17
5.224102E+03	6.153099E-15	8.488695E-17
5.233996E+03	6.167020E-15	8.421693E-17
5.243890E+03	6.181320E-15	8.357210E-17
5.253785E+03	6.195638E-15	8.295095E-17
5.263679E+03	6.209586E-15	8.235186E-17
5.273573E+03	6.222810E-15	8.177397E-17
5.283467E+03	6.234811E-15	8.121468E-17
5.293361E+03	6.245142E-15	8.067237E-17
5.303255E+03	6.253359E-15	8.014556E-17
5.313149E+03	6.259100E-15	7.963391E-17
5.323043E+03	6.261844E-15	7.913505E-17
5.332938E+03	6.261377E-15	7.865043E-17
5.342832E+03	6.257360E-15	7.817969E-17
5.352726E+03	6.249591E-15	7.772394E-17
5.362620E+03	6.237990E-15	7.728541E-17
5.372514E+03	6.222714E-15	7.686847E-17
5.382408E+03	6.204143E-15	7.647668E-17
5.392302E+03	6.182971E-15	7.611521E-17
5.402196E+03	6.159678E-15	7.578613E-17
5.412091E+03	6.134861E-15	7.549270E-17
5.421985E+03	6.109188E-15	7.523891E-17
5.431879E+03	6.082973E-15	7.502424E-17
5.441773E+03	6.056769E-15	7.485115E-17
5.451667E+03	6.030942E-15	7.471983E-17
5.461561E+03	6.005736E-15	7.462905E-17
5.471455E+03	5.981394E-15	7.457771E-17
5.481350E+03	5.958167E-15	7.456496E-17
5.491244E+03	5.936143E-15	7.458810E-17
5.501138E+03	5.915558E-15	7.464643E-17
5.511032E+03	5.896394E-15	7.473628E-17
5.520926E+03	5.878805E-15	7.485634E-17
5.530820E+03	5.862895E-15	7.500483E-17
5.540714E+03	5.848787E-15	7.518044E-17
5.550608E+03	5.836637E-15	7.538245E-17
5.560503E+03	5.826630E-15	7.561074E-17
5.570397E+03	5.819049E-15	7.586664E-17
5.580291E+03	5.814091E-15	7.615058E-17
5.590185E+03	5.812103E-15	7.646511E-17
5.600079E+03	5.813333E-15	7.681169E-17
5.609973E+03	5.818104E-15	7.719291E-17
5.619867E+03	5.826791E-15	7.761221E-17
5.629762E+03	5.839644E-15	7.807147E-17
5.639656E+03	5.856946E-15	7.857313E-17
5.649550E+03	5.878998E-15	7.911991E-17
5.659444E+03	5.905939E-15	7.971241E-17
5.669338E+03	5.937904E-15	8.035116E-17
5.679232E+03	5.974953E-15	8.103567E-17
5.689126E+03	6.017123E-15	8.176506E-17
5.699020E+03	6.064241E-15	8.253555E-17
5.708915E+03	6.116033E-15	8.334188E-17
5.718809E+03	6.172296E-15	8.417968E-17
5.728703E+03	6.232544E-15	8.504061E-17
5.738597E+03	6.296188E-15	8.591484E-17
5.748491E+03	6.362657E-15	8.679279E-17
5.758385E+03	6.431231E-15	8.766272E-17
5.768279E+03	6.501113E-15	8.851196E-17
5.778174E+03	6.571375E-15	8.932605E-17
5.788068E+03	6.641103E-15	9.009088E-17
5.797962E+03	6.709411E-15	9.079291E-17
5.807856E+03	6.775278E-15	9.141699E-17
5.817750E+03	6.837756E-15	9.194929E-17
5.827644E+03	6.896006E-15	9.237782E-17
5.837538E+03	6.949058E-15	9.268926E-17
5.847432E+03	6.996244E-15	9.287479E-17
5.857327E+03	7.036902E-15	9.292612E-17
5.867221E+03	7.070743E-15	9.284046E-17
5.877115E+03	7.097339E-15	9.261359E-17
5.887009E+03	7.116831E-15	9.224917E-17
5.896903E+03	7.129397E-15	9.175172E-17
5.906797E+03	7.135534E-15	9.113009E-17
5.916691E+03	7.135981E-15	9.039639E-17
5.926586E+03	7.131708E-15	8.956564E-17
5.936480E+03	7.123821E-15	8.865445E-17
5.946374E+03	7.113668E-15	8.768220E-17
5.956268E+03	7.102804E-15	8.667036E-17
5.966162E+03	7.092684E-15	8.563864E-17
5.976056E+03	7.085028E-15	8.460938E-17
5.985950E+03	7.081526E-15	8.360374E-17
5.995844E+03	7.083727E-15	8.264051E-17
6.005739E+03	7.093428E-15	8.174054E-17
6.015633E+03	7.112092E-15	8.092004E-17
6.025527E+03	7.141242E-15	8.019514E-17
6.035421E+03	7.182214E-15	7.957924E-17
6.045315E+03	7.236345E-15	7.908519E-17
6.055209E+03	7.304576E-15	7.872109E-17
6.065103E+03	7.387761E-15	7.849401E-17
6.074998E+03	7.486378E-15	7.840711E-17
6.084892E+03	7.600457E-15	7.845935E-17
6.094786E+03	7.729683E-15	7.864706E-17
6.104680E+03	7.872899E-15	7.895930E-17
6.114574E+03	8.028327E-15	7.938088E-17
6.124468E+03	8.193402E-15	7.989125E-17
6.134362E+03	8.364365E-15	8.046122E-17
6.144256E+03	8.536527E-15	8.105609E-17
6.154151E+03	8.703507E-15	8.162898E-17
6.164045E+03	8.857792E-15	8.212645E-17
6.173939E+03	8.990344E-15	8.248478E-17
6.183833E+03	9.091740E-15	8.263996E-17
6.193727E+03	9.152453E-15	8.252892E-17
6.203621E+03	9.164811E-15	8.210536E-17
6.213515E+03	9.126674E-15	8.137008E-17
6.223410E+03	9.044667E-15	8.039703E-17
6.233304E+03	8.930947E-15	7.930308E-17
6.243198E+03	8.798813E-15	7.820977E-17
6.253092E+03	8.660316E-15	7.722384E-17
6.262986E+03	8.525793E-15	7.643074E-17
6.272880E+03	8.403527E-15	7.589233E-17
6.282774E+03	8.299567E-15	7.565231E-17
6.292668E+03	8.217843E-15	7.573813E-17
6.302563E+03	8.161179E-15	7.617034E-17
6.312457E+03	8.131073E-15	7.696039E-17
6.322351E+03	8.128078E-15	7.811367E-17
6.332245E+03	8.152204E-15	7.963274E-17
6.342139E+03	8.203056E-15	8.151819E-17
6.352033E+03	8.279665E-15	8.376635E-17
6.361927E+03	8.380701E-15	8.637069E-17
6.371822E+03	8.504649E-15	8.932307E-17
6.381716E+03	8.649468E-15	9.260959E-17
6.391610E+03	8.812829E-15	9.621238E-17
6.401504E+03	8.991850E-15	1.001060E-16
6.411398E+03	9.183562E-15	1.042621E-16
6.421292E+03	9.384613E-15	1.086452E-16
6.431186E+03	9.591232E-15	1.132122E-16
6.441080E+03	9.799928E-15	1.179201E-16
6.450975E+03	1.000703E-14	1.227201E-16
6.460869E+03	1.020911E-14	1.275629E-16
6.470763E+03	1.040276E-14	1.323969E-16
6.480657E+03	1.058488E-14	1.371703E-16
6.490551E+03	1.075251E-14	1.418311E-16
6.500445E+03	1.090290E-14	1.463269E-16
6.510339E+03	1.103327E-14	1.506028E-16
6.520234E+03	1.114149E-14	1.546107E-16
6.530128E+03	1.122557E-14	1.583025E-16
6.540022E+03	1.128401E-14	1.616362E-16
6.549916E+03	1.131589E-14	1.645773E-16
6.559810E+03	1.132098E-14	1.671011E-16
6.569704E+03	1.129941E-14	1.691893E-16
6.579598E+03	1.125182E-14	1.708318E-16
6.589492E+03	1.117938E-14	1.720277E-16
6.599387E+03	1.108324E-14	1.727786E-16
6.609281E+03	1.096537E-14	1.730996E-16
6.619175E+03	1.082762E-14	1.730073E-16
6.629069E+03	1.067216E-14	1.725249E-16
6.638963E+03	1.050139E-14	1.716821E-16
6.648857E+03	1.031755E-14	1.705084E-16
6.658751E+03	1.012312E-14	1.690394E-16
6.668645E+03	9.920201E-15	1.673070E-16
6.678540E+03	9.711305E-15	1.653514E-16
6.688434E+03	9.498603E-15	1.632093E-16
6.698328E+03	9.284042E-15	1.609152E-16
6.708222E+03	9.069433E-15	1.585027E-16
6.718116E+03	8.856828E-15	1.560106E-16
6.728010E+03	8.647473E-15	1.534648E-16
6.737904E+03	8.442836E-15	1.508961E-16
6.747799E+03	8.244184E-15	1.483320E-16
6.757693E+03	8.052401E-15	1.457937E-16
6.767587E+03	7.868292E-15	1.433014E-16
6.777481E+03	7.692495E-15	1.408721E-16
6.787375E+03	7.525492E-15	1.385202E-16
6.797269E+03	7.367713E-15	1.362590E-16
6.807163E+03	7.219207E-15	1.340945E-16
6.817057E+03	7.080175E-15	1.320354E-16
6.826952E+03	6.950708E-15	1.300879E-16
6.836846E+03	6.830548E-15	1.282514E-16
6.846740E+03	6.719673E-15	1.265296E-16
6.856634E+03	6.617723E-15	1.249190E-16
6.866528E+03	6.524267E-15	1.234148E-16
6.876422E+03	6.439037E-15	1.220147E-16
6.886316E+03	6.361468E-15	1.207105E-16
6.896211E+03	6.290954E-15	1.194927E-16
6.906105E+03	6.227078E-15	1.183553E-16
6.915999E+03	6.169163E-15	1.172870E-16
6.925893E+03	6.116514E-15	1.162758E-16
6.935787E+03	6.068639E-15	1.153136E-16
6.945681E+03	6.024823E-15	1.143877E-16
6.955575E+03	5.984418E-15	1.134866E-16
6.965469E+03	5.946717E-15	1.125978E-16
6.975364E+03	5.911246E-15	1.117129E-16
6.985258E+03	5.877340E-15	1.108202E-16
6.995152E+03	5.844437E-15	1.099099E-16
7.005046E+03	5.812019E-15	1.089729E-16
7.014940E+03	5.779617E-15	1.080014E-16
7.024834E+03	5.746825E-15	1.069889E-16
7.034728E+03	5.713377E-15	1.059316E-16
7.044623E+03	5.678869E-15	1.048233E-16
7.054517E+03	5.643194E-15	1.036634E-16
7.064411E+03	5.606329E-15	1.024530E-16
7.074305E+03	5.568177E-15	1.011920E-16
7.084199E+03	5.528784E-15	9.988299E-17
7.094093E+03	5.488246E-15	9.852944E-17
7.103987E+03	5.446702E-15	9.713571E-17
7.113881E+03	5.404388E-15	9.570789E-17
7.123776E+03	5.361349E-15	9.424863E-17
7.133670E+03	5.317985E-15	9.276684E-17
7.143564E+03	5.274279E-15	9.126409E-17
7.153458E+03	5.230557E-15	8.974789E-17
7.163352E+03	5.186926E-15	8.822189E-17
7.173246E+03	5.143613E-15	8.669171E-17
7.183140E+03	5.100686E-15	8.516035E-17
7.193035E+03	5.058326E-15	8.363256E-17
7.202929E+03	5.016612E-15	8.211146E-17
7.212823E+03	4.975531E-15	8.059865E-17
7.222717E+03	4.935168E-15	7.909736E-17
7.232611E+03	4.895514E-15	7.760940E-17
7.242505E+03	4.856470E-15	7.613518E-17
7.252399E+03	4.818107E-15	7.467801E-17
7.262293E+03	4.780296E-15	7.323807E-17
7.272188E+03	4.742963E-15	7.181665E-17
7.282082E+03	4.706101E-15	7.041618E-17
7.291976E+03	4.669589E-15	6.903754E-17
7.301870E+03	4.633446E-15	6.768384E-17
7.311764E+03	4.597584E-15	6.635679E-17
7.321658E+03	4.561997E-15	6.505944E-17
7.331552E+03	4.526762E-15	6.379617E-17
7.341447E+03	4.491913E-15	6.257083E-17
7.351341E+03	4.457386E-15	6.138599E-17
7.361235E+03	4.423314E-15	6.024711E-17
7.371129E+03	4.389790E-15	5.915909E-17
7.381023E+03	4.356919E-15	5.812709E-17
7.390917E+03	4.324876E-15	5.715718E-17
7.400811E+03	4.293725E-15	5.625393E-17
7.410705E+03	4.263587E-15	5.542272E-17
7.420600E+03	4.234578E-15	5.466878E-17
7.430494E+03	4.206805E-15	5.399720E-17
7.440388E+03	4.180313E-15	5.341215E-17
7.450282E+03	4.155308E-15	5.291980E-17
7.460176E+03	4.131714E-15	5.252255E-17
7.470070E+03	4.109737E-15	5.222623E-17
7.479964E+03	4.089413E-15	5.203426E-17
7.489859E+03	4.070879E-15	5.195116E-17
7.499753E+03	4.054090E-15	5.197885E-17
7.509647E+03	4.039145E-15	5.212072E-17
7.519541E+03	4.026002E-15	5.237637E-17
7.529435E+03	4.014743E-15	5.274501E-17
7.539329E+03	4.005189E-15	5.322209E-17
7.549223E+03	3.997217E-15	5.380360E-17
7.559117E+03	3.990690E-15	5.448515E-17
7.569012E+03	3.985279E-15	5.525954E-17
7.578906E+03	3.980664E-15	5.611936E-17
7.588800E+03	3.976300E-15	5.705363E-17
7.598694E+03	3.971648E-15	5.805095E-17
7.608588E+03	3.965983E-15	5.909652E-17
7.618482E+03	3.958613E-15	6.017512E-17
7.628376E+03	3.948956E-15	6.127240E-17
7.638271E+03	3.936908E-15	6.238075E-17
7.648165E+03	3.922700E-15	6.349778E-17
7.658059E+03	3.906828E-15	6.462575E-17
7.667953E+03	3.889700E-15	6.576626E-17
7.677847E+03	3.871745E-15	6.692187E-17
