#wls	flux	fluxerr
1.583061E+03	3.302436E-15	3.106054E-16
1.622638E+03	3.399247E-15	3.157426E-16
1.662214E+03	3.493930E-15	3.204147E-16
1.701791E+03	3.587831E-15	3.247493E-16
1.741367E+03	3.678653E-15	3.285425E-16
1.780944E+03	3.766059E-15	3.317746E-16
1.820520E+03	3.846180E-15	3.341215E-16
1.860097E+03	3.918270E-15	3.355462E-16
1.899673E+03	3.977520E-15	3.356730E-16
1.939250E+03	4.021649E-15	3.343617E-16
1.978827E+03	4.049265E-15	3.315572E-16
2.018403E+03	4.062805E-15	3.275212E-16
2.057980E+03	4.071606E-15	3.230513E-16
2.097556E+03	4.090359E-15	3.193162E-16
2.137133E+03	4.135398E-15	3.175356E-16
2.176709E+03	4.217804E-15	3.184482E-16
2.216286E+03	4.339992E-15	3.220894E-16
2.255862E+03	4.495108E-15	3.278059E-16
2.295439E+03	4.674576E-15	3.348551E-16
2.335015E+03	4.870590E-15	3.425915E-16
2.374592E+03	5.076168E-15	3.504661E-16
2.414168E+03	5.287100E-15	3.581540E-16
2.453745E+03	5.501970E-15	3.655381E-16
2.493321E+03	5.716859E-15	3.723458E-16
2.532898E+03	5.930052E-15	3.784663E-16
2.572475E+03	6.140803E-15	3.838593E-16
2.612051E+03	6.347583E-15	3.884411E-16
2.651628E+03	6.551795E-15	3.923128E-16
2.691204E+03	6.753221E-15	3.954740E-16
2.730781E+03	6.954546E-15	3.980889E-16
2.770357E+03	7.160106E-15	4.003977E-16
2.809934E+03	7.375220E-15	4.026715E-16
2.849510E+03	7.606649E-15	4.052313E-16
2.889087E+03	7.858899E-15	4.082461E-16
2.928663E+03	8.140565E-15	4.120694E-16
2.968240E+03	8.456490E-15	4.168260E-16
2.978134E+03	8.540670E-15	4.181381E-16
2.988028E+03	8.628131E-15	4.195539E-16
2.997922E+03	8.718935E-15	4.210731E-16
3.007816E+03	8.811983E-15	4.226400E-16
3.017710E+03	8.907375E-15	4.242571E-16
3.027605E+03	9.006363E-15	4.259816E-16
3.037499E+03	9.107807E-15	4.277566E-16
3.047393E+03	9.212874E-15	4.296342E-16
3.057287E+03	9.321678E-15	4.316162E-16
3.067181E+03	9.434171E-15	4.336971E-16
3.077075E+03	9.549137E-15	4.358180E-16
3.086969E+03	9.667657E-15	4.380257E-16
3.096864E+03	9.789641E-15	4.403128E-16
3.106758E+03	9.914991E-15	4.426719E-16
3.116652E+03	1.004359E-14	4.450951E-16
3.126546E+03	1.017531E-14	4.475733E-16
3.136440E+03	1.031116E-14	4.501487E-16
3.146334E+03	1.044861E-14	4.527073E-16
3.156228E+03	1.058980E-14	4.553405E-16
3.166122E+03	1.073330E-14	4.579842E-16
3.176017E+03	1.087884E-14	4.606248E-16
3.185911E+03	1.102729E-14	4.632978E-16
3.195805E+03	1.117831E-14	4.659867E-16
3.205699E+03	1.133029E-14	4.686232E-16
3.215593E+03	1.148399E-14	4.712376E-16
3.225487E+03	1.163890E-14	4.738091E-16
3.235381E+03	1.179325E-14	4.762654E-16
3.245276E+03	1.194886E-14	4.786808E-16
3.255170E+03	1.210263E-14	4.809320E-16
3.265064E+03	1.225626E-14	4.830881E-16
3.274958E+03	1.240772E-14	4.850717E-16
3.284852E+03	1.255619E-14	4.868531E-16
3.294746E+03	1.270194E-14	4.884476E-16
3.304640E+03	1.284281E-14	4.897757E-16
3.314534E+03	1.297899E-14	4.908506E-16
3.324429E+03	1.310820E-14	4.915926E-16
3.334323E+03	1.323176E-14	4.920582E-16
3.344217E+03	1.334614E-14	4.921236E-16
3.354111E+03	1.345258E-14	4.918447E-16
3.364005E+03	1.354756E-14	4.911021E-16
3.373899E+03	1.363234E-14	4.899525E-16
3.383793E+03	1.370462E-14	4.883250E-16
3.393688E+03	1.376451E-14	4.862362E-16
3.403582E+03	1.381098E-14	4.836623E-16
3.413476E+03	1.384192E-14	4.805440E-16
3.423370E+03	1.385762E-14	4.769055E-16
3.433264E+03	1.385722E-14	4.727327E-16
3.443158E+03	1.384094E-14	4.680482E-16
3.453052E+03	1.380572E-14	4.627638E-16
3.462946E+03	1.375308E-14	4.569461E-16
3.472841E+03	1.368296E-14	4.506067E-16
3.482735E+03	1.359567E-14	4.437705E-16
3.492629E+03	1.349088E-14	4.364401E-16
3.502523E+03	1.337052E-14	4.286911E-16
3.512417E+03	1.323661E-14	4.205996E-16
3.522311E+03	1.308945E-14	4.121854E-16
3.532205E+03	1.293046E-14	4.035024E-16
3.542100E+03	1.276197E-14	3.946318E-16
3.551994E+03	1.258548E-14	3.856259E-16
3.561888E+03	1.240252E-14	3.765365E-16
3.571782E+03	1.221457E-14	3.674127E-16
3.581676E+03	1.202317E-14	3.583027E-16
3.591570E+03	1.183047E-14	3.492719E-16
3.601464E+03	1.163710E-14	3.403388E-16
3.611358E+03	1.144504E-14	3.315603E-16
3.621253E+03	1.125547E-14	3.229679E-16
3.631147E+03	1.106948E-14	3.145902E-16
3.641041E+03	1.088872E-14	3.064691E-16
3.650935E+03	1.071345E-14	2.986074E-16
3.660829E+03	1.054514E-14	2.910403E-16
3.670723E+03	1.038396E-14	2.837663E-16
3.680617E+03	1.023164E-14	2.768258E-16
3.690512E+03	1.008801E-14	2.702063E-16
3.700406E+03	9.953172E-15	2.639037E-16
3.710300E+03	9.827516E-15	2.579203E-16
3.720194E+03	9.710329E-15	2.522302E-16
3.730088E+03	9.602235E-15	2.468424E-16
3.739982E+03	9.501953E-15	2.417169E-16
3.749876E+03	9.409985E-15	2.368600E-16
3.759770E+03	9.325496E-15	2.322445E-16
3.769665E+03	9.248057E-15	2.278538E-16
3.779559E+03	9.177650E-15	2.236821E-16
3.789453E+03	9.113774E-15	2.197120E-16
3.799347E+03	9.056301E-15	2.159356E-16
3.809241E+03	9.003965E-15	2.123184E-16
3.819135E+03	8.956593E-15	2.088529E-16
3.829029E+03	8.913978E-15	2.055309E-16
3.838924E+03	8.875561E-15	2.023366E-16
3.848818E+03	8.840474E-15	1.992481E-16
3.858712E+03	8.808564E-15	1.962600E-16
3.868606E+03	8.779675E-15	1.933675E-16
3.878500E+03	8.752772E-15	1.905467E-16
3.888394E+03	8.727820E-15	1.877965E-16
3.898288E+03	8.704523E-15	1.851102E-16
3.908182E+03	8.682922E-15	1.824890E-16
3.918077E+03	8.662260E-15	1.799170E-16
3.927971E+03	8.643212E-15	1.774091E-16
3.937865E+03	8.624807E-15	1.749460E-16
3.947759E+03	8.607491E-15	1.725379E-16
3.957653E+03	8.591154E-15	1.701837E-16
3.967547E+03	8.575500E-15	1.678788E-16
3.977441E+03	8.560505E-15	1.656243E-16
3.987336E+03	8.546145E-15	1.634217E-16
3.997230E+03	8.532653E-15	1.612770E-16
4.007124E+03	8.519757E-15	1.591871E-16
4.017018E+03	8.507392E-15	1.571529E-16
4.026912E+03	8.495220E-15	1.551705E-16
4.036806E+03	8.483523E-15	1.532477E-16
4.046700E+03	8.471638E-15	1.513751E-16
4.056594E+03	8.459317E-15	1.495513E-16
4.066489E+03	8.446484E-15	1.477783E-16
4.076383E+03	8.432497E-15	1.460483E-16
4.086277E+03	8.417382E-15	1.443654E-16
4.096171E+03	8.400860E-15	1.427284E-16
4.106065E+03	8.382776E-15	1.411384E-16
4.115959E+03	8.363653E-15	1.396081E-16
4.125853E+03	8.343217E-15	1.381360E-16
4.135748E+03	8.321847E-15	1.367320E-16
4.145642E+03	8.300174E-15	1.354094E-16
4.155536E+03	8.278206E-15	1.341710E-16
4.165430E+03	8.256824E-15	1.330337E-16
4.175324E+03	8.236080E-15	1.320004E-16
4.185218E+03	8.216664E-15	1.310841E-16
4.195112E+03	8.198733E-15	1.302891E-16
4.205006E+03	8.182689E-15	1.296233E-16
4.214901E+03	8.168573E-15	1.290887E-16
4.224795E+03	8.156697E-15	1.286898E-16
4.234689E+03	8.147184E-15	1.284249E-16
4.244583E+03	8.140002E-15	1.282892E-16
4.254477E+03	8.135204E-15	1.282794E-16
4.264371E+03	8.132661E-15	1.283891E-16
4.274265E+03	8.131676E-15	1.286029E-16
4.284159E+03	8.130656E-15	1.288912E-16
4.294054E+03	8.128399E-15	1.292304E-16
4.303948E+03	8.123153E-15	1.295877E-16
4.313842E+03	8.114078E-15	1.299443E-16
4.323736E+03	8.099897E-15	1.302742E-16
4.333630E+03	8.080418E-15	1.305683E-16
4.343524E+03	8.055377E-15	1.308163E-16
4.353418E+03	8.024811E-15	1.310125E-16
4.363313E+03	7.989002E-15	1.311552E-16
4.373207E+03	7.948540E-15	1.312481E-16
4.383101E+03	7.904161E-15	1.312975E-16
4.392995E+03	7.856694E-15	1.313116E-16
4.402889E+03	7.806997E-15	1.312996E-16
4.412783E+03	7.755802E-15	1.312693E-16
4.422677E+03	7.704098E-15	1.312331E-16
4.432571E+03	7.652405E-15	1.311961E-16
4.442466E+03	7.601269E-15	1.311645E-16
4.452360E+03	7.551166E-15	1.311436E-16
4.462254E+03	7.502238E-15	1.311332E-16
4.472148E+03	7.454807E-15	1.311366E-16
4.482042E+03	7.408904E-15	1.311524E-16
4.491936E+03	7.364509E-15	1.311785E-16
4.501830E+03	7.321662E-15	1.312137E-16
4.511725E+03	7.280471E-15	1.312587E-16
4.521619E+03	7.240853E-15	1.313106E-16
4.531513E+03	7.202925E-15	1.313703E-16
4.541407E+03	7.166626E-15	1.314357E-16
4.551301E+03	7.132009E-15	1.315068E-16
4.561195E+03	7.099326E-15	1.315874E-16
4.571089E+03	7.068485E-15	1.316753E-16
4.580983E+03	7.039678E-15	1.317733E-16
4.590878E+03	7.013115E-15	1.318851E-16
4.600772E+03	6.988838E-15	1.320110E-16
4.610666E+03	6.966982E-15	1.321533E-16
4.620560E+03	6.947857E-15	1.323177E-16
4.630454E+03	6.931421E-15	1.325032E-16
4.640348E+03	6.917881E-15	1.327138E-16
4.650242E+03	6.907341E-15	1.329513E-16
4.660137E+03	6.899888E-15	1.332174E-16
4.670031E+03	6.895500E-15	1.335115E-16
4.679925E+03	6.894378E-15	1.338377E-16
4.689819E+03	6.896354E-15	1.341924E-16
4.699713E+03	6.901295E-15	1.345730E-16
4.709607E+03	6.909178E-15	1.349788E-16
4.719501E+03	6.919670E-15	1.354032E-16
4.729395E+03	6.932531E-15	1.358413E-16
4.739290E+03	6.947448E-15	1.362864E-16
4.749184E+03	6.963959E-15	1.367293E-16
4.759078E+03	6.981566E-15	1.371598E-16
4.768972E+03	6.999909E-15	1.375704E-16
4.778866E+03	7.018277E-15	1.379468E-16
4.788760E+03	7.036276E-15	1.382809E-16
4.798654E+03	7.053260E-15	1.385598E-16
4.808549E+03	7.068678E-15	1.387723E-16
4.818443E+03	7.082091E-15	1.389098E-16
4.828337E+03	7.092873E-15	1.389601E-16
4.838231E+03	7.100698E-15	1.389170E-16
4.848125E+03	7.105220E-15	1.387740E-16
4.858019E+03	7.106000E-15	1.385232E-16
4.867913E+03	7.102989E-15	1.381642E-16
4.877807E+03	7.095971E-15	1.376939E-16
4.887702E+03	7.084894E-15	1.371122E-16
4.897596E+03	7.069717E-15	1.364195E-16
4.907490E+03	7.050589E-15	1.356203E-16
4.917384E+03	7.027865E-15	1.347227E-16
4.927278E+03	7.001750E-15	1.337323E-16
4.937172E+03	6.972798E-15	1.326614E-16
4.947066E+03	6.941264E-15	1.315165E-16
4.956961E+03	6.907555E-15	1.303070E-16
4.966855E+03	6.872159E-15	1.290438E-16
4.976749E+03	6.835405E-15	1.277348E-16
4.986643E+03	6.797773E-15	1.263905E-16
4.996537E+03	6.759577E-15	1.250184E-16
5.006431E+03	6.721198E-15	1.236272E-16
5.016325E+03	6.683012E-15	1.222250E-16
5.026219E+03	6.645383E-15	1.208200E-16
5.036114E+03	6.608760E-15	1.194216E-16
5.046008E+03	6.573376E-15	1.180352E-16
5.055902E+03	6.539754E-15	1.166713E-16
5.065796E+03	6.508144E-15	1.153352E-16
5.075690E+03	6.479066E-15	1.140370E-16
5.085584E+03	6.452794E-15	1.127822E-16
5.095478E+03	6.429619E-15	1.115765E-16
5.105373E+03	6.409769E-15	1.104243E-16
5.115267E+03	6.393379E-15	1.093285E-16
5.125161E+03	6.380537E-15	1.082908E-16
5.135055E+03	6.371037E-15	1.073085E-16
5.144949E+03	6.364858E-15	1.063815E-16
5.154843E+03	6.361711E-15	1.055059E-16
5.164737E+03	6.361316E-15	1.046777E-16
5.174631E+03	6.363436E-15	1.038942E-16
5.184526E+03	6.367622E-15	1.031491E-16
5.194420E+03	6.373686E-15	1.024410E-16
5.204314E+03	6.381239E-15	1.017651E-16
5.214208E+03	6.390040E-15	1.011196E-16
5.224102E+03	6.399645E-15	1.004993E-16
5.233996E+03	6.409869E-15	9.990374E-17
5.243890E+03	6.420318E-15	9.932910E-17
5.253785E+03	6.430712E-15	9.877366E-17
5.263679E+03	6.440550E-15	9.823252E-17
5.273573E+03	6.449577E-15	9.770470E-17
5.283467E+03	6.457326E-15	9.718620E-17
5.293361E+03	6.463396E-15	9.667412E-17
5.303255E+03	6.467465E-15	9.616686E-17
5.313149E+03	6.469039E-15	9.566027E-17
5.323043E+03	6.467925E-15	9.515471E-17
5.332938E+03	6.463713E-15	9.464723E-17
5.342832E+03	6.456323E-15	9.413958E-17
5.352726E+03	6.445546E-15	9.363144E-17
5.362620E+03	6.431277E-15	9.312375E-17
5.372514E+03	6.413808E-15	9.262181E-17
5.382408E+03	6.393419E-15	9.212769E-17
5.392302E+03	6.370694E-15	9.164712E-17
5.402196E+03	6.346185E-15	9.118513E-17
5.412091E+03	6.320372E-15	9.074555E-17
5.421985E+03	6.293830E-15	9.033340E-17
5.431879E+03	6.266956E-15	8.995117E-17
5.441773E+03	6.240161E-15	8.960149E-17
5.451667E+03	6.213730E-15	8.928520E-17
5.461561E+03	6.187950E-15	8.900325E-17
5.471455E+03	6.163107E-15	8.875667E-17
5.481350E+03	6.139369E-15	8.854486E-17
5.491244E+03	6.116912E-15	8.836746E-17
5.501138E+03	6.095762E-15	8.822207E-17
5.511032E+03	6.076108E-15	8.810872E-17
5.520926E+03	6.057889E-15	8.802400E-17
5.530820E+03	6.041302E-15	8.796833E-17
5.540714E+03	6.026457E-15	8.794096E-17
5.550608E+03	6.013372E-15	8.793998E-17
5.560503E+03	6.002352E-15	8.796776E-17
5.570397E+03	5.993630E-15	8.802575E-17
5.580291E+03	5.987425E-15	8.811532E-17
5.590185E+03	5.984046E-15	8.823927E-17
5.600079E+03	5.983892E-15	8.840187E-17
5.609973E+03	5.987261E-15	8.860596E-17
5.619867E+03	5.994564E-15	8.885619E-17
5.629762E+03	6.006024E-15	8.915445E-17
5.639656E+03	6.022075E-15	8.950583E-17
5.649550E+03	6.042992E-15	8.991307E-17
5.659444E+03	6.068940E-15	9.037733E-17
5.669338E+03	6.100081E-15	9.089966E-17
5.679232E+03	6.136504E-15	9.148000E-17
5.689126E+03	6.178204E-15	9.211685E-17
5.699020E+03	6.225080E-15	9.280724E-17
5.708915E+03	6.276989E-15	9.354749E-17
5.718809E+03	6.333487E-15	9.432935E-17
5.728703E+03	6.394197E-15	9.514558E-17
5.738597E+03	6.458573E-15	9.598638E-17
5.748491E+03	6.525961E-15	9.684030E-17
5.758385E+03	6.595542E-15	9.769353E-17
5.768279E+03	6.666549E-15	9.853308E-17
5.778174E+03	6.738082E-15	9.934417E-17
5.788068E+03	6.809060E-15	1.001095E-16
5.797962E+03	6.878623E-15	1.008152E-16
5.807856E+03	6.945698E-15	1.014448E-16
5.817750E+03	7.009279E-15	1.019829E-16
5.827644E+03	7.068396E-15	1.024152E-16
5.837538E+03	7.122153E-15	1.027288E-16
5.847432E+03	7.169677E-15	1.029118E-16
5.857327E+03	7.210300E-15	1.029557E-16
5.867221E+03	7.243601E-15	1.028558E-16
5.877115E+03	7.269217E-15	1.026089E-16
5.887009E+03	7.287020E-15	1.022156E-16
5.896903E+03	7.297298E-15	1.016825E-16
5.906797E+03	7.300458E-15	1.010181E-16
5.916691E+03	7.297230E-15	1.002357E-16
5.926586E+03	7.288599E-15	9.935177E-17
5.936480E+03	7.275761E-15	9.838580E-17
5.946374E+03	7.260021E-15	9.735827E-17
5.956268E+03	7.242828E-15	9.629129E-17
5.966162E+03	7.225877E-15	9.520969E-17
5.976056E+03	7.210840E-15	9.413742E-17
5.985950E+03	7.199281E-15	9.309629E-17
5.995844E+03	7.192954E-15	9.210999E-17
6.005739E+03	7.193364E-15	9.119825E-17
6.015633E+03	7.202145E-15	9.038181E-17
6.025527E+03	7.220703E-15	8.967792E-17
6.035421E+03	7.250385E-15	8.910258E-17
6.045315E+03	7.292307E-15	8.866853E-17
6.055209E+03	7.347402E-15	8.838606E-17
6.065103E+03	7.416439E-15	8.826347E-17
6.074998E+03	7.499884E-15	8.830556E-17
6.084892E+03	7.597858E-15	8.851352E-17
6.094786E+03	7.709971E-15	8.888330E-17
6.104680E+03	7.835397E-15	8.940688E-17
6.114574E+03	7.972587E-15	9.006942E-17
6.124468E+03	8.119255E-15	9.084947E-17
6.134362E+03	8.272003E-15	9.171532E-17
6.144256E+03	8.426300E-15	9.262513E-17
6.154151E+03	8.576701E-15	9.352965E-17
6.164045E+03	8.716268E-15	9.436591E-17
6.173939E+03	8.837206E-15	9.506407E-17
6.183833E+03	8.931391E-15	9.555246E-17
6.193727E+03	8.990304E-15	9.575586E-17
6.203621E+03	9.007298E-15	9.561848E-17
6.213515E+03	8.980272E-15	9.513053E-17
6.223410E+03	8.915021E-15	9.436224E-17
6.233304E+03	8.821583E-15	9.342466E-17
6.243198E+03	8.711366E-15	9.244004E-17
6.253092E+03	8.595114E-15	9.152116E-17
6.262986E+03	8.481911E-15	9.075755E-17
6.272880E+03	8.379391E-15	9.022172E-17
6.282774E+03	8.292979E-15	8.996461E-17
6.292668E+03	8.226838E-15	9.002615E-17
6.302563E+03	8.183689E-15	9.043325E-17
6.312457E+03	8.165217E-15	9.120403E-17
6.322351E+03	8.172117E-15	9.234789E-17
6.332245E+03	8.204637E-15	9.387105E-17
6.342139E+03	8.262482E-15	9.577510E-17
6.352033E+03	8.344769E-15	9.805589E-17
6.361927E+03	8.450332E-15	1.007065E-16
6.371822E+03	8.577815E-15	1.037180E-16
6.381716E+03	8.725228E-15	1.070733E-16
6.391610E+03	8.890378E-15	1.107522E-16
6.401504E+03	9.070552E-15	1.147265E-16
6.411398E+03	9.262638E-15	1.189613E-16
6.421292E+03	9.463307E-15	1.234164E-16
6.431186E+03	9.668695E-15	1.280419E-16
6.441080E+03	9.875322E-15	1.327899E-16
6.450975E+03	1.007932E-14	1.376043E-16
6.460869E+03	1.027745E-14	1.424343E-16
6.470763E+03	1.046666E-14	1.472288E-16
6.480657E+03	1.064393E-14	1.519347E-16
6.490551E+03	1.080654E-14	1.565008E-16
6.500445E+03	1.095173E-14	1.608726E-16
6.510339E+03	1.107709E-14	1.649990E-16
6.520234E+03	1.118039E-14	1.688296E-16
6.530128E+03	1.125972E-14	1.723174E-16
6.540022E+03	1.131356E-14	1.754201E-16
6.549916E+03	1.134133E-14	1.781095E-16
6.559810E+03	1.134266E-14	1.803607E-16
6.569704E+03	1.131776E-14	1.821585E-16
6.579598E+03	1.126731E-14	1.834960E-16
6.589492E+03	1.119249E-14	1.843758E-16
6.599387E+03	1.109456E-14	1.848037E-16
6.609281E+03	1.097536E-14	1.847964E-16
6.619175E+03	1.083683E-14	1.843749E-16
6.629069E+03	1.068100E-14	1.835632E-16
6.638963E+03	1.051022E-14	1.823934E-16
6.648857E+03	1.032680E-14	1.808989E-16
6.658751E+03	1.013295E-14	1.791135E-16
6.668645E+03	9.931185E-15	1.770782E-16
6.678540E+03	9.723509E-15	1.748270E-16
6.688434E+03	9.512184E-15	1.724001E-16
6.698328E+03	9.299359E-15	1.698371E-16
6.708222E+03	9.086723E-15	1.671709E-16
6.718116E+03	8.876112E-15	1.644379E-16
6.728010E+03	8.669062E-15	1.616700E-16
6.737904E+03	8.466908E-15	1.588962E-16
6.747799E+03	8.270798E-15	1.561427E-16
6.757693E+03	8.081692E-15	1.534322E-16
6.767587E+03	7.900371E-15	1.507846E-16
6.777481E+03	7.727542E-15	1.482184E-16
6.787375E+03	7.563477E-15	1.457439E-16
6.797269E+03	7.408588E-15	1.433739E-16
6.807163E+03	7.263178E-15	1.411188E-16
6.817057E+03	7.127196E-15	1.389822E-16
6.826952E+03	7.000848E-15	1.369724E-16
6.836846E+03	6.883896E-15	1.350885E-16
6.846740E+03	6.776323E-15	1.333339E-16
6.856634E+03	6.677767E-15	1.317047E-16
6.866528E+03	6.587870E-15	1.301969E-16
6.876422E+03	6.506110E-15	1.288025E-16
6.886316E+03	6.432141E-15	1.275172E-16
6.896211E+03	6.365412E-15	1.263320E-16
6.906105E+03	6.305183E-15	1.252339E-16
6.915999E+03	6.250917E-15	1.242137E-16
6.925893E+03	6.201973E-15	1.232600E-16
6.935787E+03	6.157771E-15	1.223621E-16
6.945681E+03	6.117491E-15	1.215049E-16
6.955575E+03	6.080613E-15	1.206787E-16
6.965469E+03	6.046406E-15	1.198699E-16
6.975364E+03	6.014154E-15	1.190649E-16
6.985258E+03	5.983386E-15	1.182552E-16
6.995152E+03	5.953447E-15	1.174286E-16
7.005046E+03	5.923793E-15	1.165751E-16
7.014940E+03	5.893931E-15	1.156859E-16
7.024834E+03	5.863433E-15	1.147538E-16
7.034728E+03	5.831941E-15	1.137729E-16
7.044623E+03	5.799263E-15	1.127406E-16
7.054517E+03	5.765087E-15	1.116523E-16
7.064411E+03	5.729419E-15	1.105097E-16
7.074305E+03	5.692339E-15	1.093159E-16
7.084199E+03	5.653865E-15	1.080729E-16
7.094093E+03	5.614142E-15	1.067853E-16
7.103987E+03	5.573353E-15	1.054584E-16
7.113881E+03	5.531698E-15	1.040976E-16
7.123776E+03	5.489464E-15	1.027102E-16
7.133670E+03	5.446728E-15	1.012995E-16
7.143564E+03	5.403842E-15	9.987384E-17
7.153458E+03	5.360944E-15	9.843745E-17
7.163352E+03	5.318294E-15	9.699689E-17
7.173246E+03	5.275997E-15	9.555577E-17
7.183140E+03	5.234200E-15	9.411849E-17
7.193035E+03	5.193091E-15	9.269013E-17
7.202929E+03	5.152684E-15	9.127261E-17
7.212823E+03	5.113022E-15	8.986847E-17
7.222717E+03	5.074179E-15	8.848076E-17
7.232611E+03	5.036119E-15	8.711065E-17
7.242505E+03	4.998705E-15	8.575771E-17
7.252399E+03	4.961914E-15	8.442354E-17
7.262293E+03	4.925572E-15	8.310728E-17
7.272188E+03	4.889628E-15	8.181035E-17
7.282082E+03	4.853977E-15	8.053333E-17
7.291976E+03	4.818467E-15	7.927618E-17
7.301870E+03	4.783092E-15	7.804141E-17
7.311764E+03	4.747808E-15	7.683098E-17
7.321658E+03	4.712533E-15	7.564633E-17
7.331552E+03	4.677337E-15	7.449142E-17
7.341447E+03	4.642305E-15	7.337051E-17
7.351341E+03	4.607424E-15	7.228625E-17
7.361235E+03	4.572762E-15	7.124268E-17
7.371129E+03	4.538470E-15	7.024504E-17
7.381023E+03	4.504601E-15	6.929709E-17
7.390917E+03	4.471225E-15	6.840278E-17
7.400811E+03	4.438598E-15	6.756886E-17
7.410705E+03	4.406677E-15	6.679747E-17
7.420600E+03	4.375711E-15	6.609510E-17
7.430494E+03	4.345750E-15	6.546517E-17
7.440388E+03	4.316946E-15	6.491251E-17
7.450282E+03	4.289264E-15	6.443909E-17
7.460176E+03	4.262910E-15	6.405037E-17
7.470070E+03	4.237937E-15	6.374938E-17
7.479964E+03	4.214408E-15	6.353922E-17
7.489859E+03	4.192547E-15	6.342524E-17
7.499753E+03	4.172332E-15	6.340900E-17
7.509647E+03	4.153889E-15	6.349416E-17
7.519541E+03	4.137255E-15	6.368225E-17
7.529435E+03	4.122437E-15	6.397225E-17
7.539329E+03	4.109349E-15	6.436121E-17
7.549223E+03	4.097914E-15	6.484628E-17
7.559117E+03	4.088113E-15	6.542543E-17
7.569012E+03	4.079581E-15	6.609102E-17
7.578906E+03	4.072125E-15	6.683797E-17
7.588800E+03	4.065323E-15	6.765724E-17
7.598694E+03	4.058606E-15	6.853688E-17
7.608588E+03	4.051402E-15	6.946438E-17
7.618482E+03	4.043194E-15	7.042749E-17
7.628376E+03	4.033462E-15	7.141333E-17
7.638271E+03	4.022061E-15	7.241507E-17
7.648165E+03	4.009241E-15	7.343289E-17
7.658059E+03	3.995279E-15	7.446772E-17
7.667953E+03	3.980592E-15	7.552355E-17
7.677847E+03	3.965457E-15	7.660223E-17
