#wls	flux	fluxerr
1.583061E+03	2.826681E-15	3.028080E-16
1.622638E+03	2.910852E-15	3.078279E-16
1.662214E+03	2.992294E-15	3.122764E-16
1.701791E+03	3.070854E-15	3.161453E-16
1.741367E+03	3.146294E-15	3.194190E-16
1.780944E+03	3.216078E-15	3.218542E-16
1.820520E+03	3.280250E-15	3.234772E-16
1.860097E+03	3.335677E-15	3.240063E-16
1.899673E+03	3.380372E-15	3.232888E-16
1.939250E+03	3.414062E-15	3.213468E-16
1.978827E+03	3.436727E-15	3.182284E-16
2.018403E+03	3.450216E-15	3.141536E-16
2.057980E+03	3.464334E-15	3.100439E-16
2.097556E+03	3.491235E-15	3.069666E-16
2.137133E+03	3.544858E-15	3.060667E-16
2.176709E+03	3.635071E-15	3.080541E-16
2.216286E+03	3.762776E-15	3.128273E-16
2.255862E+03	3.922073E-15	3.197216E-16
2.295439E+03	4.105132E-15	3.279544E-16
2.335015E+03	4.305249E-15	3.368803E-16
2.374592E+03	4.516982E-15	3.459932E-16
2.414168E+03	4.739514E-15	3.551698E-16
2.453745E+03	4.971631E-15	3.642631E-16
2.493321E+03	5.215762E-15	3.733953E-16
2.532898E+03	5.473911E-15	3.826432E-16
2.572475E+03	5.750664E-15	3.922470E-16
2.612051E+03	6.048203E-15	4.022568E-16
2.651628E+03	6.369055E-15	4.127312E-16
2.691204E+03	6.712665E-15	4.235191E-16
2.730781E+03	7.077869E-15	4.344365E-16
2.770357E+03	7.464372E-15	4.453592E-16
2.809934E+03	7.869902E-15	4.560522E-16
2.849510E+03	8.295017E-15	4.664582E-16
2.889087E+03	8.737759E-15	4.763835E-16
2.928663E+03	9.197292E-15	4.857117E-16
2.968240E+03	9.669165E-15	4.941535E-16
2.978134E+03	9.788204E-15	4.960781E-16
2.988028E+03	9.907966E-15	4.979432E-16
2.997922E+03	1.002829E-14	4.997403E-16
3.007816E+03	1.014904E-14	5.014626E-16
3.017710E+03	1.026899E-14	5.030504E-16
3.027605E+03	1.038917E-14	5.045554E-16
3.037499E+03	1.051052E-14	5.060229E-16
3.047393E+03	1.063056E-14	5.073343E-16
3.057287E+03	1.075147E-14	5.085949E-16
3.067181E+03	1.087070E-14	5.096850E-16
3.077075E+03	1.099020E-14	5.106982E-16
3.086969E+03	1.110738E-14	5.115160E-16
3.096864E+03	1.122421E-14	5.122314E-16
3.106758E+03	1.134032E-14	5.128302E-16
3.116652E+03	1.145425E-14	5.132477E-16
3.126546E+03	1.156561E-14	5.134717E-16
3.136440E+03	1.167406E-14	5.134901E-16
3.146334E+03	1.178032E-14	5.133403E-16
3.156228E+03	1.188404E-14	5.130102E-16
3.166122E+03	1.198479E-14	5.124858E-16
3.176017E+03	1.208104E-14	5.117078E-16
3.185911E+03	1.217353E-14	5.107134E-16
3.195805E+03	1.226184E-14	5.094911E-16
3.205699E+03	1.234444E-14	5.079843E-16
3.215593E+03	1.242317E-14	5.062762E-16
3.225487E+03	1.249649E-14	5.043110E-16
3.235381E+03	1.256404E-14	5.020813E-16
3.245276E+03	1.262543E-14	4.995804E-16
3.255170E+03	1.268138E-14	4.968450E-16
3.265064E+03	1.273046E-14	4.938275E-16
3.274958E+03	1.277237E-14	4.905256E-16
3.284852E+03	1.280787E-14	4.869783E-16
3.294746E+03	1.283670E-14	4.831837E-16
3.304640E+03	1.285760E-14	4.791040E-16
3.314534E+03	1.287139E-14	4.747804E-16
3.324429E+03	1.287796E-14	4.702174E-16
3.334323E+03	1.287816E-14	4.654552E-16
3.344217E+03	1.286996E-14	4.604294E-16
3.354111E+03	1.285437E-14	4.551862E-16
3.364005E+03	1.283237E-14	4.497690E-16
3.373899E+03	1.280309E-14	4.441557E-16
3.383793E+03	1.276762E-14	4.383923E-16
3.393688E+03	1.272521E-14	4.324606E-16
3.403582E+03	1.267700E-14	4.264070E-16
3.413476E+03	1.262324E-14	4.202468E-16
3.423370E+03	1.256419E-14	4.139946E-16
3.433264E+03	1.249928E-14	4.076381E-16
3.443158E+03	1.243041E-14	4.012441E-16
3.453052E+03	1.235688E-14	3.947927E-16
3.462946E+03	1.227953E-14	3.883129E-16
3.472841E+03	1.219767E-14	3.817835E-16
3.482735E+03	1.211211E-14	3.752322E-16
3.492629E+03	1.202298E-14	3.686633E-16
3.502523E+03	1.192975E-14	3.620613E-16
3.512417E+03	1.183404E-14	3.554771E-16
3.522311E+03	1.173474E-14	3.488766E-16
3.532205E+03	1.163352E-14	3.423098E-16
3.542100E+03	1.153002E-14	3.357664E-16
3.551994E+03	1.142525E-14	3.292743E-16
3.561888E+03	1.131954E-14	3.228424E-16
3.571782E+03	1.121265E-14	3.164621E-16
3.581676E+03	1.110553E-14	3.101594E-16
3.591570E+03	1.099911E-14	3.039575E-16
3.601464E+03	1.089255E-14	2.978318E-16
3.611358E+03	1.078728E-14	2.918187E-16
3.621253E+03	1.068355E-14	2.859221E-16
3.631147E+03	1.058105E-14	2.801311E-16
3.641041E+03	1.048001E-14	2.744488E-16
3.650935E+03	1.038159E-14	2.689028E-16
3.660829E+03	1.028538E-14	2.634791E-16
3.670723E+03	1.019145E-14	2.581765E-16
3.680617E+03	1.009981E-14	2.529920E-16
3.690512E+03	1.001088E-14	2.479335E-16
3.700406E+03	9.924159E-15	2.429849E-16
3.710300E+03	9.839957E-15	2.381517E-16
3.720194E+03	9.758118E-15	2.334271E-16
3.730088E+03	9.678463E-15	2.288045E-16
3.739982E+03	9.600414E-15	2.242681E-16
3.749876E+03	9.524895E-15	2.198375E-16
3.759770E+03	9.450524E-15	2.154789E-16
3.769665E+03	9.377805E-15	2.112025E-16
3.779559E+03	9.306113E-15	2.069932E-16
3.789453E+03	9.235537E-15	2.028520E-16
3.799347E+03	9.165795E-15	1.987722E-16
3.809241E+03	9.096288E-15	1.947407E-16
3.819135E+03	9.027385E-15	1.907654E-16
3.829029E+03	8.958160E-15	1.868272E-16
3.838924E+03	8.888981E-15	1.829345E-16
3.848818E+03	8.818983E-15	1.790706E-16
3.858712E+03	8.748533E-15	1.752445E-16
3.868606E+03	8.677148E-15	1.714480E-16
3.878500E+03	8.604689E-15	1.676803E-16
3.888394E+03	8.531332E-15	1.639470E-16
3.898288E+03	8.456777E-15	1.602446E-16
3.908182E+03	8.381053E-15	1.565760E-16
3.918077E+03	8.304239E-15	1.529454E-16
3.927971E+03	8.226669E-15	1.493613E-16
3.937865E+03	8.148225E-15	1.458243E-16
3.947759E+03	8.069073E-15	1.423397E-16
3.957653E+03	7.989379E-15	1.389133E-16
3.967547E+03	7.909306E-15	1.355503E-16
3.977441E+03	7.829050E-15	1.322567E-16
3.987336E+03	7.748810E-15	1.290383E-16
3.997230E+03	7.668778E-15	1.259007E-16
4.007124E+03	7.588969E-15	1.228465E-16
4.017018E+03	7.509604E-15	1.198817E-16
4.026912E+03	7.431060E-15	1.170148E-16
4.036806E+03	7.353182E-15	1.142453E-16
4.046700E+03	7.276343E-15	1.115815E-16
4.056594E+03	7.200706E-15	1.090279E-16
4.066489E+03	7.126278E-15	1.065867E-16
4.076383E+03	7.053253E-15	1.042627E-16
4.086277E+03	6.981694E-15	1.020590E-16
4.096171E+03	6.912002E-15	9.998315E-17
4.106065E+03	6.844323E-15	9.803890E-17
4.115959E+03	6.778865E-15	9.623071E-17
4.125853E+03	6.716151E-15	9.456730E-17
4.135748E+03	6.656318E-15	9.305164E-17
4.145642E+03	6.599910E-15	9.169221E-17
4.155536E+03	6.547074E-15	9.049171E-17
4.165430E+03	6.498298E-15	8.945742E-17
4.175324E+03	6.453748E-15	8.859202E-17
4.185218E+03	6.413520E-15	8.789706E-17
4.195112E+03	6.377723E-15	8.737366E-17
4.205006E+03	6.346207E-15	8.701543E-17
4.214901E+03	6.318807E-15	8.681428E-17
4.224795E+03	6.295118E-15	8.675895E-17
4.234689E+03	6.274709E-15	8.683781E-17
4.244583E+03	6.256836E-15	8.703493E-17
4.254477E+03	6.241019E-15	8.733802E-17
4.264371E+03	6.226457E-15	8.773014E-17
4.274265E+03	6.212599E-15	8.819775E-17
4.284159E+03	6.198968E-15	8.872822E-17
4.294054E+03	6.184864E-15	8.930559E-17
4.303948E+03	6.170132E-15	8.992161E-17
4.313842E+03	6.154222E-15	9.056224E-17
4.323736E+03	6.137076E-15	9.122066E-17
4.333630E+03	6.118533E-15	9.188856E-17
4.343524E+03	6.098502E-15	9.255883E-17
4.353418E+03	6.076969E-15	9.322567E-17
4.363313E+03	6.054157E-15	9.388715E-17
4.373207E+03	6.029993E-15	9.453716E-17
4.383101E+03	6.004894E-15	9.517745E-17
4.392995E+03	5.978971E-15	9.580547E-17
4.402889E+03	5.952532E-15	9.642215E-17
4.412783E+03	5.925816E-15	9.702782E-17
4.422677E+03	5.899225E-15	9.762583E-17
4.432571E+03	5.872888E-15	9.821553E-17
4.442466E+03	5.847048E-15	9.879851E-17
4.452360E+03	5.821830E-15	9.937469E-17
4.462254E+03	5.797482E-15	9.994642E-17
4.472148E+03	5.774075E-15	1.005133E-16
4.482042E+03	5.751658E-15	1.010748E-16
4.491936E+03	5.730410E-15	1.016328E-16
4.501830E+03	5.710347E-15	1.021865E-16
4.511725E+03	5.691617E-15	1.027378E-16
4.521619E+03	5.674146E-15	1.032844E-16
4.531513E+03	5.658074E-15	1.038284E-16
4.541407E+03	5.643399E-15	1.043692E-16
4.551301E+03	5.630256E-15	1.049087E-16
4.561195E+03	5.618720E-15	1.054481E-16
4.571089E+03	5.608801E-15	1.059873E-16
4.580983E+03	5.600643E-15	1.065288E-16
4.590878E+03	5.594325E-15	1.070739E-16
4.600772E+03	5.589852E-15	1.076226E-16
4.610666E+03	5.587354E-15	1.081774E-16
4.620560E+03	5.586949E-15	1.087406E-16
4.630454E+03	5.588609E-15	1.093114E-16
4.640348E+03	5.592415E-15	1.098916E-16
4.650242E+03	5.598487E-15	1.104834E-16
4.660137E+03	5.606729E-15	1.110848E-16
4.670031E+03	5.617212E-15	1.116972E-16
4.679925E+03	5.629980E-15	1.123213E-16
4.689819E+03	5.644924E-15	1.129547E-16
4.699713E+03	5.662093E-15	1.135983E-16
4.709607E+03	5.681372E-15	1.142495E-16
4.719501E+03	5.702605E-15	1.149047E-16
4.729395E+03	5.725471E-15	1.155572E-16
4.739290E+03	5.749776E-15	1.162026E-16
4.749184E+03	5.775035E-15	1.168305E-16
4.759078E+03	5.800843E-15	1.174323E-16
4.768972E+03	5.826635E-15	1.179960E-16
4.778866E+03	5.851814E-15	1.185090E-16
4.788760E+03	5.875959E-15	1.189622E-16
4.798654E+03	5.898385E-15	1.193415E-16
4.808549E+03	5.918605E-15	1.196367E-16
4.818443E+03	5.936171E-15	1.198387E-16
4.828337E+03	5.950631E-15	1.199384E-16
4.838231E+03	5.961654E-15	1.199294E-16
4.848125E+03	5.969033E-15	1.198080E-16
4.858019E+03	5.972501E-15	1.195695E-16
4.867913E+03	5.971918E-15	1.192119E-16
4.877807E+03	5.967340E-15	1.187377E-16
4.887702E+03	5.958640E-15	1.181454E-16
4.897596E+03	5.946019E-15	1.174406E-16
4.907490E+03	5.929634E-15	1.166280E-16
4.917384E+03	5.909738E-15	1.157143E-16
4.927278E+03	5.886713E-15	1.147089E-16
4.937172E+03	5.860914E-15	1.136206E-16
4.947066E+03	5.832703E-15	1.124583E-16
4.956961E+03	5.802517E-15	1.112324E-16
4.966855E+03	5.770736E-15	1.099521E-16
4.976749E+03	5.737804E-15	1.086276E-16
4.986643E+03	5.704042E-15	1.072668E-16
4.996537E+03	5.669880E-15	1.058796E-16
5.006431E+03	5.635669E-15	1.044739E-16
5.016325E+03	5.601803E-15	1.030587E-16
5.026219E+03	5.568545E-15	1.016402E-16
5.036114E+03	5.536261E-15	1.002262E-16
5.046008E+03	5.505300E-15	9.882433E-17
5.055902E+03	5.475883E-15	9.743944E-17
5.065796E+03	5.448279E-15	9.607724E-17
5.075690E+03	5.422786E-15	9.474376E-17
5.085584E+03	5.399615E-15	9.344339E-17
5.095478E+03	5.378938E-15	9.217966E-17
5.105373E+03	5.360831E-15	9.095441E-17
5.115267E+03	5.345482E-15	8.977137E-17
5.125161E+03	5.332918E-15	8.863144E-17
5.135055E+03	5.323005E-15	8.753295E-17
5.144949E+03	5.315836E-15	8.647809E-17
5.154843E+03	5.311139E-15	8.546313E-17
5.164737E+03	5.308925E-15	8.448918E-17
5.174631E+03	5.308914E-15	8.355286E-17
5.184526E+03	5.310926E-15	8.265260E-17
5.194420E+03	5.314868E-15	8.178851E-17
5.204314E+03	5.320430E-15	8.095750E-17
5.214208E+03	5.327514E-15	8.016008E-17
5.224102E+03	5.335803E-15	7.939370E-17
5.233996E+03	5.345177E-15	7.865906E-17
5.243890E+03	5.355344E-15	7.795457E-17
5.253785E+03	5.366047E-15	7.727946E-17
5.263679E+03	5.377055E-15	7.663366E-17
5.273573E+03	5.388004E-15	7.601540E-17
5.283467E+03	5.398611E-15	7.542438E-17
5.293361E+03	5.408569E-15	7.486016E-17
5.303255E+03	5.417389E-15	7.431995E-17
5.313149E+03	5.424775E-15	7.380387E-17
5.323043E+03	5.430313E-15	7.331039E-17
5.332938E+03	5.433633E-15	7.283867E-17
5.342832E+03	5.434268E-15	7.238647E-17
5.352726E+03	5.431884E-15	7.195319E-17
5.362620E+03	5.426174E-15	7.153830E-17
5.372514E+03	5.417139E-15	7.114496E-17
5.382408E+03	5.405163E-15	7.078011E-17
5.392302E+03	5.390655E-15	7.044708E-17
5.402196E+03	5.374179E-15	7.014971E-17
5.412091E+03	5.356296E-15	6.989144E-17
5.421985E+03	5.337438E-15	6.967378E-17
5.431879E+03	5.318111E-15	6.949904E-17
5.441773E+03	5.298733E-15	6.936832E-17
5.451667E+03	5.279628E-15	6.928153E-17
5.461561E+03	5.261241E-15	6.924019E-17
5.471455E+03	5.243766E-15	6.924269E-17
5.481350E+03	5.227462E-15	6.928834E-17
5.491244E+03	5.212553E-15	6.937626E-17
5.501138E+03	5.199235E-15	6.950533E-17
5.511032E+03	5.187677E-15	6.967430E-17
5.520926E+03	5.177927E-15	6.988047E-17
5.530820E+03	5.170182E-15	7.012336E-17
5.540714E+03	5.164588E-15	7.040201E-17
5.550608E+03	5.161193E-15	7.071430E-17
5.560503E+03	5.160202E-15	7.106048E-17
5.570397E+03	5.161783E-15	7.144045E-17
5.580291E+03	5.166063E-15	7.185370E-17
5.590185E+03	5.173220E-15	7.230063E-17
5.600079E+03	5.183385E-15	7.278108E-17
5.609973E+03	5.196788E-15	7.329644E-17
5.619867E+03	5.213595E-15	7.384730E-17
5.629762E+03	5.233850E-15	7.443261E-17
5.639656E+03	5.257781E-15	7.505399E-17
5.649550E+03	5.285435E-15	7.571048E-17
5.659444E+03	5.316861E-15	7.640123E-17
5.669338E+03	5.352072E-15	7.712481E-17
5.679232E+03	5.390978E-15	7.787827E-17
5.689126E+03	5.433529E-15	7.865922E-17
5.699020E+03	5.479565E-15	7.946358E-17
5.708915E+03	5.528867E-15	8.028634E-17
5.718809E+03	5.581089E-15	8.112059E-17
5.728703E+03	5.635875E-15	8.195921E-17
5.738597E+03	5.692875E-15	8.279506E-17
5.748491E+03	5.751567E-15	8.361853E-17
5.758385E+03	5.811498E-15	8.442098E-17
5.768279E+03	5.872074E-15	8.519171E-17
5.778174E+03	5.932729E-15	8.592053E-17
5.788068E+03	5.992944E-15	8.659805E-17
5.797962E+03	6.052027E-15	8.721249E-17
5.807856E+03	6.109535E-15	8.775587E-17
5.817750E+03	6.164871E-15	8.821824E-17
5.827644E+03	6.217545E-15	8.859144E-17
5.837538E+03	6.267073E-15	8.886772E-17
5.847432E+03	6.313233E-15	8.904337E-17
5.857327E+03	6.355717E-15	8.911376E-17
5.867221E+03	6.394348E-15	8.907646E-17
5.877115E+03	6.429196E-15	8.893277E-17
5.887009E+03	6.460417E-15	8.868543E-17
5.896903E+03	6.488280E-15	8.833891E-17
5.906797E+03	6.513327E-15	8.790153E-17
5.916691E+03	6.536178E-15	8.738261E-17
5.926586E+03	6.557540E-15	8.679257E-17
5.936480E+03	6.578368E-15	8.614489E-17
5.946374E+03	6.599577E-15	8.545221E-17
5.956268E+03	6.622307E-15	8.472964E-17
5.966162E+03	6.647687E-15	8.399161E-17
5.976056E+03	6.676813E-15	8.325147E-17
5.985950E+03	6.710857E-15	8.252294E-17
5.995844E+03	6.751114E-15	8.182045E-17
6.005739E+03	6.798500E-15	8.115309E-17
6.015633E+03	6.854261E-15	8.053324E-17
6.025527E+03	6.919221E-15	7.996758E-17
6.035421E+03	6.994202E-15	7.946231E-17
6.045315E+03	7.079928E-15	7.902213E-17
6.055209E+03	7.176786E-15	7.864776E-17
6.065103E+03	7.284909E-15	7.833730E-17
6.074998E+03	7.404232E-15	7.808725E-17
6.084892E+03	7.534119E-15	7.788894E-17
6.094786E+03	7.673636E-15	7.773214E-17
6.104680E+03	7.821207E-15	7.760214E-17
6.114574E+03	7.974773E-15	7.748209E-17
6.124468E+03	8.131515E-15	7.735116E-17
6.134362E+03	8.287949E-15	7.718620E-17
6.144256E+03	8.439937E-15	7.696264E-17
6.154151E+03	8.582313E-15	7.665164E-17
6.164045E+03	8.708883E-15	7.622081E-17
6.173939E+03	8.813083E-15	7.564018E-17
6.183833E+03	8.888270E-15	7.488408E-17
6.193727E+03	8.928205E-15	7.393394E-17
6.203621E+03	8.928501E-15	7.278825E-17
6.213515E+03	8.888046E-15	7.147102E-17
6.223410E+03	8.811058E-15	7.004472E-17
6.233304E+03	8.705046E-15	6.859089E-17
6.243198E+03	8.579233E-15	6.719675E-17
6.253092E+03	8.443209E-15	6.594522E-17
6.262986E+03	8.305866E-15	6.490824E-17
6.272880E+03	8.175320E-15	6.414696E-17
6.282774E+03	8.057765E-15	6.369704E-17
6.292668E+03	7.958124E-15	6.358093E-17
6.302563E+03	7.879864E-15	6.381199E-17
6.312457E+03	7.825578E-15	6.439996E-17
6.322351E+03	7.796626E-15	6.534819E-17
6.332245E+03	7.794003E-15	6.666066E-17
6.342139E+03	7.817933E-15	6.833820E-17
6.352033E+03	7.867993E-15	7.037891E-17
6.361927E+03	7.943691E-15	7.278247E-17
6.371822E+03	8.043830E-15	7.554384E-17
6.381716E+03	8.167186E-15	7.865855E-17
6.391610E+03	8.311950E-15	8.211681E-17
6.401504E+03	8.476036E-15	8.590547E-17
6.411398E+03	8.657006E-15	9.000655E-17
6.421292E+03	8.852025E-15	9.439601E-17
6.431186E+03	9.058189E-15	9.904642E-17
6.441080E+03	9.272153E-15	1.039226E-16
6.450975E+03	9.490588E-15	1.089859E-16
6.460869E+03	9.709908E-15	1.141913E-16
6.470763E+03	9.926773E-15	1.194926E-16
6.480657E+03	1.013759E-14	1.248367E-16
6.490551E+03	1.033882E-14	1.301674E-16
6.500445E+03	1.052711E-14	1.354269E-16
6.510339E+03	1.069898E-14	1.405527E-16
6.520234E+03	1.085153E-14	1.454860E-16
6.530128E+03	1.098183E-14	1.501650E-16
6.540022E+03	1.108742E-14	1.545322E-16
6.549916E+03	1.116667E-14	1.585394E-16
6.559810E+03	1.121810E-14	1.621399E-16
6.569704E+03	1.124099E-14	1.652976E-16
6.579598E+03	1.123530E-14	1.679869E-16
6.589492E+03	1.120149E-14	1.701904E-16
6.599387E+03	1.114051E-14	1.719001E-16
6.609281E+03	1.105376E-14	1.731168E-16
6.619175E+03	1.094305E-14	1.738507E-16
6.629069E+03	1.081068E-14	1.741221E-16
6.638963E+03	1.065872E-14	1.739506E-16
6.648857E+03	1.048971E-14	1.733668E-16
6.658751E+03	1.030614E-14	1.724033E-16
6.668645E+03	1.011065E-14	1.710974E-16
6.678540E+03	9.905562E-15	1.694849E-16
6.688434E+03	9.693502E-15	1.676081E-16
6.698328E+03	9.476520E-15	1.655025E-16
6.708222E+03	9.256760E-15	1.632065E-16
6.718116E+03	9.036514E-15	1.607634E-16
6.728010E+03	8.817249E-15	1.582030E-16
6.737904E+03	8.600774E-15	1.555624E-16
6.747799E+03	8.388385E-15	1.528705E-16
6.757693E+03	8.181386E-15	1.501571E-16
6.767587E+03	7.980794E-15	1.474470E-16
6.777481E+03	7.787343E-15	1.447603E-16
6.787375E+03	7.601862E-15	1.421190E-16
6.797269E+03	7.424655E-15	1.395351E-16
6.807163E+03	7.256231E-15	1.370245E-16
6.817057E+03	7.096693E-15	1.345952E-16
6.826952E+03	6.946113E-15	1.322542E-16
6.836846E+03	6.804457E-15	1.300062E-16
6.846740E+03	6.671672E-15	1.278551E-16
6.856634E+03	6.547465E-15	1.257998E-16
6.866528E+03	6.431554E-15	1.238391E-16
6.876422E+03	6.323676E-15	1.219717E-16
6.886316E+03	6.223366E-15	1.201918E-16
6.896211E+03	6.130273E-15	1.184956E-16
6.906105E+03	6.043868E-15	1.168755E-16
6.915999E+03	5.963746E-15	1.153260E-16
6.925893E+03	5.889343E-15	1.138382E-16
6.935787E+03	5.820231E-15	1.124054E-16
6.945681E+03	5.755831E-15	1.110181E-16
6.955575E+03	5.695712E-15	1.096693E-16
6.965469E+03	5.639312E-15	1.083494E-16
6.975364E+03	5.586147E-15	1.070501E-16
6.985258E+03	5.535817E-15	1.057648E-16
6.995152E+03	5.487808E-15	1.044848E-16
7.005046E+03	5.441697E-15	1.032029E-16
7.014940E+03	5.397085E-15	1.019126E-16
7.024834E+03	5.353675E-15	1.006094E-16
7.034728E+03	5.311004E-15	9.928560E-17
7.044623E+03	5.268844E-15	9.793827E-17
7.054517E+03	5.226946E-15	9.656408E-17
7.064411E+03	5.185099E-15	9.516054E-17
7.074305E+03	5.143129E-15	9.372597E-17
7.084199E+03	5.100845E-15	9.225852E-17
7.094093E+03	5.058151E-15	9.075823E-17
7.103987E+03	5.015048E-15	8.922692E-17
7.113881E+03	4.971501E-15	8.766592E-17
7.123776E+03	4.927376E-15	8.607484E-17
7.133670E+03	4.882805E-15	8.445815E-17
7.143564E+03	4.837694E-15	8.281632E-17
7.153458E+03	4.792141E-15	8.115334E-17
7.163352E+03	4.746198E-15	7.947233E-17
7.173246E+03	4.699922E-15	7.777663E-17
7.183140E+03	4.653319E-15	7.606873E-17
7.193035E+03	4.606520E-15	7.435321E-17
7.202929E+03	4.559541E-15	7.263289E-17
7.212823E+03	4.512466E-15	7.091162E-17
7.222717E+03	4.465431E-15	6.919418E-17
7.232611E+03	4.418464E-15	6.748365E-17
7.242505E+03	4.371704E-15	6.578488E-17
7.252399E+03	4.325176E-15	6.410098E-17
7.262293E+03	4.279007E-15	6.243673E-17
7.272188E+03	4.233213E-15	6.079527E-17
7.282082E+03	4.187969E-15	5.918216E-17
7.291976E+03	4.143339E-15	5.760141E-17
7.301870E+03	4.099387E-15	5.605710E-17
7.311764E+03	4.056229E-15	5.455420E-17
7.321658E+03	4.013929E-15	5.309704E-17
7.331552E+03	3.972661E-15	5.169151E-17
7.341447E+03	3.932490E-15	5.034222E-17
7.351341E+03	3.893488E-15	4.905397E-17
7.361235E+03	3.855675E-15	4.783114E-17
7.371129E+03	3.819178E-15	4.667956E-17
7.381023E+03	3.783925E-15	4.560278E-17
7.390917E+03	3.749996E-15	4.460636E-17
7.400811E+03	3.717372E-15	4.369481E-17
7.410705E+03	3.686183E-15	4.287439E-17
7.420600E+03	3.656406E-15	4.214957E-17
7.430494E+03	3.628162E-15	4.152640E-17
7.440388E+03	3.601419E-15	4.100894E-17
7.450282E+03	3.576331E-15	4.060311E-17
7.460176E+03	3.552799E-15	4.031162E-17
7.470070E+03	3.531000E-15	4.013978E-17
7.479964E+03	3.510810E-15	4.008900E-17
7.489859E+03	3.492323E-15	4.016239E-17
7.499753E+03	3.475521E-15	4.035880E-17
7.509647E+03	3.460314E-15	4.067399E-17
7.519541E+03	3.446637E-15	4.110348E-17
7.529435E+03	3.434393E-15	4.164210E-17
7.539329E+03	3.423549E-15	4.228518E-17
7.549223E+03	3.413858E-15	4.302524E-17
7.559117E+03	3.405131E-15	4.385534E-17
7.569012E+03	3.397198E-15	4.476861E-17
7.578906E+03	3.389862E-15	4.575777E-17
7.588800E+03	3.382771E-15	4.681335E-17
7.598694E+03	3.375710E-15	4.792747E-17
7.608588E+03	3.368421E-15	4.909165E-17
7.618482E+03	3.360681E-15	5.029765E-17
7.628376E+03	3.352353E-15	5.153848E-17
7.638271E+03	3.343261E-15	5.280653E-17
7.648165E+03	3.333334E-15	5.409581E-17
7.658059E+03	3.322596E-15	5.540201E-17
7.667953E+03	3.311028E-15	5.672034E-17
7.677847E+03	3.298729E-15	5.804823E-17
