#wls	flux	fluxerr
1.583061E+03	2.348241E-15	2.980483E-16
1.622638E+03	2.409829E-15	3.020616E-16
1.662214E+03	2.468772E-15	3.054979E-16
1.701791E+03	2.523858E-15	3.082181E-16
1.741367E+03	2.575582E-15	3.102977E-16
1.780944E+03	2.622797E-15	3.116140E-16
1.820520E+03	2.664602E-15	3.120815E-16
1.860097E+03	2.700456E-15	3.116631E-16
1.899673E+03	2.728922E-15	3.102248E-16
1.939250E+03	2.750290E-15	3.078364E-16
1.978827E+03	2.764087E-15	3.044830E-16
2.018403E+03	2.774012E-15	3.006060E-16
2.057980E+03	2.786076E-15	2.968677E-16
2.097556E+03	2.810968E-15	2.943763E-16
2.137133E+03	2.859890E-15	2.942144E-16
2.176709E+03	2.940316E-15	2.970029E-16
2.216286E+03	3.053026E-15	3.026404E-16
2.255862E+03	3.194420E-15	3.105904E-16
2.295439E+03	3.357292E-15	3.199971E-16
2.335015E+03	3.537749E-15	3.303673E-16
2.374592E+03	3.732853E-15	3.413237E-16
2.414168E+03	3.943532E-15	3.528569E-16
2.453745E+03	4.170675E-15	3.649466E-16
2.493321E+03	4.417380E-15	3.777538E-16
2.532898E+03	4.687499E-15	3.914776E-16
2.572475E+03	4.983912E-15	4.062068E-16
2.612051E+03	5.311200E-15	4.221423E-16
2.651628E+03	5.670996E-15	4.392202E-16
2.691204E+03	6.063657E-15	4.572674E-16
2.730781E+03	6.487211E-15	4.759389E-16
2.770357E+03	6.939766E-15	4.949120E-16
2.809934E+03	7.414377E-15	5.135312E-16
2.849510E+03	7.907625E-15	5.314388E-16
2.889087E+03	8.409816E-15	5.479012E-16
2.928663E+03	8.911129E-15	5.622621E-16
2.968240E+03	9.400958E-15	5.739048E-16
2.978134E+03	9.520508E-15	5.763352E-16
2.988028E+03	9.637174E-15	5.784750E-16
2.997922E+03	9.752801E-15	5.804389E-16
3.007816E+03	9.865069E-15	5.820924E-16
3.017710E+03	9.975931E-15	5.835553E-16
3.027605E+03	1.008417E-14	5.847599E-16
3.037499E+03	1.018952E-14	5.856963E-16
3.047393E+03	1.029176E-14	5.863560E-16
3.057287E+03	1.039076E-14	5.867377E-16
3.067181E+03	1.048730E-14	5.868911E-16
3.077075E+03	1.057893E-14	5.866849E-16
3.086969E+03	1.066753E-14	5.862300E-16
3.096864E+03	1.075281E-14	5.855166E-16
3.106758E+03	1.083236E-14	5.844201E-16
3.116652E+03	1.090804E-14	5.830508E-16
3.126546E+03	1.097857E-14	5.813460E-16
3.136440E+03	1.104369E-14	5.793020E-16
3.146334E+03	1.110426E-14	5.769719E-16
3.156228E+03	1.115900E-14	5.742978E-16
3.166122E+03	1.120774E-14	5.712806E-16
3.176017E+03	1.125136E-14	5.679748E-16
3.185911E+03	1.128865E-14	5.643289E-16
3.195805E+03	1.132056E-14	5.603990E-16
3.205699E+03	1.134591E-14	5.561373E-16
3.215593E+03	1.136568E-14	5.516017E-16
3.225487E+03	1.137876E-14	5.467480E-16
3.235381E+03	1.138616E-14	5.416349E-16
3.245276E+03	1.138787E-14	5.362705E-16
3.255170E+03	1.138288E-14	5.306179E-16
3.265064E+03	1.137127E-14	5.246904E-16
3.274958E+03	1.135509E-14	5.185927E-16
3.284852E+03	1.133149E-14	5.122026E-16
3.294746E+03	1.130352E-14	5.056687E-16
3.304640E+03	1.126942E-14	4.989190E-16
3.314534E+03	1.123126E-14	4.920541E-16
3.324429E+03	1.118642E-14	4.849668E-16
3.334323E+03	1.113795E-14	4.777974E-16
3.344217E+03	1.108515E-14	4.705223E-16
3.354111E+03	1.102741E-14	4.631220E-16
3.364005E+03	1.096595E-14	4.556543E-16
3.373899E+03	1.090107E-14	4.481372E-16
3.383793E+03	1.083311E-14	4.405895E-16
3.393688E+03	1.076242E-14	4.330297E-16
3.403582E+03	1.068937E-14	4.254762E-16
3.413476E+03	1.061431E-14	4.179463E-16
3.423370E+03	1.053761E-14	4.104574E-16
3.433264E+03	1.045960E-14	4.030238E-16
3.443158E+03	1.038135E-14	3.956885E-16
3.453052E+03	1.030166E-14	3.884041E-16
3.462946E+03	1.022165E-14	3.812121E-16
3.472841E+03	1.014246E-14	3.741522E-16
3.482735E+03	1.006375E-14	3.672092E-16
3.492629E+03	9.985958E-15	3.603955E-16
3.502523E+03	9.909520E-15	3.537238E-16
3.512417E+03	9.834840E-15	3.472043E-16
3.522311E+03	9.762942E-15	3.408688E-16
3.532205E+03	9.693501E-15	3.347008E-16
3.542100E+03	9.627446E-15	3.287273E-16
3.551994E+03	9.564402E-15	3.229299E-16
3.561888E+03	9.504592E-15	3.173109E-16
3.571782E+03	9.448818E-15	3.118915E-16
3.581676E+03	9.396605E-15	3.066500E-16
3.591570E+03	9.348079E-15	3.015852E-16
3.601464E+03	9.303874E-15	2.967117E-16
3.611358E+03	9.263994E-15	2.920236E-16
3.621253E+03	9.227809E-15	2.874953E-16
3.631147E+03	9.195790E-15	2.831362E-16
3.641041E+03	9.167203E-15	2.789183E-16
3.650935E+03	9.141811E-15	2.748298E-16
3.660829E+03	9.120383E-15	2.708895E-16
3.670723E+03	9.101485E-15	2.670500E-16
3.680617E+03	9.085228E-15	2.633112E-16
3.690512E+03	9.070650E-15	2.596423E-16
3.700406E+03	9.057806E-15	2.560426E-16
3.710300E+03	9.046220E-15	2.524965E-16
3.720194E+03	9.034906E-15	2.489752E-16
3.730088E+03	9.023903E-15	2.454794E-16
3.739982E+03	9.012734E-15	2.419960E-16
3.749876E+03	9.000463E-15	2.385002E-16
3.759770E+03	8.987611E-15	2.350071E-16
3.769665E+03	8.972791E-15	2.314819E-16
3.779559E+03	8.955608E-15	2.279169E-16
3.789453E+03	8.936552E-15	2.243273E-16
3.799347E+03	8.914324E-15	2.206839E-16
3.809241E+03	8.888973E-15	2.169917E-16
3.819135E+03	8.860144E-15	2.132464E-16
3.829029E+03	8.827063E-15	2.094344E-16
3.838924E+03	8.789851E-15	2.055640E-16
3.848818E+03	8.748257E-15	2.016350E-16
3.858712E+03	8.702085E-15	1.976488E-16
3.868606E+03	8.650794E-15	1.935998E-16
3.878500E+03	8.594726E-15	1.895021E-16
3.888394E+03	8.533884E-15	1.853626E-16
3.898288E+03	8.467971E-15	1.811817E-16
3.908182E+03	8.397519E-15	1.769775E-16
3.918077E+03	8.322759E-15	1.727614E-16
3.927971E+03	8.243598E-15	1.685381E-16
3.937865E+03	8.160418E-15	1.643218E-16
3.947759E+03	8.073960E-15	1.601333E-16
3.957653E+03	7.984649E-15	1.559865E-16
3.967547E+03	7.892621E-15	1.518891E-16
3.977441E+03	7.798370E-15	1.478555E-16
3.987336E+03	7.702715E-15	1.439055E-16
3.997230E+03	7.605829E-15	1.400462E-16
4.007124E+03	7.508195E-15	1.362900E-16
4.017018E+03	7.410547E-15	1.326532E-16
4.026912E+03	7.312691E-15	1.291349E-16
4.036806E+03	7.215543E-15	1.257537E-16
4.046700E+03	7.119107E-15	1.225115E-16
4.056594E+03	7.023368E-15	1.194099E-16
4.066489E+03	6.929081E-15	1.164632E-16
4.076383E+03	6.835952E-15	1.136676E-16
4.086277E+03	6.744503E-15	1.110326E-16
4.096171E+03	6.655019E-15	1.085633E-16
4.106065E+03	6.567598E-15	1.062616E-16
4.115959E+03	6.482870E-15	1.041374E-16
4.125853E+03	6.401036E-15	1.021934E-16
4.135748E+03	6.322766E-15	1.004392E-16
4.145642E+03	6.248305E-15	9.887745E-17
4.155536E+03	6.178099E-15	9.751373E-17
4.165430E+03	6.112327E-15	9.634908E-17
4.175324E+03	6.051694E-15	9.539091E-17
4.185218E+03	5.996180E-15	9.463111E-17
4.195112E+03	5.945645E-15	9.405949E-17
4.205006E+03	5.900370E-15	9.367284E-17
4.214901E+03	5.859523E-15	9.345065E-17
4.224795E+03	5.823045E-15	9.338501E-17
4.234689E+03	5.790296E-15	9.345896E-17
4.244583E+03	5.760116E-15	9.364726E-17
4.254477E+03	5.731928E-15	9.393399E-17
4.264371E+03	5.704377E-15	9.429039E-17
4.274265E+03	5.676894E-15	9.470028E-17
4.284159E+03	5.648375E-15	9.513838E-17
4.294054E+03	5.618354E-15	9.558977E-17
4.303948E+03	5.586114E-15	9.603509E-17
4.313842E+03	5.551392E-15	9.646258E-17
4.323736E+03	5.513767E-15	9.685780E-17
4.333630E+03	5.473296E-15	9.721464E-17
4.343524E+03	5.429716E-15	9.752160E-17
4.353418E+03	5.383402E-15	9.777886E-17
4.363313E+03	5.334699E-15	9.798660E-17
4.373207E+03	5.284034E-15	9.814719E-17
4.383101E+03	5.231765E-15	9.826232E-17
4.392995E+03	5.178572E-15	9.834045E-17
4.402889E+03	5.124978E-15	9.838792E-17
4.412783E+03	5.071212E-15	9.840604E-17
4.422677E+03	5.018005E-15	9.840654E-17
4.432571E+03	4.965619E-15	9.839268E-17
4.442466E+03	4.914384E-15	9.836952E-17
4.452360E+03	4.864440E-15	9.833881E-17
4.462254E+03	4.816264E-15	9.830948E-17
4.472148E+03	4.769791E-15	9.827985E-17
4.482042E+03	4.725300E-15	9.825549E-17
4.491936E+03	4.682805E-15	9.823673E-17
4.501830E+03	4.642542E-15	9.822874E-17
4.511725E+03	4.604491E-15	9.823152E-17
4.521619E+03	4.568858E-15	9.824990E-17
4.531513E+03	4.535607E-15	9.828375E-17
4.541407E+03	4.504705E-15	9.833298E-17
4.551301E+03	4.476435E-15	9.840442E-17
4.561195E+03	4.450744E-15	9.849772E-17
4.571089E+03	4.427679E-15	9.861466E-17
4.580983E+03	4.407281E-15	9.875691E-17
4.590878E+03	4.389580E-15	9.892588E-17
4.600772E+03	4.374597E-15	9.912277E-17
4.610666E+03	4.362239E-15	9.934615E-17
4.620560E+03	4.352608E-15	9.959893E-17
4.630454E+03	4.345688E-15	9.988132E-17
4.640348E+03	4.341352E-15	1.001909E-16
4.650242E+03	4.339656E-15	1.005293E-16
4.660137E+03	4.340539E-15	1.008955E-16
4.670031E+03	4.343922E-15	1.012878E-16
4.679925E+03	4.349611E-15	1.017019E-16
4.689819E+03	4.357488E-15	1.021351E-16
4.699713E+03	4.367606E-15	1.025885E-16
4.709607E+03	4.379508E-15	1.030512E-16
4.719501E+03	4.393296E-15	1.035255E-16
4.729395E+03	4.408558E-15	1.040014E-16
4.739290E+03	4.425048E-15	1.044726E-16
4.749184E+03	4.442589E-15	1.049345E-16
4.759078E+03	4.460885E-15	1.053799E-16
4.768972E+03	4.479521E-15	1.057983E-16
4.778866E+03	4.498255E-15	1.061836E-16
4.788760E+03	4.516736E-15	1.065272E-16
4.798654E+03	4.534510E-15	1.068180E-16
4.808549E+03	4.551319E-15	1.070496E-16
4.818443E+03	4.566829E-15	1.072141E-16
4.828337E+03	4.580647E-15	1.073022E-16
4.838231E+03	4.592710E-15	1.073125E-16
4.848125E+03	4.602618E-15	1.072360E-16
4.858019E+03	4.610225E-15	1.070698E-16
4.867913E+03	4.615636E-15	1.068168E-16
4.877807E+03	4.618725E-15	1.064749E-16
4.887702E+03	4.619431E-15	1.060436E-16
4.897596E+03	4.617946E-15	1.055284E-16
4.907490E+03	4.614509E-15	1.049358E-16
4.917384E+03	4.609131E-15	1.042671E-16
4.927278E+03	4.602237E-15	1.035334E-16
4.937172E+03	4.593888E-15	1.027371E-16
4.947066E+03	4.584530E-15	1.018895E-16
4.956961E+03	4.574326E-15	1.009954E-16
4.966855E+03	4.563528E-15	1.000615E-16
4.976749E+03	4.552387E-15	9.909446E-17
4.986643E+03	4.541143E-15	9.810058E-17
4.996537E+03	4.530122E-15	9.708781E-17
5.006431E+03	4.519453E-15	9.605985E-17
5.016325E+03	4.509438E-15	9.502392E-17
5.026219E+03	4.500099E-15	9.398120E-17
5.036114E+03	4.491894E-15	9.294192E-17
5.046008E+03	4.484737E-15	9.190483E-17
5.055902E+03	4.478974E-15	9.087751E-17
5.065796E+03	4.474761E-15	8.986351E-17
5.075690E+03	4.472151E-15	8.886422E-17
5.085584E+03	4.471269E-15	8.788238E-17
5.095478E+03	4.472300E-15	8.692190E-17
5.105373E+03	4.475318E-15	8.598437E-17
5.115267E+03	4.480277E-15	8.506916E-17
5.125161E+03	4.487186E-15	8.417672E-17
5.135055E+03	4.496195E-15	8.331019E-17
5.144949E+03	4.506988E-15	8.246418E-17
5.154843E+03	4.519749E-15	8.164265E-17
5.164737E+03	4.534196E-15	8.084129E-17
5.174631E+03	4.550301E-15	8.006057E-17
5.184526E+03	4.567844E-15	7.929790E-17
5.194420E+03	4.586777E-15	7.855392E-17
5.204314E+03	4.606953E-15	7.782790E-17
5.214208E+03	4.628142E-15	7.711801E-17
5.224102E+03	4.650368E-15	7.642703E-17
5.233996E+03	4.673196E-15	7.575050E-17
5.243890E+03	4.696715E-15	7.509292E-17
5.253785E+03	4.720539E-15	7.445151E-17
5.263679E+03	4.744529E-15	7.382783E-17
5.273573E+03	4.768335E-15	7.322055E-17
5.283467E+03	4.791844E-15	7.263243E-17
5.293361E+03	4.814540E-15	7.206044E-17
5.303255E+03	4.836052E-15	7.150424E-17
5.313149E+03	4.856148E-15	7.096589E-17
5.323043E+03	4.874183E-15	7.044165E-17
5.332938E+03	4.889749E-15	6.993155E-17
5.342832E+03	4.902330E-15	6.943421E-17
5.352726E+03	4.911341E-15	6.894732E-17
5.362620E+03	4.916596E-15	6.847403E-17
5.372514E+03	4.917827E-15	6.801602E-17
5.382408E+03	4.915371E-15	6.758279E-17
5.392302E+03	4.909598E-15	6.718351E-17
5.402196E+03	4.901246E-15	6.683121E-17
5.412091E+03	4.890689E-15	6.652950E-17
5.421985E+03	4.878545E-15	6.628266E-17
5.431879E+03	4.865296E-15	6.609259E-17
5.441773E+03	4.851466E-15	6.596141E-17
5.451667E+03	4.837159E-15	6.588532E-17
5.461561E+03	4.822983E-15	6.586727E-17
5.471455E+03	4.809135E-15	6.590459E-17
5.481350E+03	4.795867E-15	6.599543E-17
5.491244E+03	4.783392E-15	6.613754E-17
5.501138E+03	4.771902E-15	6.632854E-17
5.511032E+03	4.761563E-15	6.656592E-17
5.520926E+03	4.752524E-15	6.684714E-17
5.530820E+03	4.745012E-15	6.717106E-17
5.540714E+03	4.738975E-15	6.753286E-17
5.550608E+03	4.734717E-15	6.793302E-17
5.560503E+03	4.732271E-15	6.836841E-17
5.570397E+03	4.731843E-15	6.883871E-17
5.580291E+03	4.733374E-15	6.933997E-17
5.590185E+03	4.737155E-15	6.987359E-17
5.600079E+03	4.743300E-15	7.043858E-17
5.609973E+03	4.751822E-15	7.103273E-17
5.619867E+03	4.762814E-15	7.165511E-17
5.629762E+03	4.776446E-15	7.230615E-17
5.639656E+03	4.792688E-15	7.298339E-17
5.649550E+03	4.811676E-15	7.368700E-17
5.659444E+03	4.833430E-15	7.441546E-17
5.669338E+03	4.857858E-15	7.516557E-17
5.679232E+03	4.885022E-15	7.593652E-17
5.689126E+03	4.914773E-15	7.672426E-17
5.699020E+03	4.947213E-15	7.752864E-17
5.708915E+03	4.982043E-15	7.834322E-17
5.718809E+03	5.019219E-15	7.916549E-17
5.728703E+03	5.058481E-15	7.998957E-17
5.738597E+03	5.099845E-15	8.081382E-17
5.748491E+03	5.143023E-15	8.163182E-17
5.758385E+03	5.187715E-15	8.243689E-17
5.768279E+03	5.233915E-15	8.322702E-17
5.778174E+03	5.281226E-15	8.399397E-17
5.788068E+03	5.329553E-15	8.473433E-17
5.797962E+03	5.378820E-15	8.544500E-17
5.807856E+03	5.428663E-15	8.611837E-17
5.817750E+03	5.479155E-15	8.675380E-17
5.827644E+03	5.530088E-15	8.734627E-17
5.837538E+03	5.581292E-15	8.789143E-17
5.847432E+03	5.632959E-15	8.839074E-17
5.857327E+03	5.685016E-15	8.884155E-17
5.867221E+03	5.737563E-15	8.924399E-17
5.877115E+03	5.790761E-15	8.959917E-17
5.887009E+03	5.844954E-15	8.991107E-17
5.896903E+03	5.900225E-15	9.017964E-17
5.906797E+03	5.957173E-15	9.041268E-17
5.916691E+03	6.016120E-15	9.061364E-17
5.926586E+03	6.077560E-15	9.078846E-17
5.936480E+03	6.142155E-15	9.094536E-17
5.946374E+03	6.210244E-15	9.108752E-17
5.956268E+03	6.282666E-15	9.122525E-17
5.966162E+03	6.359911E-15	9.136338E-17
5.976056E+03	6.442708E-15	9.150988E-17
5.985950E+03	6.531386E-15	9.166665E-17
5.995844E+03	6.626737E-15	9.184191E-17
6.005739E+03	6.729107E-15	9.203730E-17
6.015633E+03	6.838869E-15	9.225476E-17
6.025527E+03	6.956415E-15	9.249635E-17
6.035421E+03	7.081577E-15	9.275680E-17
6.045315E+03	7.214514E-15	9.303556E-17
6.055209E+03	7.354740E-15	9.332425E-17
6.065103E+03	7.501750E-15	9.361524E-17
6.074998E+03	7.654359E-15	9.389377E-17
6.084892E+03	7.811109E-15	9.414367E-17
6.094786E+03	7.970041E-15	9.434517E-17
6.104680E+03	8.128588E-15	9.447434E-17
6.114574E+03	8.283730E-15	9.450568E-17
6.124468E+03	8.431450E-15	9.440659E-17
6.134362E+03	8.567309E-15	9.414472E-17
6.144256E+03	8.685729E-15	9.368058E-17
6.154151E+03	8.781264E-15	9.298186E-17
6.164045E+03	8.847708E-15	9.201343E-17
6.173939E+03	8.878527E-15	9.074172E-17
6.183833E+03	8.868417E-15	8.914954E-17
6.193727E+03	8.812738E-15	8.722798E-17
6.203621E+03	8.709856E-15	8.499722E-17
6.213515E+03	8.562502E-15	8.251587E-17
6.223410E+03	8.380007E-15	7.989854E-17
6.233304E+03	8.175505E-15	7.728596E-17
6.243198E+03	7.962251E-15	7.481024E-17
6.253092E+03	7.752410E-15	7.258583E-17
6.262986E+03	7.555888E-15	7.070148E-17
6.272880E+03	7.380690E-15	6.922642E-17
6.282774E+03	7.232109E-15	6.820108E-17
6.292668E+03	7.113696E-15	6.764368E-17
6.302563E+03	7.027549E-15	6.756207E-17
6.312457E+03	6.974101E-15	6.795289E-17
6.322351E+03	6.952713E-15	6.880660E-17
6.332245E+03	6.962614E-15	7.011599E-17
6.342139E+03	7.002513E-15	7.187169E-17
6.352033E+03	7.071415E-15	7.406973E-17
6.361927E+03	7.167500E-15	7.669939E-17
6.371822E+03	7.289686E-15	7.975874E-17
6.381716E+03	7.435973E-15	8.323657E-17
6.391610E+03	7.604580E-15	8.712367E-17
6.401504E+03	7.793262E-15	9.140477E-17
6.411398E+03	7.999449E-15	9.605903E-17
6.421292E+03	8.220272E-15	1.010597E-16
6.431186E+03	8.452415E-15	1.063713E-16
6.441080E+03	8.692820E-15	1.119579E-16
6.450975E+03	8.937550E-15	1.177686E-16
6.460869E+03	9.183148E-15	1.237539E-16
6.470763E+03	9.426118E-15	1.298594E-16
6.480657E+03	9.662528E-15	1.360204E-16
6.490551E+03	9.888466E-15	1.421675E-16
6.500445E+03	1.010069E-14	1.482365E-16
6.510339E+03	1.029545E-14	1.541515E-16
6.520234E+03	1.046937E-14	1.598385E-16
6.530128E+03	1.061960E-14	1.652279E-16
6.540022E+03	1.074338E-14	1.702484E-16
6.549916E+03	1.083884E-14	1.748408E-16
6.559810E+03	1.090503E-14	1.789599E-16
6.569704E+03	1.094114E-14	1.825624E-16
6.579598E+03	1.094721E-14	1.856196E-16
6.589492E+03	1.092404E-14	1.881174E-16
6.599387E+03	1.087246E-14	1.900440E-16
6.609281E+03	1.079423E-14	1.914063E-16
6.619175E+03	1.069121E-14	1.922161E-16
6.629069E+03	1.056531E-14	1.924892E-16
6.638963E+03	1.041909E-14	1.922563E-16
6.648857E+03	1.025478E-14	1.915457E-16
6.658751E+03	1.007511E-14	1.903981E-16
6.668645E+03	9.882602E-15	1.888533E-16
6.678540E+03	9.679498E-15	1.869493E-16
6.688434E+03	9.468608E-15	1.847373E-16
6.698328E+03	9.251793E-15	1.822528E-16
6.708222E+03	9.031399E-15	1.795430E-16
6.718116E+03	8.809391E-15	1.766494E-16
6.728010E+03	8.587355E-15	1.736076E-16
6.737904E+03	8.367254E-15	1.704621E-16
6.747799E+03	8.150098E-15	1.672392E-16
6.757693E+03	7.937257E-15	1.639731E-16
6.767587E+03	7.729725E-15	1.606912E-16
6.777481E+03	7.528484E-15	1.574208E-16
6.787375E+03	7.333844E-15	1.541754E-16
6.797269E+03	7.146474E-15	1.509760E-16
6.807163E+03	6.966736E-15	1.478372E-16
6.817057E+03	6.794867E-15	1.447706E-16
6.826952E+03	6.631002E-15	1.417854E-16
6.836846E+03	6.475034E-15	1.388853E-16
6.846740E+03	6.327216E-15	1.360814E-16
6.856634E+03	6.187290E-15	1.333734E-16
6.866528E+03	6.055089E-15	1.307626E-16
6.876422E+03	5.930393E-15	1.282486E-16
6.886316E+03	5.812815E-15	1.258272E-16
6.896211E+03	5.702328E-15	1.235015E-16
6.906105E+03	5.598480E-15	1.212649E-16
6.915999E+03	5.500810E-15	1.191105E-16
6.925893E+03	5.409097E-15	1.170362E-16
6.935787E+03	5.323098E-15	1.150390E-16
6.945681E+03	5.242208E-15	1.131080E-16
6.955575E+03	5.166184E-15	1.112398E-16
6.965469E+03	5.094660E-15	1.094283E-16
6.975364E+03	5.027168E-15	1.076649E-16
6.985258E+03	4.963586E-15	1.059484E-16
6.995152E+03	4.903349E-15	1.042680E-16
7.005046E+03	4.846242E-15	1.026204E-16
7.014940E+03	4.791948E-15	1.010001E-16
7.024834E+03	4.740064E-15	9.939951E-17
7.034728E+03	4.690415E-15	9.781628E-17
7.044623E+03	4.642739E-15	9.624597E-17
7.054517E+03	4.596693E-15	9.468265E-17
7.064411E+03	4.552163E-15	9.312523E-17
7.074305E+03	4.508851E-15	9.156883E-17
7.084199E+03	4.466690E-15	9.001344E-17
7.094093E+03	4.425530E-15	8.845743E-17
7.103987E+03	4.385042E-15	8.689568E-17
7.113881E+03	4.345319E-15	8.533166E-17
7.123776E+03	4.306266E-15	8.376513E-17
7.133670E+03	4.267706E-15	8.219436E-17
7.143564E+03	4.229576E-15	8.061999E-17
7.153458E+03	4.191819E-15	7.904286E-17
7.163352E+03	4.154486E-15	7.746597E-17
7.173246E+03	4.117343E-15	7.588712E-17
7.183140E+03	4.080552E-15	7.431155E-17
7.193035E+03	4.043986E-15	7.273928E-17
7.202929E+03	4.007626E-15	7.117249E-17
7.212823E+03	3.971454E-15	6.961346E-17
7.222717E+03	3.935456E-15	6.806471E-17
7.232611E+03	3.899532E-15	6.652745E-17
7.242505E+03	3.863856E-15	6.500772E-17
7.252399E+03	3.828337E-15	6.350712E-17
7.262293E+03	3.792888E-15	6.202761E-17
7.272188E+03	3.757606E-15	6.057433E-17
7.282082E+03	3.722504E-15	5.915119E-17
7.291976E+03	3.687518E-15	5.776101E-17
7.301870E+03	3.652850E-15	5.641099E-17
7.311764E+03	3.618367E-15	5.510321E-17
7.321658E+03	3.584121E-15	5.384278E-17
7.331552E+03	3.550255E-15	5.263629E-17
7.341447E+03	3.516838E-15	5.148923E-17
7.351341E+03	3.483867E-15	5.040613E-17
7.361235E+03	3.451508E-15	4.939401E-17
7.371129E+03	3.419775E-15	4.845763E-17
7.381023E+03	3.388763E-15	4.760289E-17
7.390917E+03	3.358653E-15	4.683671E-17
7.400811E+03	3.329542E-15	4.616466E-17
7.410705E+03	3.301370E-15	4.558990E-17
7.420600E+03	3.274387E-15	4.511958E-17
7.430494E+03	3.248683E-15	4.475823E-17
7.440388E+03	3.224190E-15	4.450783E-17
7.450282E+03	3.201144E-15	4.437405E-17
7.460176E+03	3.179544E-15	4.435880E-17
7.470070E+03	3.159531E-15	4.446424E-17
7.479964E+03	3.141088E-15	4.468729E-17
7.489859E+03	3.124189E-15	4.502411E-17
7.499753E+03	3.109020E-15	4.547374E-17
7.509647E+03	3.095603E-15	4.603280E-17
7.519541E+03	3.083789E-15	4.669540E-17
7.529435E+03	3.073621E-15	4.745852E-17
7.539329E+03	3.065108E-15	4.831880E-17
7.549223E+03	3.058069E-15	4.927007E-17
7.559117E+03	3.052344E-15	5.030645E-17
7.569012E+03	3.047705E-15	5.142103E-17
7.578906E+03	3.043833E-15	5.260519E-17
7.588800E+03	3.040290E-15	5.384794E-17
7.598694E+03	3.036550E-15	5.513622E-17
7.608588E+03	3.032038E-15	5.645525E-17
7.618482E+03	3.026159E-15	5.778903E-17
7.628376E+03	3.018435E-15	5.912278E-17
7.638271E+03	3.008633E-15	6.044582E-17
7.648165E+03	2.996775E-15	6.175229E-17
7.658059E+03	2.983039E-15	6.303980E-17
7.667953E+03	2.967737E-15	6.430929E-17
7.677847E+03	2.950968E-15	6.555775E-17
