#wls	flux	fluxerr
1.583061E+03	2.366117E-15	3.002180E-16
1.622638E+03	2.428888E-15	3.044109E-16
1.662214E+03	2.488592E-15	3.079745E-16
1.701791E+03	2.545287E-15	3.109266E-16
1.741367E+03	2.597695E-15	3.131245E-16
1.780944E+03	2.645959E-15	3.146029E-16
1.820520E+03	2.688694E-15	3.152173E-16
1.860097E+03	2.725326E-15	3.149273E-16
1.899673E+03	2.754382E-15	3.135942E-16
1.939250E+03	2.776136E-15	3.112867E-16
1.978827E+03	2.790568E-15	3.080400E-16
2.018403E+03	2.800485E-15	3.041978E-16
2.057980E+03	2.812437E-15	3.004845E-16
2.097556E+03	2.837688E-15	2.980732E-16
2.137133E+03	2.887083E-15	2.980119E-16
2.176709E+03	2.968163E-15	3.009325E-16
2.216286E+03	3.081706E-15	3.067355E-16
2.255862E+03	3.224060E-15	3.148797E-16
2.295439E+03	3.388419E-15	3.245458E-16
2.335015E+03	3.569750E-15	3.351308E-16
2.374592E+03	3.766622E-15	3.463990E-16
2.414168E+03	3.978259E-15	3.581843E-16
2.453745E+03	4.206020E-15	3.705139E-16
2.493321E+03	4.454251E-15	3.836613E-16
2.532898E+03	4.724983E-15	3.976707E-16
2.572475E+03	5.022449E-15	4.127509E-16
2.612051E+03	5.351399E-15	4.291188E-16
2.651628E+03	5.712767E-15	4.466545E-16
2.691204E+03	6.106759E-15	4.651761E-16
2.730781E+03	6.532052E-15	4.843875E-16
2.770357E+03	6.986691E-15	5.039580E-16
2.809934E+03	7.463656E-15	5.232187E-16
2.849510E+03	7.959477E-15	5.418021E-16
2.889087E+03	8.464366E-15	5.589564E-16
2.928663E+03	8.968373E-15	5.740035E-16
2.968240E+03	9.460663E-15	5.862976E-16
2.978134E+03	9.580591E-15	5.888716E-16
2.988028E+03	9.698578E-15	5.912090E-16
2.997922E+03	9.814368E-15	5.932976E-16
3.007816E+03	9.927742E-15	5.951282E-16
3.017710E+03	1.003959E-14	5.967579E-16
3.027605E+03	1.014761E-14	5.980544E-16
3.037499E+03	1.025368E-14	5.991331E-16
3.047393E+03	1.035647E-14	5.999216E-16
3.057287E+03	1.045695E-14	6.004798E-16
3.067181E+03	1.055372E-14	6.007335E-16
3.077075E+03	1.064649E-14	6.006721E-16
3.086969E+03	1.073495E-14	6.002851E-16
3.096864E+03	1.081990E-14	5.996238E-16
3.106758E+03	1.089996E-14	5.986195E-16
3.116652E+03	1.097596E-14	5.973242E-16
3.126546E+03	1.104654E-14	5.956727E-16
3.136440E+03	1.111148E-14	5.936613E-16
3.146334E+03	1.117162E-14	5.913436E-16
3.156228E+03	1.122672E-14	5.887161E-16
3.166122E+03	1.127554E-14	5.857217E-16
3.176017E+03	1.131789E-14	5.823618E-16
3.185911E+03	1.135573E-14	5.787457E-16
3.195805E+03	1.138578E-14	5.747161E-16
3.205699E+03	1.141106E-14	5.704358E-16
3.215593E+03	1.142939E-14	5.658055E-16
3.225487E+03	1.144177E-14	5.608843E-16
3.235381E+03	1.144813E-14	5.556790E-16
3.245276E+03	1.144746E-14	5.501507E-16
3.255170E+03	1.144081E-14	5.443597E-16
3.265064E+03	1.142821E-14	5.383174E-16
3.274958E+03	1.140973E-14	5.320367E-16
3.284852E+03	1.138550E-14	5.255316E-16
3.294746E+03	1.135468E-14	5.187737E-16
3.304640E+03	1.131935E-14	5.118665E-16
3.314534E+03	1.127782E-14	5.047418E-16
3.324429E+03	1.123217E-14	4.975008E-16
3.334323E+03	1.118083E-14	4.900810E-16
3.344217E+03	1.112588E-14	4.825809E-16
3.354111E+03	1.106670E-14	4.749798E-16
3.364005E+03	1.100277E-14	4.672621E-16
3.373899E+03	1.093618E-14	4.595217E-16
3.383793E+03	1.086642E-14	4.517417E-16
3.393688E+03	1.079468E-14	4.439760E-16
3.403582E+03	1.072053E-14	4.362095E-16
3.413476E+03	1.064357E-14	4.284300E-16
3.423370E+03	1.056653E-14	4.207502E-16
3.433264E+03	1.048746E-14	4.130926E-16
3.443158E+03	1.040818E-14	4.055320E-16
3.453052E+03	1.032901E-14	3.980779E-16
3.462946E+03	1.024953E-14	3.907135E-16
3.472841E+03	1.017015E-14	3.834513E-16
3.482735E+03	1.009200E-14	3.763314E-16
3.492629E+03	1.001476E-14	3.693389E-16
3.502523E+03	9.939517E-15	3.625104E-16
3.512417E+03	9.866624E-15	3.558540E-16
3.522311E+03	9.795761E-15	3.493536E-16
3.532205E+03	9.727910E-15	3.430398E-16
3.542100E+03	9.663320E-15	3.369160E-16
3.551994E+03	9.602241E-15	3.309852E-16
3.561888E+03	9.544272E-15	3.252282E-16
3.571782E+03	9.490195E-15	3.196662E-16
3.581676E+03	9.440124E-15	3.142970E-16
3.591570E+03	9.394144E-15	3.091176E-16
3.601464E+03	9.352293E-15	3.041233E-16
3.611358E+03	9.314000E-15	2.992897E-16
3.621253E+03	9.280305E-15	2.946448E-16
3.631147E+03	9.250525E-15	2.901610E-16
3.641041E+03	9.223932E-15	2.858104E-16
3.650935E+03	9.201346E-15	2.816136E-16
3.660829E+03	9.181895E-15	2.775391E-16
3.670723E+03	9.165218E-15	2.735719E-16
3.680617E+03	9.150902E-15	2.696962E-16
3.690512E+03	9.138480E-15	2.658953E-16
3.700406E+03	9.127976E-15	2.621674E-16
3.710300E+03	9.117917E-15	2.584684E-16
3.720194E+03	9.108783E-15	2.548111E-16
3.730088E+03	9.099602E-15	2.511675E-16
3.739982E+03	9.090364E-15	2.475375E-16
3.749876E+03	9.080111E-15	2.438955E-16
3.759770E+03	9.067941E-15	2.402191E-16
3.769665E+03	9.054769E-15	2.365347E-16
3.779559E+03	9.038811E-15	2.327978E-16
3.789453E+03	9.020530E-15	2.290240E-16
3.799347E+03	8.999075E-15	2.251953E-16
3.809241E+03	8.974484E-15	2.213170E-16
3.819135E+03	8.945962E-15	2.173741E-16
3.829029E+03	8.913162E-15	2.133638E-16
3.838924E+03	8.876196E-15	2.092947E-16
3.848818E+03	8.834412E-15	2.051575E-16
3.858712E+03	8.787613E-15	2.009544E-16
3.868606E+03	8.735685E-15	1.966899E-16
3.878500E+03	8.678944E-15	1.923783E-16
3.888394E+03	8.617031E-15	1.880186E-16
3.898288E+03	8.550390E-15	1.836280E-16
3.908182E+03	8.478464E-15	1.792016E-16
3.918077E+03	8.402199E-15	1.747670E-16
3.927971E+03	8.321527E-15	1.703293E-16
3.937865E+03	8.236804E-15	1.659028E-16
3.947759E+03	8.148761E-15	1.615083E-16
3.957653E+03	8.057179E-15	1.571476E-16
3.967547E+03	7.963182E-15	1.528481E-16
3.977441E+03	7.866651E-15	1.486126E-16
3.987336E+03	7.768414E-15	1.444615E-16
3.997230E+03	7.669257E-15	1.404136E-16
4.007124E+03	7.569094E-15	1.364707E-16
4.017018E+03	7.468667E-15	1.326496E-16
4.026912E+03	7.368115E-15	1.289557E-16
4.036806E+03	7.268326E-15	1.254069E-16
4.046700E+03	7.169078E-15	1.220015E-16
4.056594E+03	7.070651E-15	1.187460E-16
4.066489E+03	6.973541E-15	1.156505E-16
4.076383E+03	6.877757E-15	1.127161E-16
4.086277E+03	6.783583E-15	1.099485E-16
4.096171E+03	6.691341E-15	1.073535E-16
4.106065E+03	6.601619E-15	1.049406E-16
4.115959E+03	6.514400E-15	1.027091E-16
4.125853E+03	6.430369E-15	1.006693E-16
4.135748E+03	6.350014E-15	9.882765E-17
4.145642E+03	6.273827E-15	9.719039E-17
4.155536E+03	6.202082E-15	9.576004E-17
4.165430E+03	6.135203E-15	9.454115E-17
4.175324E+03	6.073704E-15	9.353856E-17
4.185218E+03	6.017613E-15	9.274507E-17
4.195112E+03	5.967011E-15	9.215349E-17
4.205006E+03	5.921648E-15	9.175188E-17
4.214901E+03	5.881628E-15	9.153416E-17
4.224795E+03	5.846176E-15	9.148100E-17
4.234689E+03	5.814678E-15	9.157572E-17
4.244583E+03	5.786499E-15	9.180153E-17
4.254477E+03	5.760505E-15	9.213369E-17
4.264371E+03	5.735608E-15	9.254803E-17
4.274265E+03	5.710688E-15	9.301946E-17
4.284159E+03	5.685346E-15	9.353431E-17
4.294054E+03	5.658610E-15	9.406942E-17
4.303948E+03	5.629897E-15	9.460766E-17
4.313842E+03	5.598880E-15	9.513612E-17
4.323736E+03	5.565078E-15	9.563920E-17
4.333630E+03	5.528323E-15	9.610664E-17
4.343524E+03	5.488614E-15	9.653131E-17
4.353418E+03	5.445975E-15	9.690674E-17
4.363313E+03	5.400851E-15	9.723442E-17
4.373207E+03	5.353514E-15	9.751339E-17
4.383101E+03	5.304585E-15	9.774964E-17
4.392995E+03	5.254453E-15	9.794575E-17
4.402889E+03	5.203523E-15	9.810527E-17
4.412783E+03	5.152560E-15	9.823922E-17
4.422677E+03	5.101782E-15	9.834911E-17
4.432571E+03	5.051727E-15	9.844309E-17
4.442466E+03	5.002627E-15	9.852402E-17
4.452360E+03	4.954894E-15	9.859881E-17
4.462254E+03	4.908540E-15	9.866680E-17
4.472148E+03	4.864000E-15	9.873618E-17
4.482042E+03	4.821330E-15	9.880785E-17
4.491936E+03	4.780673E-15	9.888474E-17
4.501830E+03	4.742049E-15	9.896736E-17
4.511725E+03	4.705780E-15	9.906274E-17
4.521619E+03	4.671646E-15	9.916671E-17
4.531513E+03	4.640048E-15	9.928830E-17
4.541407E+03	4.610755E-15	9.942321E-17
4.551301E+03	4.584043E-15	9.957803E-17
4.561195E+03	4.559971E-15	9.975478E-17
4.571089E+03	4.538396E-15	9.995114E-17
4.580983E+03	4.519561E-15	1.001731E-16
4.590878E+03	4.503404E-15	1.004201E-16
4.600772E+03	4.489951E-15	1.006935E-16
4.610666E+03	4.479124E-15	1.009920E-16
4.620560E+03	4.471113E-15	1.013207E-16
4.630454E+03	4.465813E-15	1.016778E-16
4.640348E+03	4.463107E-15	1.020610E-16
4.650242E+03	4.463135E-15	1.024739E-16
4.660137E+03	4.465653E-15	1.029114E-16
4.670031E+03	4.470673E-15	1.033739E-16
4.679925E+03	4.478092E-15	1.038591E-16
4.689819E+03	4.487786E-15	1.043642E-16
4.699713E+03	4.499605E-15	1.048857E-16
4.709607E+03	4.513281E-15	1.054173E-16
4.719501E+03	4.528789E-15	1.059579E-16
4.729395E+03	4.545715E-15	1.064978E-16
4.739290E+03	4.563884E-15	1.070324E-16
4.749184E+03	4.583002E-15	1.075543E-16
4.759078E+03	4.602746E-15	1.080556E-16
4.768972E+03	4.622683E-15	1.085256E-16
4.778866E+03	4.642625E-15	1.089594E-16
4.788760E+03	4.662107E-15	1.093458E-16
4.798654E+03	4.680745E-15	1.096752E-16
4.808549E+03	4.698072E-15	1.099366E-16
4.818443E+03	4.713914E-15	1.101258E-16
4.828337E+03	4.727953E-15	1.102353E-16
4.838231E+03	4.739734E-15	1.102545E-16
4.848125E+03	4.749218E-15	1.101831E-16
4.858019E+03	4.756156E-15	1.100156E-16
4.867913E+03	4.760457E-15	1.097506E-16
4.877807E+03	4.762181E-15	1.093903E-16
4.887702E+03	4.761278E-15	1.089347E-16
4.897596E+03	4.757940E-15	1.083891E-16
4.907490E+03	4.752239E-15	1.077565E-16
4.917384E+03	4.744472E-15	1.070449E-16
4.927278E+03	4.734886E-15	1.062612E-16
4.937172E+03	4.723662E-15	1.054109E-16
4.947066E+03	4.711165E-15	1.045035E-16
4.956961E+03	4.697676E-15	1.035465E-16
4.966855E+03	4.683471E-15	1.025475E-16
4.976749E+03	4.668821E-15	1.015134E-16
4.986643E+03	4.653907E-15	1.004496E-16
4.996537E+03	4.639148E-15	9.936616E-17
5.006431E+03	4.624700E-15	9.826745E-17
5.016325E+03	4.610709E-15	9.715752E-17
5.026219E+03	4.597556E-15	9.604532E-17
5.036114E+03	4.585445E-15	9.493579E-17
5.046008E+03	4.574403E-15	9.383019E-17
5.055902E+03	4.564692E-15	9.273450E-17
5.065796E+03	4.556557E-15	9.165419E-17
5.075690E+03	4.550064E-15	9.059102E-17
5.085584E+03	4.545418E-15	8.954944E-17
5.095478E+03	4.542560E-15	8.852859E-17
5.105373E+03	4.541806E-15	8.753496E-17
5.115267E+03	4.542954E-15	8.656495E-17
5.125161E+03	4.546174E-15	8.562218E-17
5.135055E+03	4.551364E-15	8.470513E-17
5.144949E+03	4.558552E-15	8.381484E-17
5.154843E+03	4.567578E-15	8.294905E-17
5.164737E+03	4.578346E-15	8.210684E-17
5.174631E+03	4.590823E-15	8.128866E-17
5.184526E+03	4.604884E-15	8.049355E-17
5.194420E+03	4.620323E-15	7.971933E-17
5.204314E+03	4.637005E-15	7.896546E-17
5.214208E+03	4.654875E-15	7.823305E-17
5.224102E+03	4.673710E-15	7.752062E-17
5.233996E+03	4.693439E-15	7.682960E-17
5.243890E+03	4.713818E-15	7.615887E-17
5.253785E+03	4.734663E-15	7.550871E-17
5.263679E+03	4.755851E-15	7.488070E-17
5.273573E+03	4.777070E-15	7.427377E-17
5.283467E+03	4.798142E-15	7.368934E-17
5.293361E+03	4.818693E-15	7.312615E-17
5.303255E+03	4.838470E-15	7.258517E-17
5.313149E+03	4.857015E-15	7.206455E-17
5.323043E+03	4.873989E-15	7.156453E-17
5.332938E+03	4.888840E-15	7.108245E-17
5.342832E+03	4.901074E-15	7.061666E-17
5.352726E+03	4.910287E-15	7.016680E-17
5.362620E+03	4.915962E-15	6.973085E-17
5.372514E+03	4.918027E-15	6.931278E-17
5.382408E+03	4.916707E-15	6.892025E-17
5.392302E+03	4.912463E-15	6.856355E-17
5.402196E+03	4.905888E-15	6.825313E-17
5.412091E+03	4.897488E-15	6.799371E-17
5.421985E+03	4.887662E-15	6.778680E-17
5.431879E+03	4.876934E-15	6.763528E-17
5.441773E+03	4.865613E-15	6.753874E-17
5.451667E+03	4.854131E-15	6.749826E-17
5.461561E+03	4.842704E-15	6.751183E-17
5.471455E+03	4.831676E-15	6.757926E-17
5.481350E+03	4.821272E-15	6.769870E-17
5.491244E+03	4.811605E-15	6.786690E-17
5.501138E+03	4.802927E-15	6.808267E-17
5.511032E+03	4.795391E-15	6.834364E-17
5.520926E+03	4.789133E-15	6.864741E-17
5.530820E+03	4.784284E-15	6.899174E-17
5.540714E+03	4.780882E-15	6.937327E-17
5.550608E+03	4.779213E-15	6.979248E-17
5.560503E+03	4.779232E-15	7.024527E-17
5.570397E+03	4.781222E-15	7.073259E-17
5.580291E+03	4.785138E-15	7.125077E-17
5.590185E+03	4.791260E-15	7.180122E-17
5.600079E+03	4.799617E-15	7.238177E-17
5.609973E+03	4.810316E-15	7.299161E-17
5.619867E+03	4.823532E-15	7.363115E-17
5.629762E+03	4.839261E-15	7.429823E-17
5.639656E+03	4.857566E-15	7.499175E-17
5.649550E+03	4.878571E-15	7.571173E-17
5.659444E+03	4.902209E-15	7.645529E-17
5.669338E+03	4.928555E-15	7.722176E-17
5.679232E+03	4.957487E-15	7.800746E-17
5.689126E+03	4.989021E-15	7.881085E-17
5.699020E+03	5.023060E-15	7.962864E-17
5.708915E+03	5.059389E-15	8.045561E-17
5.718809E+03	5.097937E-15	8.128878E-17
5.728703E+03	5.138522E-15	8.212341E-17
5.738597E+03	5.180944E-15	8.295442E-17
5.748491E+03	5.224894E-15	8.377494E-17
5.758385E+03	5.270327E-15	8.458234E-17
5.768279E+03	5.316830E-15	8.536809E-17
5.778174E+03	5.364359E-15	8.612956E-17
5.788068E+03	5.412511E-15	8.685838E-17
5.797962E+03	5.461171E-15	8.755090E-17
5.807856E+03	5.510252E-15	8.820394E-17
5.817750E+03	5.559408E-15	8.881025E-17
5.827644E+03	5.608709E-15	8.936936E-17
5.837538E+03	5.657885E-15	8.987540E-17
5.847432E+03	5.707104E-15	9.032966E-17
5.857327E+03	5.756302E-15	9.072979E-17
5.867221E+03	5.805577E-15	9.107610E-17
5.877115E+03	5.855100E-15	9.137013E-17
5.887009E+03	5.905119E-15	9.161464E-17
5.896903E+03	5.955956E-15	9.181357E-17
5.906797E+03	6.008112E-15	9.197357E-17
5.916691E+03	6.061947E-15	9.209897E-17
5.926586E+03	6.117879E-15	9.219496E-17
5.936480E+03	6.176700E-15	9.227211E-17
5.946374E+03	6.238918E-15	9.233648E-17
5.956268E+03	6.305286E-15	9.239748E-17
5.966162E+03	6.376239E-15	9.245950E-17
5.976056E+03	6.452649E-15	9.253300E-17
5.985950E+03	6.534918E-15	9.262126E-17
5.995844E+03	6.623862E-15	9.273320E-17
6.005739E+03	6.719887E-15	9.287159E-17
6.015633E+03	6.823421E-15	9.303934E-17
6.025527E+03	6.934771E-15	9.323763E-17
6.035421E+03	7.054084E-15	9.346556E-17
6.045315E+03	7.181430E-15	9.372146E-17
6.055209E+03	7.316252E-15	9.399599E-17
6.065103E+03	7.458191E-15	9.428339E-17
6.074998E+03	7.606133E-15	9.456946E-17
6.084892E+03	7.758509E-15	9.483629E-17
6.094786E+03	7.913653E-15	9.506712E-17
6.104680E+03	8.068889E-15	9.523586E-17
6.114574E+03	8.221029E-15	9.531401E-17
6.124468E+03	8.366326E-15	9.527077E-17
6.134362E+03	8.499848E-15	9.506663E-17
6.144256E+03	8.616418E-15	9.466468E-17
6.154151E+03	8.710264E-15	9.402683E-17
6.164045E+03	8.774743E-15	9.311088E-17
6.173939E+03	8.803792E-15	9.188563E-17
6.183833E+03	8.791190E-15	9.032170E-17
6.193727E+03	8.732589E-15	8.841085E-17
6.203621E+03	8.625510E-15	8.616285E-17
6.213515E+03	8.472257E-15	8.363151E-17
6.223410E+03	8.283361E-15	8.094426E-17
6.233304E+03	8.072372E-15	7.824772E-17
6.243198E+03	7.853414E-15	7.568443E-17
6.253092E+03	7.638659E-15	7.337088E-17
6.262986E+03	7.438237E-15	7.139975E-17
6.272880E+03	7.260015E-15	6.984057E-17
6.282774E+03	7.109133E-15	6.873420E-17
6.292668E+03	6.989270E-15	6.810196E-17
6.302563E+03	6.902221E-15	6.795002E-17
6.312457E+03	6.848287E-15	6.827456E-17
6.322351E+03	6.827546E-15	6.907385E-17
6.332245E+03	6.838799E-15	7.033712E-17
6.342139E+03	6.881199E-15	7.206018E-17
6.352033E+03	6.953473E-15	7.423698E-17
6.361927E+03	7.054091E-15	7.686046E-17
6.371822E+03	7.181506E-15	7.992448E-17
6.381716E+03	7.334266E-15	8.342443E-17
6.391610E+03	7.510009E-15	8.734527E-17
6.401504E+03	7.706918E-15	9.167718E-17
6.411398E+03	7.922166E-15	9.639692E-17
6.421292E+03	8.153040E-15	1.014801E-16
6.431186E+03	8.396385E-15	1.068940E-16
6.441080E+03	8.648778E-15	1.125987E-16
6.450975E+03	8.906588E-15	1.185477E-16
6.460869E+03	9.165861E-15	1.246855E-16
6.470763E+03	9.423068E-15	1.309578E-16
6.480657E+03	9.674097E-15	1.372975E-16
6.490551E+03	9.915007E-15	1.436349E-16
6.500445E+03	1.014189E-14	1.498964E-16
6.510339E+03	1.035099E-14	1.560055E-16
6.520234E+03	1.053873E-14	1.618849E-16
6.530128E+03	1.070212E-14	1.674622E-16
6.540022E+03	1.083829E-14	1.726639E-16
6.549916E+03	1.094539E-14	1.774304E-16
6.559810E+03	1.102159E-14	1.817017E-16
6.569704E+03	1.106683E-14	1.854459E-16
6.579598E+03	1.108062E-14	1.886245E-16
6.589492E+03	1.106347E-14	1.912177E-16
6.599387E+03	1.101688E-14	1.932244E-16
6.609281E+03	1.094196E-14	1.946393E-16
6.619175E+03	1.084065E-14	1.954744E-16
6.629069E+03	1.071562E-14	1.957585E-16
6.638963E+03	1.056888E-14	1.955119E-16
6.648857E+03	1.040324E-14	1.947728E-16
6.658751E+03	1.022136E-14	1.935801E-16
6.668645E+03	1.002590E-14	1.919761E-16
6.678540E+03	9.819275E-15	1.900017E-16
6.688434E+03	9.604412E-15	1.877100E-16
6.698328E+03	9.383509E-15	1.851432E-16
6.708222E+03	9.158811E-15	1.823463E-16
6.718116E+03	8.932380E-15	1.793628E-16
6.728010E+03	8.706076E-15	1.762338E-16
6.737904E+03	8.481724E-15	1.730011E-16
6.747799E+03	8.260419E-15	1.696926E-16
6.757693E+03	8.043731E-15	1.663471E-16
6.767587E+03	7.832524E-15	1.629890E-16
6.777481E+03	7.627642E-15	1.596430E-16
6.787375E+03	7.429905E-15	1.563333E-16
6.797269E+03	7.239520E-15	1.530713E-16
6.807163E+03	7.057154E-15	1.498780E-16
6.817057E+03	6.883037E-15	1.467651E-16
6.826952E+03	6.717015E-15	1.437355E-16
6.836846E+03	6.559401E-15	1.408022E-16
6.846740E+03	6.410004E-15	1.379665E-16
6.856634E+03	6.268828E-15	1.352340E-16
6.866528E+03	6.135559E-15	1.326027E-16
6.876422E+03	6.009965E-15	1.300720E-16
6.886316E+03	5.891771E-15	1.276401E-16
6.896211E+03	5.780788E-15	1.253066E-16
6.906105E+03	5.676558E-15	1.230648E-16
6.915999E+03	5.578726E-15	1.209099E-16
6.925893E+03	5.487037E-15	1.188393E-16
6.935787E+03	5.400885E-15	1.168419E-16
6.945681E+03	5.320114E-15	1.149167E-16
6.955575E+03	5.244228E-15	1.130547E-16
6.965469E+03	5.172846E-15	1.112495E-16
6.975364E+03	5.105595E-15	1.094944E-16
6.985258E+03	5.042214E-15	1.077854E-16
6.995152E+03	4.982137E-15	1.061117E-16
7.005046E+03	4.925129E-15	1.044693E-16
7.014940E+03	4.870962E-15	1.028548E-16
7.024834E+03	4.819121E-15	1.012583E-16
7.034728E+03	4.769418E-15	9.967704E-17
7.044623E+03	4.721681E-15	9.810864E-17
7.054517E+03	4.675461E-15	9.654498E-17
7.064411E+03	4.630539E-15	9.498279E-17
7.074305E+03	4.586906E-15	9.342326E-17
7.084199E+03	4.544193E-15	9.186026E-17
7.094093E+03	4.502345E-15	9.029417E-17
7.103987E+03	4.461137E-15	8.872206E-17
7.113881E+03	4.420553E-15	8.714530E-17
7.123776E+03	4.380407E-15	8.556195E-17
7.133670E+03	4.340715E-15	8.397421E-17
7.143564E+03	4.301320E-15	8.238098E-17
7.153458E+03	4.262262E-15	8.078508E-17
7.163352E+03	4.223408E-15	7.918612E-17
7.173246E+03	4.184724E-15	7.758572E-17
7.183140E+03	4.146180E-15	7.598575E-17
7.193035E+03	4.107845E-15	7.438992E-17
7.202929E+03	4.069527E-15	7.279735E-17
7.212823E+03	4.031385E-15	7.121364E-17
7.222717E+03	3.993240E-15	6.963847E-17
7.232611E+03	3.955259E-15	6.807774E-17
7.242505E+03	3.917271E-15	6.653161E-17
7.252399E+03	3.879362E-15	6.500486E-17
7.262293E+03	3.841542E-15	6.350102E-17
7.272188E+03	3.803822E-15	6.202382E-17
7.282082E+03	3.766140E-15	6.057596E-17
7.291976E+03	3.728605E-15	5.916302E-17
7.301870E+03	3.691251E-15	5.778948E-17
7.311764E+03	3.654045E-15	5.645888E-17
7.321658E+03	3.617120E-15	5.517746E-17
7.331552E+03	3.580464E-15	5.394925E-17
7.341447E+03	3.544230E-15	5.278087E-17
7.351341E+03	3.508425E-15	5.167674E-17
7.361235E+03	3.473216E-15	5.064360E-17
7.371129E+03	3.438553E-15	4.968499E-17
7.381023E+03	3.404760E-15	4.880971E-17
7.390917E+03	3.371720E-15	4.802008E-17
7.400811E+03	3.339683E-15	4.732347E-17
7.410705E+03	3.308681E-15	4.672387E-17
7.420600E+03	3.278817E-15	4.622593E-17
7.430494E+03	3.250257E-15	4.583490E-17
7.440388E+03	3.222959E-15	4.555263E-17
7.450282E+03	3.197154E-15	4.538443E-17
7.460176E+03	3.172856E-15	4.533208E-17
7.470070E+03	3.150145E-15	4.539664E-17
7.479964E+03	3.129095E-15	4.557623E-17
7.489859E+03	3.109770E-15	4.586831E-17
7.499753E+03	3.092219E-15	4.627007E-17
7.509647E+03	3.076482E-15	4.677852E-17
7.519541E+03	3.062641E-15	4.739141E-17
7.529435E+03	3.050550E-15	4.810313E-17
7.539329E+03	3.040233E-15	4.891079E-17
7.549223E+03	3.031663E-15	4.981093E-17
7.559117E+03	3.024559E-15	5.079609E-17
7.569012E+03	3.018770E-15	5.186088E-17
7.578906E+03	3.013990E-15	5.299728E-17
7.588800E+03	3.009891E-15	5.419659E-17
7.598694E+03	3.005863E-15	5.544467E-17
7.608588E+03	3.001432E-15	5.672905E-17
7.618482E+03	2.995975E-15	5.803366E-17
7.628376E+03	2.989108E-15	5.934617E-17
7.638271E+03	2.980515E-15	6.065498E-17
7.648165E+03	2.970254E-15	6.195572E-17
7.658059E+03	2.958402E-15	6.324463E-17
7.667953E+03	2.945207E-15	6.452199E-17
7.677847E+03	2.930857E-15	6.578733E-17
