#wls	flux	fluxerr
1.583061E+03	2.353000E-15	2.987357E-16
1.622638E+03	2.413342E-15	3.023669E-16
1.662214E+03	2.471072E-15	3.054162E-16
1.701791E+03	2.524632E-15	3.077030E-16
1.741367E+03	2.575013E-15	3.093650E-16
1.780944E+03	2.620720E-15	3.102386E-16
1.820520E+03	2.661822E-15	3.103545E-16
1.860097E+03	2.696961E-15	3.095792E-16
1.899673E+03	2.725211E-15	3.078395E-16
1.939250E+03	2.745969E-15	3.051050E-16
1.978827E+03	2.760136E-15	3.015158E-16
2.018403E+03	2.769990E-15	2.973540E-16
2.057980E+03	2.782831E-15	2.934145E-16
2.097556E+03	2.807910E-15	2.906389E-16
2.137133E+03	2.857328E-15	2.901858E-16
2.176709E+03	2.937659E-15	2.925667E-16
2.216286E+03	3.051079E-15	2.978098E-16
2.255862E+03	3.192098E-15	3.051892E-16
2.295439E+03	3.355049E-15	3.140038E-16
2.335015E+03	3.535212E-15	3.236834E-16
2.374592E+03	3.730899E-15	3.339656E-16
2.414168E+03	3.942117E-15	3.447502E-16
2.453745E+03	4.169787E-15	3.560143E-16
2.493321E+03	4.416941E-15	3.679033E-16
2.532898E+03	4.687224E-15	3.805874E-16
2.572475E+03	4.983826E-15	3.941705E-16
2.612051E+03	5.309523E-15	4.086987E-16
2.651628E+03	5.666571E-15	4.241567E-16
2.691204E+03	6.054110E-15	4.402858E-16
2.730781E+03	6.472145E-15	4.568984E-16
2.770357E+03	6.916726E-15	4.735384E-16
2.809934E+03	7.383965E-15	4.897914E-16
2.849510E+03	7.868423E-15	5.051826E-16
2.889087E+03	8.360990E-15	5.190628E-16
2.928663E+03	8.853861E-15	5.309463E-16
2.968240E+03	9.335675E-15	5.402176E-16
2.978134E+03	9.453145E-15	5.420694E-16
2.988028E+03	9.568233E-15	5.436729E-16
2.997922E+03	9.681835E-15	5.450831E-16
3.007816E+03	9.793758E-15	5.462927E-16
3.017710E+03	9.902755E-15	5.472364E-16
3.027605E+03	1.001096E-14	5.480367E-16
3.037499E+03	1.011475E-14	5.484992E-16
3.047393E+03	1.021732E-14	5.488044E-16
3.057287E+03	1.031633E-14	5.488302E-16
3.067181E+03	1.041266E-14	5.486292E-16
3.077075E+03	1.050603E-14	5.481938E-16
3.086969E+03	1.059624E-14	5.475176E-16
3.096864E+03	1.068184E-14	5.465341E-16
3.106758E+03	1.076377E-14	5.452989E-16
3.116652E+03	1.084065E-14	5.437494E-16
3.126546E+03	1.091459E-14	5.419996E-16
3.136440E+03	1.098306E-14	5.399312E-16
3.146334E+03	1.104703E-14	5.376009E-16
3.156228E+03	1.110631E-14	5.350079E-16
3.166122E+03	1.116076E-14	5.321539E-16
3.176017E+03	1.120905E-14	5.289847E-16
3.185911E+03	1.125337E-14	5.256133E-16
3.195805E+03	1.129127E-14	5.219338E-16
3.205699E+03	1.132383E-14	5.180067E-16
3.215593E+03	1.135095E-14	5.138361E-16
3.225487E+03	1.137255E-14	5.094282E-16
3.235381E+03	1.138747E-14	5.047407E-16
3.245276E+03	1.139793E-14	4.998822E-16
3.255170E+03	1.140167E-14	4.947621E-16
3.265064E+03	1.139982E-14	4.894395E-16
3.274958E+03	1.139241E-14	4.839250E-16
3.284852E+03	1.138058E-14	4.782756E-16
3.294746E+03	1.136218E-14	4.724093E-16
3.304640E+03	1.133841E-14	4.663853E-16
3.314534E+03	1.130830E-14	4.601725E-16
3.324429E+03	1.127410E-14	4.538710E-16
3.334323E+03	1.123487E-14	4.474500E-16
3.344217E+03	1.119078E-14	4.409232E-16
3.354111E+03	1.114197E-14	4.343036E-16
3.364005E+03	1.108762E-14	4.275662E-16
3.373899E+03	1.102995E-14	4.208032E-16
3.383793E+03	1.096814E-14	4.139886E-16
3.393688E+03	1.090144E-14	4.071002E-16
3.403582E+03	1.083201E-14	4.002236E-16
3.413476E+03	1.075911E-14	3.933353E-16
3.423370E+03	1.068295E-14	3.864479E-16
3.433264E+03	1.060377E-14	3.795728E-16
3.443158E+03	1.052091E-14	3.726902E-16
3.453052E+03	1.043648E-14	3.658742E-16
3.462946E+03	1.034991E-14	3.591039E-16
3.472841E+03	1.026171E-14	3.523956E-16
3.482735E+03	1.017241E-14	3.457651E-16
3.492629E+03	1.008338E-14	3.392570E-16
3.502523E+03	9.993502E-15	3.328299E-16
3.512417E+03	9.904112E-15	3.265258E-16
3.522311E+03	9.816487E-15	3.203827E-16
3.532205E+03	9.729475E-15	3.143585E-16
3.542100E+03	9.645048E-15	3.085126E-16
3.551994E+03	9.562019E-15	3.028023E-16
3.561888E+03	9.482222E-15	2.972809E-16
3.571782E+03	9.405142E-15	2.919269E-16
3.581676E+03	9.331012E-15	2.867423E-16
3.591570E+03	9.259989E-15	2.817268E-16
3.601464E+03	9.192894E-15	2.769002E-16
3.611358E+03	9.128384E-15	2.722167E-16
3.621253E+03	9.067867E-15	2.677136E-16
3.631147E+03	9.009950E-15	2.633448E-16
3.641041E+03	8.955896E-15	2.591428E-16
3.650935E+03	8.904893E-15	2.550795E-16
3.660829E+03	8.856783E-15	2.511462E-16
3.670723E+03	8.811350E-15	2.473330E-16
3.680617E+03	8.768966E-15	2.436468E-16
3.690512E+03	8.728115E-15	2.400421E-16
3.700406E+03	8.689135E-15	2.365260E-16
3.710300E+03	8.652299E-15	2.331032E-16
3.720194E+03	8.616686E-15	2.297468E-16
3.730088E+03	8.581942E-15	2.264458E-16
3.739982E+03	8.547753E-15	2.231907E-16
3.749876E+03	8.513772E-15	2.199718E-16
3.759770E+03	8.479671E-15	2.167802E-16
3.769665E+03	8.445121E-15	2.136077E-16
3.779559E+03	8.410354E-15	2.104604E-16
3.789453E+03	8.373949E-15	2.073034E-16
3.799347E+03	8.336698E-15	2.041578E-16
3.809241E+03	8.297242E-15	2.009916E-16
3.819135E+03	8.256388E-15	1.978266E-16
3.829029E+03	8.212846E-15	1.946339E-16
3.838924E+03	8.167441E-15	1.914356E-16
3.848818E+03	8.119480E-15	1.882183E-16
3.858712E+03	8.068329E-15	1.849702E-16
3.868606E+03	8.014891E-15	1.817155E-16
3.878500E+03	7.958612E-15	1.784448E-16
3.888394E+03	7.899012E-15	1.751510E-16
3.898288E+03	7.837086E-15	1.718598E-16
3.908182E+03	7.771981E-15	1.685560E-16
3.918077E+03	7.704747E-15	1.652662E-16
3.927971E+03	7.634645E-15	1.619779E-16
3.937865E+03	7.562336E-15	1.587088E-16
3.947759E+03	7.488054E-15	1.554672E-16
3.957653E+03	7.412059E-15	1.522616E-16
3.967547E+03	7.334625E-15	1.491009E-16
3.977441E+03	7.255638E-15	1.459854E-16
3.987336E+03	7.175808E-15	1.429324E-16
3.997230E+03	7.095429E-15	1.399501E-16
4.007124E+03	7.014784E-15	1.370463E-16
4.017018E+03	6.933772E-15	1.342211E-16
4.026912E+03	6.853040E-15	1.314890E-16
4.036806E+03	6.772830E-15	1.288562E-16
4.046700E+03	6.693016E-15	1.263218E-16
4.056594E+03	6.614178E-15	1.238980E-16
4.066489E+03	6.536519E-15	1.215897E-16
4.076383E+03	6.459905E-15	1.193952E-16
4.086277E+03	6.384551E-15	1.173192E-16
4.096171E+03	6.310994E-15	1.153721E-16
4.106065E+03	6.239428E-15	1.135576E-16
4.115959E+03	6.169437E-15	1.118683E-16
4.125853E+03	6.102151E-15	1.103245E-16
4.135748E+03	6.036841E-15	1.089128E-16
4.145642E+03	5.974281E-15	1.076467E-16
4.155536E+03	5.914309E-15	1.065226E-16
4.165430E+03	5.857304E-15	1.055461E-16
4.175324E+03	5.802740E-15	1.047028E-16
4.185218E+03	5.751150E-15	1.039962E-16
4.195112E+03	5.702155E-15	1.034134E-16
4.205006E+03	5.655579E-15	1.029455E-16
4.214901E+03	5.611161E-15	1.025820E-16
4.224795E+03	5.568561E-15	1.023112E-16
4.234689E+03	5.527370E-15	1.021200E-16
4.244583E+03	5.487121E-15	1.019945E-16
4.254477E+03	5.447312E-15	1.019200E-16
4.264371E+03	5.407209E-15	1.018773E-16
4.274265E+03	5.366871E-15	1.018623E-16
4.284159E+03	5.325485E-15	1.018540E-16
4.294054E+03	5.283259E-15	1.018513E-16
4.303948E+03	5.239298E-15	1.018315E-16
4.313842E+03	5.194162E-15	1.018004E-16
4.323736E+03	5.147330E-15	1.017428E-16
4.333630E+03	5.099034E-15	1.016584E-16
4.343524E+03	5.049131E-15	1.015399E-16
4.353418E+03	4.997983E-15	1.013901E-16
4.363313E+03	4.945783E-15	1.012091E-16
4.373207E+03	4.892567E-15	1.009939E-16
4.383101E+03	4.838621E-15	1.007472E-16
4.392995E+03	4.784445E-15	1.004764E-16
4.402889E+03	4.730145E-15	1.001814E-16
4.412783E+03	4.676029E-15	9.986654E-17
4.422677E+03	4.622575E-15	9.954024E-17
4.432571E+03	4.569863E-15	9.920290E-17
4.442466E+03	4.518143E-15	9.885882E-17
4.452360E+03	4.467636E-15	9.851203E-17
4.462254E+03	4.418538E-15	9.816632E-17
4.472148E+03	4.371193E-15	9.782902E-17
4.482042E+03	4.325576E-15	9.749948E-17
4.491936E+03	4.281648E-15	9.717687E-17
4.501830E+03	4.239858E-15	9.687152E-17
4.511725E+03	4.200135E-15	9.658216E-17
4.521619E+03	4.162404E-15	9.630741E-17
4.531513E+03	4.127054E-15	9.605679E-17
4.541407E+03	4.093832E-15	9.582490E-17
4.551301E+03	4.063099E-15	9.562074E-17
4.561195E+03	4.034586E-15	9.543862E-17
4.571089E+03	4.008479E-15	9.528349E-17
4.580983E+03	3.984800E-15	9.515645E-17
4.590878E+03	3.963562E-15	9.505840E-17
4.600772E+03	3.944622E-15	9.498643E-17
4.610666E+03	3.928121E-15	9.494444E-17
4.620560E+03	3.914044E-15	9.493249E-17
4.630454E+03	3.902364E-15	9.495035E-17
4.640348E+03	3.892903E-15	9.499403E-17
4.650242E+03	3.885755E-15	9.506609E-17
4.660137E+03	3.880860E-15	9.516527E-17
4.670031E+03	3.878010E-15	9.528660E-17
4.679925E+03	3.877258E-15	9.543143E-17
4.689819E+03	3.878507E-15	9.559738E-17
4.699713E+03	3.881509E-15	9.577825E-17
4.709607E+03	3.886140E-15	9.597088E-17
4.719501E+03	3.892534E-15	9.617834E-17
4.729395E+03	3.900266E-15	9.638990E-17
4.739290E+03	3.909171E-15	9.660118E-17
4.749184E+03	3.919208E-15	9.681085E-17
4.759078E+03	3.930187E-15	9.701389E-17
4.768972E+03	3.941778E-15	9.720178E-17
4.778866E+03	3.953778E-15	9.736920E-17
4.788760E+03	3.966122E-15	9.751419E-17
4.798654E+03	3.978606E-15	9.763147E-17
4.808549E+03	3.990902E-15	9.771275E-17
4.818443E+03	4.002963E-15	9.775667E-17
4.828337E+03	4.014488E-15	9.775579E-17
4.838231E+03	4.025471E-15	9.770991E-17
4.848125E+03	4.035655E-15	9.761287E-17
4.858019E+03	4.045085E-15	9.746591E-17
4.867913E+03	4.053568E-15	9.726456E-17
4.877807E+03	4.061208E-15	9.701165E-17
4.887702E+03	4.067873E-15	9.670442E-17
4.897596E+03	4.073732E-15	9.634731E-17
4.907490E+03	4.078709E-15	9.593905E-17
4.917384E+03	4.083025E-15	9.548538E-17
4.927278E+03	4.086653E-15	9.498623E-17
4.937172E+03	4.089849E-15	9.444815E-17
4.947066E+03	4.092616E-15	9.387179E-17
4.956961E+03	4.095233E-15	9.326410E-17
4.966855E+03	4.097849E-15	9.262904E-17
4.976749E+03	4.100486E-15	9.196758E-17
4.986643E+03	4.103298E-15	9.128367E-17
4.996537E+03	4.106568E-15	9.058410E-17
5.006431E+03	4.110447E-15	8.987248E-17
5.016325E+03	4.114947E-15	8.914942E-17
5.026219E+03	4.120340E-15	8.842107E-17
5.036114E+03	4.126627E-15	8.768767E-17
5.046008E+03	4.134064E-15	8.695479E-17
5.055902E+03	4.142765E-15	8.622493E-17
5.065796E+03	4.152704E-15	8.549759E-17
5.075690E+03	4.163972E-15	8.477474E-17
5.085584E+03	4.176909E-15	8.406328E-17
5.095478E+03	4.191312E-15	8.335913E-17
5.105373E+03	4.207225E-15	8.266319E-17
5.115267E+03	4.224801E-15	8.197862E-17
5.125161E+03	4.244044E-15	8.130557E-17
5.135055E+03	4.264935E-15	8.064389E-17
5.144949E+03	4.287301E-15	7.999066E-17
5.154843E+03	4.311214E-15	7.934779E-17
5.164737E+03	4.336460E-15	7.871199E-17
5.174631E+03	4.363071E-15	7.808484E-17
5.184526E+03	4.390929E-15	7.746535E-17
5.194420E+03	4.419761E-15	7.685013E-17
5.204314E+03	4.449684E-15	7.624298E-17
5.214208E+03	4.480250E-15	7.563824E-17
5.224102E+03	4.511264E-15	7.503516E-17
5.233996E+03	4.542649E-15	7.443531E-17
5.243890E+03	4.574303E-15	7.384026E-17
5.253785E+03	4.605542E-15	7.324259E-17
5.263679E+03	4.636493E-15	7.264853E-17
5.273573E+03	4.666547E-15	7.205309E-17
5.283467E+03	4.695489E-15	7.145800E-17
5.293361E+03	4.722927E-15	7.086278E-17
5.303255E+03	4.748437E-15	7.026695E-17
5.313149E+03	4.771420E-15	6.966791E-17
5.323043E+03	4.791683E-15	6.906950E-17
5.332938E+03	4.808444E-15	6.846720E-17
5.342832E+03	4.821360E-15	6.786313E-17
5.352726E+03	4.829845E-15	6.725598E-17
5.362620E+03	4.833858E-15	6.665198E-17
5.372514E+03	4.833035E-15	6.605243E-17
5.382408E+03	4.827962E-15	6.547110E-17
5.392302E+03	4.818811E-15	6.491523E-17
5.402196E+03	4.806268E-15	6.439816E-17
5.412091E+03	4.790897E-15	6.393030E-17
5.421985E+03	4.773250E-15	6.351753E-17
5.431879E+03	4.753853E-15	6.316221E-17
5.441773E+03	4.733053E-15	6.286369E-17
5.451667E+03	4.711588E-15	6.262618E-17
5.461561E+03	4.689726E-15	6.244736E-17
5.471455E+03	4.667694E-15	6.232428E-17
5.481350E+03	4.646107E-15	6.225920E-17
5.491244E+03	4.624980E-15	6.224645E-17
5.501138E+03	4.604858E-15	6.228767E-17
5.511032E+03	4.585700E-15	6.237684E-17
5.520926E+03	4.567993E-15	6.251537E-17
5.530820E+03	4.551791E-15	6.269912E-17
5.540714E+03	4.537126E-15	6.292393E-17
5.550608E+03	4.524430E-15	6.319152E-17
5.560503E+03	4.513705E-15	6.349800E-17
5.570397E+03	4.505082E-15	6.384157E-17
5.580291E+03	4.498679E-15	6.422057E-17
5.590185E+03	4.494603E-15	6.463348E-17
5.600079E+03	4.492951E-15	6.507888E-17
5.609973E+03	4.493812E-15	6.555549E-17
5.619867E+03	4.497396E-15	6.606405E-17
5.629762E+03	4.503498E-15	6.659938E-17
5.639656E+03	4.512441E-15	6.716423E-17
5.649550E+03	4.524132E-15	6.775532E-17
5.659444E+03	4.538599E-15	6.837128E-17
5.669338E+03	4.555993E-15	6.901270E-17
5.679232E+03	4.576042E-15	6.967379E-17
5.689126E+03	4.599009E-15	7.035692E-17
5.699020E+03	4.624731E-15	7.105801E-17
5.708915E+03	4.653314E-15	7.177703E-17
5.718809E+03	4.684429E-15	7.250733E-17
5.728703E+03	4.718303E-15	7.325075E-17
5.738597E+03	4.754877E-15	7.400467E-17
5.748491E+03	4.793797E-15	7.476186E-17
5.758385E+03	4.835285E-15	7.552402E-17
5.768279E+03	4.879130E-15	7.628601E-17
5.778174E+03	4.925421E-15	7.704739E-17
5.788068E+03	4.973956E-15	7.780308E-17
5.797962E+03	5.024694E-15	7.855049E-17
5.807856E+03	5.077762E-15	7.928961E-17
5.817750E+03	5.133001E-15	8.001592E-17
5.827644E+03	5.190422E-15	8.072756E-17
5.837538E+03	5.250224E-15	8.142551E-17
5.847432E+03	5.312318E-15	8.210622E-17
5.857327E+03	5.376966E-15	8.277157E-17
5.867221E+03	5.444143E-15	8.341891E-17
5.877115E+03	5.514184E-15	8.405109E-17
5.887009E+03	5.587134E-15	8.466637E-17
5.896903E+03	5.663236E-15	8.526598E-17
5.906797E+03	5.742939E-15	8.585412E-17
5.916691E+03	5.826561E-15	8.643279E-17
5.926586E+03	5.914263E-15	8.700152E-17
5.936480E+03	6.006399E-15	8.756256E-17
5.946374E+03	6.103523E-15	8.812081E-17
5.956268E+03	6.206011E-15	8.867835E-17
5.966162E+03	6.314039E-15	8.923420E-17
5.976056E+03	6.428140E-15	8.979227E-17
5.985950E+03	6.548421E-15	9.035031E-17
5.995844E+03	6.675326E-15	9.091072E-17
6.005739E+03	6.808821E-15	9.146929E-17
6.015633E+03	6.949179E-15	9.202614E-17
6.025527E+03	7.096347E-15	9.257720E-17
6.035421E+03	7.249886E-15	9.311388E-17
6.045315E+03	7.409606E-15	9.363162E-17
6.055209E+03	7.574637E-15	9.411821E-17
6.065103E+03	7.744540E-15	9.456822E-17
6.074998E+03	7.917390E-15	9.495967E-17
6.084892E+03	8.092350E-15	9.528624E-17
6.094786E+03	8.266986E-15	9.552517E-17
6.104680E+03	8.438939E-15	9.565813E-17
6.114574E+03	8.605960E-15	9.567172E-17
6.124468E+03	8.764333E-15	9.554020E-17
6.134362E+03	8.910468E-15	9.524415E-17
6.144256E+03	9.041019E-15	9.477146E-17
6.154151E+03	9.151316E-15	9.410069E-17
6.164045E+03	9.237478E-15	9.322327E-17
6.173939E+03	9.295533E-15	9.213335E-17
6.183833E+03	9.321711E-15	9.082982E-17
6.193727E+03	9.313751E-15	8.932751E-17
6.203621E+03	9.270597E-15	8.765186E-17
6.213515E+03	9.193411E-15	8.584625E-17
6.223410E+03	9.087998E-15	8.399194E-17
6.233304E+03	8.961138E-15	8.217182E-17
6.243198E+03	8.821111E-15	8.047519E-17
6.253092E+03	8.675698E-15	7.898026E-17
6.262986E+03	8.531694E-15	7.775128E-17
6.272880E+03	8.395691E-15	7.684612E-17
6.282774E+03	8.272058E-15	7.629055E-17
6.292668E+03	8.164825E-15	7.610272E-17
6.302563E+03	8.076684E-15	7.629082E-17
6.312457E+03	8.009392E-15	7.685734E-17
6.322351E+03	7.963662E-15	7.779823E-17
6.332245E+03	7.940330E-15	7.911393E-17
6.342139E+03	7.938711E-15	8.079297E-17
6.352033E+03	7.958728E-15	8.283244E-17
6.361927E+03	7.998969E-15	8.521771E-17
6.371822E+03	8.058505E-15	8.794035E-17
6.381716E+03	8.135912E-15	9.098743E-17
6.391610E+03	8.229542E-15	9.434362E-17
6.401504E+03	8.337539E-15	9.799063E-17
6.411398E+03	8.457853E-15	1.019068E-16
6.421292E+03	8.588253E-15	1.060667E-16
6.431186E+03	8.726360E-15	1.104408E-16
6.441080E+03	8.869373E-15	1.149919E-16
6.450975E+03	9.015259E-15	1.196896E-16
6.460869E+03	9.161077E-15	1.244892E-16
6.470763E+03	9.304149E-15	1.293458E-16
6.480657E+03	9.441820E-15	1.342120E-16
6.490551E+03	9.571501E-15	1.390381E-16
6.500445E+03	9.690711E-15	1.437729E-16
6.510339E+03	9.797134E-15	1.483652E-16
6.520234E+03	9.888662E-15	1.527643E-16
6.530128E+03	9.963454E-15	1.569217E-16
6.540022E+03	1.001998E-14	1.607923E-16
6.549916E+03	1.005739E-14	1.643407E-16
6.559810E+03	1.007421E-14	1.675213E-16
6.569704E+03	1.007034E-14	1.703105E-16
6.579598E+03	1.004606E-14	1.726920E-16
6.589492E+03	1.000132E-14	1.746453E-16
6.599387E+03	9.936749E-15	1.761625E-16
6.609281E+03	9.853250E-15	1.772426E-16
6.619175E+03	9.751976E-15	1.778908E-16
6.629069E+03	9.634285E-15	1.781184E-16
6.638963E+03	9.502005E-15	1.779478E-16
6.648857E+03	9.356126E-15	1.773881E-16
6.658751E+03	9.198970E-15	1.764758E-16
6.668645E+03	9.031951E-15	1.752325E-16
6.678540E+03	8.856795E-15	1.736879E-16
6.688434E+03	8.675484E-15	1.718790E-16
6.698328E+03	8.489070E-15	1.698261E-16
6.708222E+03	8.299678E-15	1.675725E-16
6.718116E+03	8.108473E-15	1.651440E-16
6.728010E+03	7.916799E-15	1.625709E-16
6.737904E+03	7.725876E-15	1.598823E-16
6.747799E+03	7.537047E-15	1.571107E-16
6.757693E+03	7.351013E-15	1.542760E-16
6.767587E+03	7.168607E-15	1.514012E-16
6.777481E+03	6.990538E-15	1.485071E-16
6.787375E+03	6.817396E-15	1.456122E-16
6.797269E+03	6.649885E-15	1.427375E-16
6.807163E+03	6.488142E-15	1.398920E-16
6.817057E+03	6.332447E-15	1.370875E-16
6.826952E+03	6.182994E-15	1.343338E-16
6.836846E+03	6.039899E-15	1.316388E-16
6.846740E+03	5.903409E-15	1.290129E-16
6.856634E+03	5.773305E-15	1.264563E-16
6.866528E+03	5.649521E-15	1.239719E-16
6.876422E+03	5.531952E-15	1.215615E-16
6.886316E+03	5.420635E-15	1.192299E-16
6.896211E+03	5.315202E-15	1.169724E-16
6.906105E+03	5.215273E-15	1.147839E-16
6.915999E+03	5.120984E-15	1.126703E-16
6.925893E+03	5.032087E-15	1.106288E-16
6.935787E+03	4.947983E-15	1.086485E-16
6.945681E+03	4.868758E-15	1.067334E-16
6.955575E+03	4.793975E-15	1.048759E-16
6.965469E+03	4.723208E-15	1.030683E-16
6.975364E+03	4.656679E-15	1.013171E-16
6.985258E+03	4.593642E-15	9.960739E-17
6.995152E+03	4.534002E-15	9.793833E-17
7.005046E+03	4.477663E-15	9.630908E-17
7.014940E+03	4.424075E-15	9.470883E-17
7.024834E+03	4.373314E-15	9.314022E-17
7.034728E+03	4.325006E-15	9.159626E-17
7.044623E+03	4.278942E-15	9.007343E-17
7.054517E+03	4.234927E-15	8.856859E-17
7.064411E+03	4.192781E-15	8.707888E-17
7.074305E+03	4.152335E-15	8.560176E-17
7.084199E+03	4.113435E-15	8.413502E-17
7.094093E+03	4.076083E-15	8.267970E-17
7.103987E+03	4.039867E-15	8.122847E-17
7.113881E+03	4.004816E-15	7.978310E-17
7.123776E+03	3.970964E-15	7.834541E-17
7.133670E+03	3.937943E-15	7.690937E-17
7.143564E+03	3.905947E-15	7.548012E-17
7.153458E+03	3.874627E-15	7.405229E-17
7.163352E+03	3.844058E-15	7.262891E-17
7.173246E+03	3.814316E-15	7.121295E-17
7.183140E+03	3.785083E-15	6.980018E-17
7.193035E+03	3.756448E-15	6.839414E-17
7.202929E+03	3.728377E-15	6.699614E-17
7.212823E+03	3.700834E-15	6.560764E-17
7.222717E+03	3.673795E-15	6.423043E-17
7.232611E+03	3.647237E-15	6.286653E-17
7.242505E+03	3.621145E-15	6.151818E-17
7.252399E+03	3.595381E-15	6.018584E-17
7.262293E+03	3.570193E-15	5.887660E-17
7.272188E+03	3.545330E-15	5.758937E-17
7.282082E+03	3.520924E-15	5.632968E-17
7.291976E+03	3.496984E-15	5.510123E-17
7.301870E+03	3.473408E-15	5.390616E-17
7.311764E+03	3.450466E-15	5.275266E-17
7.321658E+03	3.427942E-15	5.164160E-17
7.331552E+03	3.405996E-15	5.057986E-17
7.341447E+03	3.384669E-15	4.957267E-17
7.351341E+03	3.364006E-15	4.862553E-17
7.361235E+03	3.343938E-15	4.774248E-17
7.371129E+03	3.324640E-15	4.693116E-17
7.381023E+03	3.306163E-15	4.619758E-17
7.390917E+03	3.288449E-15	4.554619E-17
7.400811E+03	3.271666E-15	4.498465E-17
7.410705E+03	3.255870E-15	4.451887E-17
7.420600E+03	3.240990E-15	4.415290E-17
7.430494E+03	3.227187E-15	4.389367E-17
7.440388E+03	3.214497E-15	4.374605E-17
7.450282E+03	3.202949E-15	4.371436E-17
7.460176E+03	3.192448E-15	4.380070E-17
7.470070E+03	3.182999E-15	4.400763E-17
7.479964E+03	3.174828E-15	4.433742E-17
7.489859E+03	3.167682E-15	4.478389E-17
7.499753E+03	3.161518E-15	4.534324E-17
7.509647E+03	3.156385E-15	4.601263E-17
7.519541E+03	3.152189E-15	4.678691E-17
7.529435E+03	3.148689E-15	4.765849E-17
7.539329E+03	3.145835E-15	4.862235E-17
7.549223E+03	3.143303E-15	4.966908E-17
7.559117E+03	3.140949E-15	5.079182E-17
7.569012E+03	3.138345E-15	5.197885E-17
7.578906E+03	3.135244E-15	5.322096E-17
7.588800E+03	3.131230E-15	5.450571E-17
7.598694E+03	3.125734E-15	5.581733E-17
7.608588E+03	3.118289E-15	5.714098E-17
7.618482E+03	3.108566E-15	5.846357E-17
7.628376E+03	3.096090E-15	5.976869E-17
7.638271E+03	3.080859E-15	6.104835E-17
7.648165E+03	3.063013E-15	6.229750E-17
7.658059E+03	3.042681E-15	6.351126E-17
7.667953E+03	3.020159E-15	6.468866E-17
7.677847E+03	2.995858E-15	6.583203E-17
