#wls	flux	fluxerr
1.583061E+03	2.264252E-15	3.017659E-16
1.622638E+03	2.320939E-15	3.056743E-16
1.662214E+03	2.374704E-15	3.089720E-16
1.701791E+03	2.425350E-15	3.116445E-16
1.741367E+03	2.472673E-15	3.136781E-16
1.780944E+03	2.516134E-15	3.150191E-16
1.820520E+03	2.555429E-15	3.156470E-16
1.860097E+03	2.589268E-15	3.154239E-16
1.899673E+03	2.617189E-15	3.143209E-16
1.939250E+03	2.638125E-15	3.122416E-16
1.978827E+03	2.652854E-15	3.093129E-16
2.018403E+03	2.663887E-15	3.058563E-16
2.057980E+03	2.676803E-15	3.025229E-16
2.097556E+03	2.701713E-15	3.004273E-16
2.137133E+03	2.749766E-15	3.007242E-16
2.176709E+03	2.827234E-15	3.039595E-16
2.216286E+03	2.935248E-15	3.100871E-16
2.255862E+03	3.069823E-15	3.185184E-16
2.295439E+03	3.224533E-15	3.284437E-16
2.335015E+03	3.394793E-15	3.392842E-16
2.374592E+03	3.578938E-15	3.507814E-16
2.414168E+03	3.776294E-15	3.627841E-16
2.453745E+03	3.988679E-15	3.753802E-16
2.493321E+03	4.218169E-15	3.886674E-16
2.532898E+03	4.467217E-15	4.027607E-16
2.572475E+03	4.738323E-15	4.177596E-16
2.612051E+03	5.033668E-15	4.337168E-16
2.651628E+03	5.355308E-15	4.506572E-16
2.691204E+03	5.702698E-15	4.683767E-16
2.730781E+03	6.074936E-15	4.866485E-16
2.770357E+03	6.470894E-15	5.052356E-16
2.809934E+03	6.887513E-15	5.237654E-16
2.849510E+03	7.319541E-15	5.417309E-16
2.889087E+03	7.763473E-15	5.587978E-16
2.928663E+03	8.210596E-15	5.743013E-16
2.968240E+03	8.655290E-15	5.878632E-16
2.978134E+03	8.765637E-15	5.909252E-16
2.988028E+03	8.873637E-15	5.937229E-16
2.997922E+03	8.981441E-15	5.964034E-16
3.007816E+03	9.088958E-15	5.989613E-16
3.017710E+03	9.193747E-15	6.012383E-16
3.027605E+03	9.298102E-15	6.033879E-16
3.037499E+03	9.400677E-15	6.053248E-16
3.047393E+03	9.501319E-15	6.070426E-16
3.057287E+03	9.601211E-15	6.086199E-16
3.067181E+03	9.698942E-15	6.099699E-16
3.077075E+03	9.794307E-15	6.110838E-16
3.086969E+03	9.887088E-15	6.119526E-16
3.096864E+03	9.978346E-15	6.126460E-16
3.106758E+03	1.006664E-14	6.130797E-16
3.116652E+03	1.015304E-14	6.133230E-16
3.126546E+03	1.023483E-14	6.132173E-16
3.136440E+03	1.031435E-14	6.129096E-16
3.146334E+03	1.039015E-14	6.123188E-16
3.156228E+03	1.046334E-14	6.115163E-16
3.166122E+03	1.053248E-14	6.104228E-16
3.176017E+03	1.059737E-14	6.090345E-16
3.185911E+03	1.065786E-14	6.073504E-16
3.195805E+03	1.071509E-14	6.054413E-16
3.205699E+03	1.076761E-14	6.032324E-16
3.215593E+03	1.081526E-14	6.007233E-16
3.225487E+03	1.085920E-14	5.979850E-16
3.235381E+03	1.089799E-14	5.949456E-16
3.245276E+03	1.093150E-14	5.916069E-16
3.255170E+03	1.096090E-14	5.880399E-16
3.265064E+03	1.098476E-14	5.841754E-16
3.274958E+03	1.100295E-14	5.800164E-16
3.284852E+03	1.101539E-14	5.755665E-16
3.294746E+03	1.102325E-14	5.708959E-16
3.304640E+03	1.102513E-14	5.659401E-16
3.314534E+03	1.102223E-14	5.607691E-16
3.324429E+03	1.101190E-14	5.552577E-16
3.334323E+03	1.099663E-14	5.495403E-16
3.344217E+03	1.097631E-14	5.436199E-16
3.354111E+03	1.094840E-14	5.373793E-16
3.364005E+03	1.091535E-14	5.309481E-16
3.373899E+03	1.087710E-14	5.243316E-16
3.383793E+03	1.083119E-14	5.174197E-16
3.393688E+03	1.078008E-14	5.103388E-16
3.403582E+03	1.072257E-14	5.030411E-16
3.413476E+03	1.065991E-14	4.955922E-16
3.423370E+03	1.059099E-14	4.879483E-16
3.433264E+03	1.051595E-14	4.801237E-16
3.443158E+03	1.043494E-14	4.721332E-16
3.453052E+03	1.034937E-14	4.640446E-16
3.462946E+03	1.025846E-14	4.558270E-16
3.472841E+03	1.016270E-14	4.475073E-16
3.482735E+03	1.006381E-14	4.391636E-16
3.492629E+03	9.961317E-15	4.307774E-16
3.502523E+03	9.855880E-15	4.223796E-16
3.512417E+03	9.749182E-15	4.140430E-16
3.522311E+03	9.640823E-15	4.057503E-16
3.532205E+03	9.531426E-15	3.975278E-16
3.542100E+03	9.422536E-15	3.894387E-16
3.551994E+03	9.312743E-15	3.814229E-16
3.561888E+03	9.204489E-15	3.735790E-16
3.571782E+03	9.098180E-15	3.659199E-16
3.581676E+03	8.992363E-15	3.583842E-16
3.591570E+03	8.889225E-15	3.510563E-16
3.601464E+03	8.789060E-15	3.439433E-16
3.611358E+03	8.690333E-15	3.369813E-16
3.621253E+03	8.595032E-15	3.302441E-16
3.631147E+03	8.502444E-15	3.236996E-16
3.641041E+03	8.412705E-15	3.173492E-16
3.650935E+03	8.326738E-15	3.112233E-16
3.660829E+03	8.243749E-15	3.052880E-16
3.670723E+03	8.163767E-15	2.995402E-16
3.680617E+03	8.086783E-15	2.939761E-16
3.690512E+03	8.013540E-15	2.886186E-16
3.700406E+03	7.943176E-15	2.834326E-16
3.710300E+03	7.875607E-15	2.784120E-16
3.720194E+03	7.811475E-15	2.735759E-16
3.730088E+03	7.749151E-15	2.688642E-16
3.739982E+03	7.689984E-15	2.643213E-16
3.749876E+03	7.633074E-15	2.599132E-16
3.759770E+03	7.578974E-15	2.556565E-16
3.769665E+03	7.526079E-15	2.514947E-16
3.779559E+03	7.475634E-15	2.474680E-16
3.789453E+03	7.426751E-15	2.435451E-16
3.799347E+03	7.379932E-15	2.397411E-16
3.809241E+03	7.333632E-15	2.360047E-16
3.819135E+03	7.289032E-15	2.323733E-16
3.829029E+03	7.245287E-15	2.288192E-16
3.838924E+03	7.202234E-15	2.253370E-16
3.848818E+03	7.159724E-15	2.219219E-16
3.858712E+03	7.118252E-15	2.185894E-16
3.868606E+03	7.076407E-15	2.152963E-16
3.878500E+03	7.035340E-15	2.120783E-16
3.888394E+03	6.994310E-15	2.089134E-16
3.898288E+03	6.953841E-15	2.058179E-16
3.908182E+03	6.912624E-15	2.027539E-16
3.918077E+03	6.871217E-15	1.997391E-16
3.927971E+03	6.830170E-15	1.967905E-16
3.937865E+03	6.788843E-15	1.938905E-16
3.947759E+03	6.747217E-15	1.910398E-16
3.957653E+03	6.705288E-15	1.882396E-16
3.967547E+03	6.663062E-15	1.854914E-16
3.977441E+03	6.620558E-15	1.827971E-16
3.987336E+03	6.578357E-15	1.801737E-16
3.997230E+03	6.535378E-15	1.775930E-16
4.007124E+03	6.492770E-15	1.750874E-16
4.017018E+03	6.449486E-15	1.726298E-16
4.026912E+03	6.406660E-15	1.702519E-16
4.036806E+03	6.363804E-15	1.679416E-16
4.046700E+03	6.320974E-15	1.657014E-16
4.056594E+03	6.278225E-15	1.635338E-16
4.066489E+03	6.235607E-15	1.614408E-16
4.076383E+03	6.193172E-15	1.594248E-16
4.086277E+03	6.150962E-15	1.574875E-16
4.096171E+03	6.109015E-15	1.556305E-16
4.106065E+03	6.067360E-15	1.538552E-16
4.115959E+03	6.026017E-15	1.521624E-16
4.125853E+03	5.985471E-15	1.505649E-16
4.135748E+03	5.944763E-15	1.490386E-16
4.145642E+03	5.904362E-15	1.475955E-16
4.155536E+03	5.864240E-15	1.462351E-16
4.165430E+03	5.824360E-15	1.449563E-16
4.175324E+03	5.784673E-15	1.437574E-16
4.185218E+03	5.745118E-15	1.426344E-16
4.195112E+03	5.705627E-15	1.415815E-16
4.205006E+03	5.666123E-15	1.405927E-16
4.214901E+03	5.626528E-15	1.396620E-16
4.224795E+03	5.586330E-15	1.387725E-16
4.234689E+03	5.546306E-15	1.379393E-16
4.244583E+03	5.505945E-15	1.371457E-16
4.254477E+03	5.464764E-15	1.363756E-16
4.264371E+03	5.423120E-15	1.356336E-16
4.274265E+03	5.381353E-15	1.349245E-16
4.284159E+03	5.338600E-15	1.342225E-16
4.294054E+03	5.295222E-15	1.335330E-16
4.303948E+03	5.250808E-15	1.328416E-16
4.313842E+03	5.206133E-15	1.321643E-16
4.323736E+03	5.160819E-15	1.314880E-16
4.333630E+03	5.114524E-15	1.308005E-16
4.343524E+03	5.067685E-15	1.301095E-16
4.353418E+03	5.020366E-15	1.294137E-16
4.363313E+03	4.972653E-15	1.287121E-16
4.373207E+03	4.924642E-15	1.280045E-16
4.383101E+03	4.876093E-15	1.272820E-16
4.392995E+03	4.827483E-15	1.265545E-16
4.402889E+03	4.778940E-15	1.258230E-16
4.412783E+03	4.730593E-15	1.250891E-16
4.422677E+03	4.682250E-15	1.243456E-16
4.432571E+03	4.634711E-15	1.236120E-16
4.442466E+03	4.587456E-15	1.228732E-16
4.452360E+03	4.540632E-15	1.221316E-16
4.462254E+03	4.495010E-15	1.214067E-16
4.472148E+03	4.450082E-15	1.206839E-16
4.482042E+03	4.406287E-15	1.199742E-16
4.491936E+03	4.363434E-15	1.192718E-16
4.501830E+03	4.322236E-15	1.185954E-16
4.511725E+03	4.282189E-15	1.179309E-16
4.521619E+03	4.243683E-15	1.172887E-16
4.531513E+03	4.206511E-15	1.166628E-16
4.541407E+03	4.171034E-15	1.160629E-16
4.551301E+03	4.137314E-15	1.154907E-16
4.561195E+03	4.105126E-15	1.149398E-16
4.571089E+03	4.075066E-15	1.144270E-16
4.580983E+03	4.046348E-15	1.139302E-16
4.590878E+03	4.019815E-15	1.134733E-16
4.600772E+03	3.994942E-15	1.130414E-16
4.610666E+03	3.972007E-15	1.126425E-16
4.620560E+03	3.950743E-15	1.122691E-16
4.630454E+03	3.931405E-15	1.119286E-16
4.640348E+03	3.913712E-15	1.116130E-16
4.650242E+03	3.898153E-15	1.113363E-16
4.660137E+03	3.884176E-15	1.110828E-16
4.670031E+03	3.871739E-15	1.108513E-16
4.679925E+03	3.861045E-15	1.106477E-16
4.689819E+03	3.852033E-15	1.104701E-16
4.699713E+03	3.844384E-15	1.103093E-16
4.709607E+03	3.838275E-15	1.101704E-16
4.719501E+03	3.833380E-15	1.100439E-16
4.729395E+03	3.829861E-15	1.099343E-16
4.739290E+03	3.827629E-15	1.098389E-16
4.749184E+03	3.826346E-15	1.097479E-16
4.759078E+03	3.826163E-15	1.096655E-16
4.768972E+03	3.826740E-15	1.095817E-16
4.778866E+03	3.828226E-15	1.095007E-16
4.788760E+03	3.830526E-15	1.094195E-16
4.798654E+03	3.833305E-15	1.093285E-16
4.808549E+03	3.836719E-15	1.092320E-16
4.818443E+03	3.840442E-15	1.091205E-16
4.828337E+03	3.844640E-15	1.089987E-16
4.838231E+03	3.849001E-15	1.088578E-16
4.848125E+03	3.853707E-15	1.087028E-16
4.858019E+03	3.858465E-15	1.085254E-16
4.867913E+03	3.863473E-15	1.083312E-16
4.877807E+03	3.868700E-15	1.081194E-16
4.887702E+03	3.873883E-15	1.078828E-16
4.897596E+03	3.879255E-15	1.076279E-16
4.907490E+03	3.884572E-15	1.073482E-16
4.917384E+03	3.889848E-15	1.070441E-16
4.927278E+03	3.895578E-15	1.067296E-16
4.937172E+03	3.901315E-15	1.063926E-16
4.947066E+03	3.907094E-15	1.060341E-16
4.956961E+03	3.913198E-15	1.056623E-16
4.966855E+03	3.919437E-15	1.052722E-16
4.976749E+03	3.926103E-15	1.048720E-16
4.986643E+03	3.933256E-15	1.044634E-16
4.996537E+03	3.940714E-15	1.040419E-16
5.006431E+03	3.948776E-15	1.036156E-16
5.016325E+03	3.957265E-15	1.031801E-16
5.026219E+03	3.966475E-15	1.027435E-16
5.036114E+03	3.976221E-15	1.023011E-16
5.046008E+03	3.986793E-15	1.018606E-16
5.055902E+03	3.997993E-15	1.014174E-16
5.065796E+03	4.010098E-15	1.009787E-16
5.075690E+03	4.022895E-15	1.005394E-16
5.085584E+03	4.036644E-15	1.001063E-16
5.095478E+03	4.051352E-15	9.968007E-17
5.105373E+03	4.066775E-15	9.925491E-17
5.115267E+03	4.083139E-15	9.883690E-17
5.125161E+03	4.100174E-15	9.841999E-17
5.135055E+03	4.118079E-15	9.800962E-17
5.144949E+03	4.136556E-15	9.759934E-17
5.154843E+03	4.155776E-15	9.719408E-17
5.164737E+03	4.175410E-15	9.678706E-17
5.174631E+03	4.195604E-15	9.638274E-17
5.184526E+03	4.216243E-15	9.597967E-17
5.194420E+03	4.236949E-15	9.557060E-17
5.204314E+03	4.257579E-15	9.515394E-17
5.214208E+03	4.278478E-15	9.473915E-17
5.224102E+03	4.298974E-15	9.431320E-17
5.233996E+03	4.318889E-15	9.387436E-17
5.243890E+03	4.338287E-15	9.342643E-17
5.253785E+03	4.356720E-15	9.296226E-17
5.263679E+03	4.374500E-15	9.249125E-17
5.273573E+03	4.390661E-15	9.199582E-17
5.283467E+03	4.405519E-15	9.148580E-17
5.293361E+03	4.418885E-15	9.096042E-17
5.303255E+03	4.430586E-15	9.041939E-17
5.313149E+03	4.440200E-15	8.985755E-17
5.323043E+03	4.447591E-15	8.927568E-17
5.332938E+03	4.453167E-15	8.868546E-17
5.342832E+03	4.456072E-15	8.807326E-17
5.352726E+03	4.457043E-15	8.745711E-17
5.362620E+03	4.455567E-15	8.683011E-17
5.372514E+03	4.451945E-15	8.620127E-17
5.382408E+03	4.446011E-15	8.557023E-17
5.392302E+03	4.438144E-15	8.494699E-17
5.402196E+03	4.428251E-15	8.433209E-17
5.412091E+03	4.416778E-15	8.373614E-17
5.421985E+03	4.403936E-15	8.316388E-17
5.431879E+03	4.389703E-15	8.261294E-17
5.441773E+03	4.374577E-15	8.209024E-17
5.451667E+03	4.358812E-15	8.159780E-17
5.461561E+03	4.342411E-15	8.113289E-17
5.471455E+03	4.325886E-15	8.070212E-17
5.481350E+03	4.309235E-15	8.030252E-17
5.491244E+03	4.293204E-15	7.994497E-17
5.501138E+03	4.277284E-15	7.961701E-17
5.511032E+03	4.262442E-15	7.933371E-17
5.520926E+03	4.248399E-15	7.908698E-17
5.530820E+03	4.235599E-15	7.888230E-17
5.540714E+03	4.223985E-15	7.871592E-17
5.550608E+03	4.213973E-15	7.859298E-17
5.560503E+03	4.205723E-15	7.851398E-17
5.570397E+03	4.199140E-15	7.847476E-17
5.580291E+03	4.194596E-15	7.848003E-17
5.590185E+03	4.192215E-15	7.852993E-17
5.600079E+03	4.192106E-15	7.862447E-17
5.609973E+03	4.194127E-15	7.875900E-17
5.619867E+03	4.198606E-15	7.893785E-17
5.629762E+03	4.205383E-15	7.915616E-17
5.639656E+03	4.214770E-15	7.941809E-17
5.649550E+03	4.226830E-15	7.972315E-17
5.659444E+03	4.241616E-15	8.007074E-17
5.669338E+03	4.258938E-15	8.045564E-17
5.679232E+03	4.279080E-15	8.088168E-17
5.689126E+03	4.302086E-15	8.134811E-17
5.699020E+03	4.327741E-15	8.184936E-17
5.708915E+03	4.356579E-15	8.239394E-17
5.718809E+03	4.387882E-15	8.296676E-17
5.728703E+03	4.422434E-15	8.358105E-17
5.738597E+03	4.459765E-15	8.422635E-17
5.748491E+03	4.500422E-15	8.491136E-17
5.758385E+03	4.543672E-15	8.562061E-17
5.768279E+03	4.590336E-15	8.636788E-17
5.778174E+03	4.639946E-15	8.714262E-17
5.788068E+03	4.692820E-15	8.794905E-17
5.797962E+03	4.749032E-15	8.878669E-17
5.807856E+03	4.808660E-15	8.965516E-17
5.817750E+03	4.871517E-15	9.054900E-17
5.827644E+03	4.937980E-15	9.147327E-17
5.837538E+03	5.008165E-15	9.242803E-17
5.847432E+03	5.082202E-15	9.341354E-17
5.857327E+03	5.159933E-15	9.442475E-17
5.867221E+03	5.242101E-15	9.547301E-17
5.877115E+03	5.328270E-15	9.654800E-17
5.887009E+03	5.418598E-15	9.765025E-17
5.896903E+03	5.513878E-15	9.879167E-17
5.906797E+03	5.613662E-15	9.996164E-17
5.916691E+03	5.718436E-15	1.011664E-16
5.926586E+03	5.828371E-15	1.024062E-16
5.936480E+03	5.943623E-15	1.036815E-16
5.946374E+03	6.064326E-15	1.049918E-16
5.956268E+03	6.190228E-15	1.063303E-16
5.966162E+03	6.321740E-15	1.077018E-16
5.976056E+03	6.458874E-15	1.091043E-16
5.985950E+03	6.601586E-15	1.105349E-16
5.995844E+03	6.749757E-15	1.119899E-16
6.005739E+03	6.902780E-15	1.134581E-16
6.015633E+03	7.060727E-15	1.149398E-16
6.025527E+03	7.223591E-15	1.164346E-16
6.035421E+03	7.389570E-15	1.179141E-16
6.045315E+03	7.559229E-15	1.193890E-16
6.055209E+03	7.731314E-15	1.208416E-16
6.065103E+03	7.904386E-15	1.222533E-16
6.074998E+03	8.078210E-15	1.236255E-16
6.084892E+03	8.250581E-15	1.249306E-16
6.094786E+03	8.420548E-15	1.261624E-16
6.104680E+03	8.586591E-15	1.273076E-16
6.114574E+03	8.747114E-15	1.283538E-16
6.124468E+03	8.899973E-15	1.292824E-16
6.134362E+03	9.044587E-15	1.300992E-16
6.144256E+03	9.178383E-15	1.307829E-16
6.154151E+03	9.300497E-15	1.313381E-16
6.164045E+03	9.410313E-15	1.317735E-16
6.173939E+03	9.505864E-15	1.320798E-16
6.183833E+03	9.586594E-15	1.322675E-16
6.193727E+03	9.653459E-15	1.323677E-16
6.203621E+03	9.706119E-15	1.323929E-16
6.213515E+03	9.744492E-15	1.323580E-16
6.223410E+03	9.770265E-15	1.323007E-16
6.233304E+03	9.783058E-15	1.322289E-16
6.243198E+03	9.784488E-15	1.321757E-16
6.253092E+03	9.776452E-15	1.321763E-16
6.262986E+03	9.759352E-15	1.322433E-16
6.272880E+03	9.735454E-15	1.324107E-16
6.282774E+03	9.705941E-15	1.326874E-16
6.292668E+03	9.673696E-15	1.331024E-16
6.302563E+03	9.639817E-15	1.336600E-16
6.312457E+03	9.605280E-15	1.343622E-16
6.322351E+03	9.572582E-15	1.352327E-16
6.332245E+03	9.541764E-15	1.362614E-16
6.342139E+03	9.514896E-15	1.374676E-16
6.352033E+03	9.491580E-15	1.388362E-16
6.361927E+03	9.472864E-15	1.403736E-16
6.371822E+03	9.459010E-15	1.420757E-16
6.381716E+03	9.450621E-15	1.439444E-16
6.391610E+03	9.446422E-15	1.459538E-16
6.401504E+03	9.446622E-15	1.481004E-16
6.411398E+03	9.450145E-15	1.503613E-16
6.421292E+03	9.457433E-15	1.527375E-16
6.431186E+03	9.467128E-15	1.552013E-16
6.441080E+03	9.478316E-15	1.577317E-16
6.450975E+03	9.490000E-15	1.603057E-16
6.460869E+03	9.500553E-15	1.628888E-16
6.470763E+03	9.509999E-15	1.654740E-16
6.480657E+03	9.516094E-15	1.680147E-16
6.490551E+03	9.518857E-15	1.705028E-16
6.500445E+03	9.516085E-15	1.728900E-16
6.510339E+03	9.507888E-15	1.751690E-16
6.520234E+03	9.492194E-15	1.772920E-16
6.530128E+03	9.468723E-15	1.792434E-16
6.540022E+03	9.437308E-15	1.810099E-16
6.549916E+03	9.396221E-15	1.825483E-16
6.559810E+03	9.345564E-15	1.838498E-16
6.569704E+03	9.285580E-15	1.849093E-16
6.579598E+03	9.214994E-15	1.856916E-16
6.589492E+03	9.134352E-15	1.861982E-16
6.599387E+03	9.043795E-15	1.864229E-16
6.609281E+03	8.943602E-15	1.863635E-16
6.619175E+03	8.834185E-15	1.860210E-16
6.629069E+03	8.716072E-15	1.854000E-16
6.638963E+03	8.589900E-15	1.845085E-16
6.648857E+03	8.456388E-15	1.833570E-16
6.658751E+03	8.316330E-15	1.819590E-16
6.668645E+03	8.170573E-15	1.803302E-16
6.678540E+03	8.019992E-15	1.784881E-16
6.688434E+03	7.865490E-15	1.764515E-16
6.698328E+03	7.707966E-15	1.742406E-16
6.708222E+03	7.548308E-15	1.718759E-16
6.718116E+03	7.387379E-15	1.693784E-16
6.728010E+03	7.225568E-15	1.667590E-16
6.737904E+03	7.064537E-15	1.640582E-16
6.747799E+03	6.904567E-15	1.612859E-16
6.757693E+03	6.746324E-15	1.584607E-16
6.767587E+03	6.590012E-15	1.555912E-16
6.777481E+03	6.436978E-15	1.527130E-16
6.787375E+03	6.287285E-15	1.498315E-16
6.797269E+03	6.141338E-15	1.469607E-16
6.807163E+03	5.999116E-15	1.441041E-16
6.817057E+03	5.861635E-15	1.412903E-16
6.826952E+03	5.728743E-15	1.385197E-16
6.836846E+03	5.600267E-15	1.357922E-16
6.846740E+03	5.477012E-15	1.331310E-16
6.856634E+03	5.358371E-15	1.305251E-16
6.866528E+03	5.245031E-15	1.279947E-16
6.876422E+03	5.136334E-15	1.255273E-16
6.886316E+03	5.032872E-15	1.231403E-16
6.896211E+03	4.933948E-15	1.208197E-16
6.906105E+03	4.840074E-15	1.185807E-16
6.915999E+03	4.750531E-15	1.164083E-16
6.925893E+03	4.665773E-15	1.143159E-16
6.935787E+03	4.585068E-15	1.122878E-16
6.945681E+03	4.508543E-15	1.103292E-16
6.955575E+03	4.436304E-15	1.084443E-16
6.965469E+03	4.367619E-15	1.066170E-16
6.975364E+03	4.302585E-15	1.048512E-16
6.985258E+03	4.241281E-15	1.031504E-16
6.995152E+03	4.182996E-15	1.014985E-16
7.005046E+03	4.127814E-15	9.989871E-17
7.014940E+03	4.075555E-15	9.834794E-17
7.024834E+03	4.026045E-15	9.684309E-17
7.034728E+03	3.979112E-15	9.538101E-17
7.044623E+03	3.934595E-15	9.395884E-17
7.054517E+03	3.892331E-15	9.257372E-17
7.064411E+03	3.852173E-15	9.122306E-17
7.074305E+03	3.813977E-15	8.990441E-17
7.084199E+03	3.777371E-15	8.861001E-17
7.094093E+03	3.742701E-15	8.734897E-17
7.103987E+03	3.709608E-15	8.611386E-17
7.113881E+03	3.677980E-15	8.490315E-17
7.123776E+03	3.647487E-15	8.371028E-17
7.133670E+03	3.618489E-15	8.254471E-17
7.143564E+03	3.590444E-15	8.139522E-17
7.153458E+03	3.563499E-15	8.026644E-17
7.163352E+03	3.537800E-15	7.916294E-17
7.173246E+03	3.512839E-15	7.807467E-17
7.183140E+03	3.488775E-15	7.700673E-17
7.193035E+03	3.465556E-15	7.595947E-17
7.202929E+03	3.443136E-15	7.493349E-17
7.212823E+03	3.421470E-15	7.392953E-17
7.222717E+03	3.400524E-15	7.294862E-17
7.232611E+03	3.380267E-15	7.199197E-17
7.242505E+03	3.360673E-15	7.106098E-17
7.252399E+03	3.341507E-15	7.015281E-17
7.262293E+03	3.323175E-15	6.927812E-17
7.272188E+03	3.305243E-15	6.843010E-17
7.282082E+03	3.288117E-15	6.761952E-17
7.291976E+03	3.271373E-15	6.684005E-17
7.301870E+03	3.255215E-15	6.609840E-17
7.311764E+03	3.239638E-15	6.539708E-17
7.321658E+03	3.224641E-15	6.473871E-17
7.331552E+03	3.210219E-15	6.412593E-17
7.341447E+03	3.196168E-15	6.355748E-17
7.351341E+03	3.182895E-15	6.304425E-17
7.361235E+03	3.170190E-15	6.258496E-17
7.371129E+03	3.157847E-15	6.217839E-17
7.381023E+03	3.146060E-15	6.183125E-17
7.390917E+03	3.134817E-15	6.154615E-17
7.400811E+03	3.124103E-15	6.132556E-17
7.410705E+03	3.113896E-15	6.117175E-17
7.420600E+03	3.104170E-15	6.108686E-17
7.430494E+03	3.094891E-15	6.107266E-17
7.440388E+03	3.085821E-15	6.112676E-17
7.450282E+03	3.077310E-15	6.125822E-17
7.460176E+03	3.068905E-15	6.145995E-17
7.470070E+03	3.060740E-15	6.173594E-17
7.479964E+03	3.052743E-15	6.208399E-17
7.489859E+03	3.044833E-15	6.250073E-17
7.499753E+03	3.036922E-15	6.298238E-17
7.509647E+03	3.028717E-15	6.352059E-17
7.519541E+03	3.020506E-15	6.411895E-17
7.529435E+03	3.011789E-15	6.476423E-17
7.539329E+03	3.002653E-15	6.545531E-17
7.549223E+03	2.992983E-15	6.618661E-17
7.559117E+03	2.982668E-15	6.695239E-17
7.569012E+03	2.971408E-15	6.774238E-17
7.578906E+03	2.959491E-15	6.855947E-17
7.588800E+03	2.946443E-15	6.938895E-17
7.598694E+03	2.932386E-15	7.022963E-17
7.608588E+03	2.917265E-15	7.107619E-17
7.618482E+03	2.901044E-15	7.192366E-17
7.628376E+03	2.883702E-15	7.276739E-17
7.638271E+03	2.865035E-15	7.359805E-17
7.648165E+03	2.845409E-15	7.442081E-17
7.658059E+03	2.824455E-15	7.522201E-17
7.667953E+03	2.802385E-15	7.600311E-17
7.677847E+03	2.779247E-15	7.676139E-17
