#wls	flux	fluxerr
1.583061E+03	2.228114E-15	2.886764E-16
1.622638E+03	2.284675E-15	2.924713E-16
1.662214E+03	2.339063E-15	2.957649E-16
1.701791E+03	2.390304E-15	2.984428E-16
1.741367E+03	2.438608E-15	3.005429E-16
1.780944E+03	2.483447E-15	3.020123E-16
1.820520E+03	2.524510E-15	3.028288E-16
1.860097E+03	2.560065E-15	3.028040E-16
1.899673E+03	2.590041E-15	3.019561E-16
1.939250E+03	2.613324E-15	3.001845E-16
1.978827E+03	2.630617E-15	2.976028E-16
2.018403E+03	2.643455E-15	2.944131E-16
2.057980E+03	2.658627E-15	2.913838E-16
2.097556E+03	2.685693E-15	2.895335E-16
2.137133E+03	2.734839E-15	2.898778E-16
2.176709E+03	2.813169E-15	2.930358E-16
2.216286E+03	2.922288E-15	2.990093E-16
2.255862E+03	3.056805E-15	3.070820E-16
2.295439E+03	3.210689E-15	3.165123E-16
2.335015E+03	3.380334E-15	3.268362E-16
2.374592E+03	3.562412E-15	3.376425E-16
2.414168E+03	3.757784E-15	3.489331E-16
2.453745E+03	3.966396E-15	3.606200E-16
2.493321E+03	4.191324E-15	3.728938E-16
2.532898E+03	4.433522E-15	3.857359E-16
2.572475E+03	4.696585E-15	3.993453E-16
2.612051E+03	4.981845E-15	4.137037E-16
2.651628E+03	5.291245E-15	4.288331E-16
2.691204E+03	5.624219E-15	4.445414E-16
2.730781E+03	5.980859E-15	4.606931E-16
2.770357E+03	6.358613E-15	4.769532E-16
2.809934E+03	6.754721E-15	4.929935E-16
2.849510E+03	7.167445E-15	5.085831E-16
2.889087E+03	7.590102E-15	5.231675E-16
2.928663E+03	8.016820E-15	5.363049E-16
2.968240E+03	8.443071E-15	5.476931E-16
2.978134E+03	8.548254E-15	5.501855E-16
2.988028E+03	8.653705E-15	5.525908E-16
2.997922E+03	8.756914E-15	5.547502E-16
3.007816E+03	8.860158E-15	5.568103E-16
3.017710E+03	8.962176E-15	5.586933E-16
3.027605E+03	9.062901E-15	5.603971E-16
3.037499E+03	9.162200E-15	5.619161E-16
3.047393E+03	9.259928E-15	5.632443E-16
3.057287E+03	9.357314E-15	5.644587E-16
3.067181E+03	9.452929E-15	5.654750E-16
3.077075E+03	9.546567E-15	5.662842E-16
3.086969E+03	9.638051E-15	5.668795E-16
3.096864E+03	9.727180E-15	5.672532E-16
3.106758E+03	9.815074E-15	5.674743E-16
3.116652E+03	9.898932E-15	5.673847E-16
3.126546E+03	9.981182E-15	5.671293E-16
3.136440E+03	1.006035E-14	5.666283E-16
3.146334E+03	1.013757E-14	5.659501E-16
3.156228E+03	1.021001E-14	5.649420E-16
3.166122E+03	1.028015E-14	5.637481E-16
3.176017E+03	1.034649E-14	5.622904E-16
3.185911E+03	1.040884E-14	5.605662E-16
3.195805E+03	1.046704E-14	5.585727E-16
3.205699E+03	1.052090E-14	5.563080E-16
3.215593E+03	1.057164E-14	5.538422E-16
3.225487E+03	1.061771E-14	5.511010E-16
3.235381E+03	1.065895E-14	5.480836E-16
3.245276E+03	1.069521E-14	5.447906E-16
3.255170E+03	1.072632E-14	5.412214E-16
3.265064E+03	1.075349E-14	5.374447E-16
3.274958E+03	1.077520E-14	5.333922E-16
3.284852E+03	1.079131E-14	5.290655E-16
3.294746E+03	1.080167E-14	5.244663E-16
3.304640E+03	1.080615E-14	5.195970E-16
3.314534E+03	1.080594E-14	5.145247E-16
3.324429E+03	1.079824E-14	5.091232E-16
3.334323E+03	1.078561E-14	5.035243E-16
3.344217E+03	1.076659E-14	4.976682E-16
3.354111E+03	1.074241E-14	4.916203E-16
3.364005E+03	1.071035E-14	4.852651E-16
3.373899E+03	1.067294E-14	4.787284E-16
3.383793E+03	1.062754E-14	4.718999E-16
3.393688E+03	1.057798E-14	4.649600E-16
3.403582E+03	1.052041E-14	4.577465E-16
3.413476E+03	1.045612E-14	4.503268E-16
3.423370E+03	1.038642E-14	4.427654E-16
3.433264E+03	1.030891E-14	4.349689E-16
3.443158E+03	1.022622E-14	4.270559E-16
3.453052E+03	1.013734E-14	4.189903E-16
3.462946E+03	1.004383E-14	4.108412E-16
3.472841E+03	9.943847E-15	4.025385E-16
3.482735E+03	9.840391E-15	3.942086E-16
3.492629E+03	9.732964E-15	3.858342E-16
3.502523E+03	9.622256E-15	3.774456E-16
3.512417E+03	9.508993E-15	3.690732E-16
3.522311E+03	9.393852E-15	3.607445E-16
3.532205E+03	9.278578E-15	3.525262E-16
3.542100E+03	9.161641E-15	3.443595E-16
3.551994E+03	9.045757E-15	3.363457E-16
3.561888E+03	8.930413E-15	3.284632E-16
3.571782E+03	8.816123E-15	3.207286E-16
3.581676E+03	8.704325E-15	3.131910E-16
3.591570E+03	8.593446E-15	3.057903E-16
3.601464E+03	8.485807E-15	2.986057E-16
3.611358E+03	8.379799E-15	2.915763E-16
3.621253E+03	8.277587E-15	2.847737E-16
3.631147E+03	8.178439E-15	2.781675E-16
3.641041E+03	8.083435E-15	2.717896E-16
3.650935E+03	7.990907E-15	2.655789E-16
3.660829E+03	7.902736E-15	2.595937E-16
3.670723E+03	7.817236E-15	2.537735E-16
3.680617E+03	7.736163E-15	2.481710E-16
3.690512E+03	7.658647E-15	2.427531E-16
3.700406E+03	7.584661E-15	2.375146E-16
3.710300E+03	7.514150E-15	2.324493E-16
3.720194E+03	7.447837E-15	2.275751E-16
3.730088E+03	7.384010E-15	2.228356E-16
3.739982E+03	7.324146E-15	2.182717E-16
3.749876E+03	7.267313E-15	2.138518E-16
3.759770E+03	7.212599E-15	2.095459E-16
3.769665E+03	7.161388E-15	2.053915E-16
3.779559E+03	7.113488E-15	2.013797E-16
3.789453E+03	7.067223E-15	1.974601E-16
3.799347E+03	7.023171E-15	1.936476E-16
3.809241E+03	6.981153E-15	1.899352E-16
3.819135E+03	6.941710E-15	1.863359E-16
3.829029E+03	6.903926E-15	1.828233E-16
3.838924E+03	6.866916E-15	1.793735E-16
3.848818E+03	6.831929E-15	1.760186E-16
3.858712E+03	6.798083E-15	1.727352E-16
3.868606E+03	6.765217E-15	1.695192E-16
3.878500E+03	6.733179E-15	1.663671E-16
3.888394E+03	6.701824E-15	1.632757E-16
3.898288E+03	6.671020E-15	1.602429E-16
3.908182E+03	6.640645E-15	1.572667E-16
3.918077E+03	6.611251E-15	1.543614E-16
3.927971E+03	6.581409E-15	1.514949E-16
3.937865E+03	6.552353E-15	1.486977E-16
3.947759E+03	6.522702E-15	1.459402E-16
3.957653E+03	6.493693E-15	1.432526E-16
3.967547E+03	6.463988E-15	1.406075E-16
3.977441E+03	6.434830E-15	1.380347E-16
3.987336E+03	6.405548E-15	1.355221E-16
3.997230E+03	6.375507E-15	1.330593E-16
4.007124E+03	6.345944E-15	1.306751E-16
4.017018E+03	6.316235E-15	1.283594E-16
4.026912E+03	6.285780E-15	1.261033E-16
4.036806E+03	6.255807E-15	1.239346E-16
4.046700E+03	6.225723E-15	1.218445E-16
4.056594E+03	6.195545E-15	1.198364E-16
4.066489E+03	6.165294E-15	1.179140E-16
4.076383E+03	6.134989E-15	1.160807E-16
4.086277E+03	6.104074E-15	1.143291E-16
4.096171E+03	6.073721E-15	1.126844E-16
4.106065E+03	6.043361E-15	1.111384E-16
4.115959E+03	6.012999E-15	1.096940E-16
4.125853E+03	5.982634E-15	1.083536E-16
4.135748E+03	5.951706E-15	1.071094E-16
4.145642E+03	5.921305E-15	1.059829E-16
4.155536E+03	5.890849E-15	1.049653E-16
4.165430E+03	5.859757E-15	1.040476E-16
4.175324E+03	5.829068E-15	1.032490E-16
4.185218E+03	5.797646E-15	1.025496E-16
4.195112E+03	5.766489E-15	1.019636E-16
4.205006E+03	5.734468E-15	1.014652E-16
4.214901E+03	5.702544E-15	1.010653E-16
4.224795E+03	5.669593E-15	1.007379E-16
4.234689E+03	5.636046E-15	1.004838E-16
4.244583E+03	5.601809E-15	1.002950E-16
4.254477E+03	5.566789E-15	1.001631E-16
4.264371E+03	5.530907E-15	1.000799E-16
4.274265E+03	5.494113E-15	1.000377E-16
4.284159E+03	5.456386E-15	1.000296E-16
4.294054E+03	5.417251E-15	1.000402E-16
4.303948E+03	5.377682E-15	1.000811E-16
4.313842E+03	5.336751E-15	1.001288E-16
4.323736E+03	5.295436E-15	1.001957E-16
4.333630E+03	5.252853E-15	1.002593E-16
4.343524E+03	5.209527E-15	1.003242E-16
4.353418E+03	5.165531E-15	1.003865E-16
4.363313E+03	5.120944E-15	1.004430E-16
4.373207E+03	5.075861E-15	1.004910E-16
4.383101E+03	5.029950E-15	1.005197E-16
4.392995E+03	4.984193E-15	1.005448E-16
4.402889E+03	4.937845E-15	1.005478E-16
4.412783E+03	4.891465E-15	1.005368E-16
4.422677E+03	4.845175E-15	1.005114E-16
4.432571E+03	4.799107E-15	1.004720E-16
4.442466E+03	4.752986E-15	1.004103E-16
4.452360E+03	4.707749E-15	1.003443E-16
4.462254E+03	4.662722E-15	1.002581E-16
4.472148E+03	4.618432E-15	1.001614E-16
4.482042E+03	4.574994E-15	1.000557E-16
4.491936E+03	4.532524E-15	9.994249E-17
4.501830E+03	4.491128E-15	9.982359E-17
4.511725E+03	4.450538E-15	9.969244E-17
4.521619E+03	4.411228E-15	9.955920E-17
4.531513E+03	4.373285E-15	9.942570E-17
4.541407E+03	4.336788E-15	9.929373E-17
4.551301E+03	4.301457E-15	9.915690E-17
4.561195E+03	4.268068E-15	9.903323E-17
4.571089E+03	4.235973E-15	9.890805E-17
4.580983E+03	4.205574E-15	9.879097E-17
4.590878E+03	4.176912E-15	9.868334E-17
4.600772E+03	4.149680E-15	9.857831E-17
4.610666E+03	4.124243E-15	9.848492E-17
4.620560E+03	4.100945E-15	9.841192E-17
4.630454E+03	4.078798E-15	9.833605E-17
4.640348E+03	4.058788E-15	9.828148E-17
4.650242E+03	4.040246E-15	9.823250E-17
4.660137E+03	4.023479E-15	9.819690E-17
4.670031E+03	4.008450E-15	9.817426E-17
4.679925E+03	3.995119E-15	9.816392E-17
4.689819E+03	3.983119E-15	9.815717E-17
4.699713E+03	3.972709E-15	9.816067E-17
4.709607E+03	3.963820E-15	9.817298E-17
4.719501E+03	3.956379E-15	9.819248E-17
4.729395E+03	3.949990E-15	9.820954E-17
4.739290E+03	3.945190E-15	9.823762E-17
4.749184E+03	3.940955E-15	9.825132E-17
4.759078E+03	3.938117E-15	9.827148E-17
4.768972E+03	3.935959E-15	9.828023E-17
4.778866E+03	3.934689E-15	9.828279E-17
4.788760E+03	3.934205E-15	9.827667E-17
4.798654E+03	3.934407E-15	9.825939E-17
4.808549E+03	3.934894E-15	9.822092E-17
4.818443E+03	3.935880E-15	9.816666E-17
4.828337E+03	3.937278E-15	9.809445E-17
4.838231E+03	3.938706E-15	9.799485E-17
4.848125E+03	3.940700E-15	9.788129E-17
4.858019E+03	3.942592E-15	9.773725E-17
4.867913E+03	3.944333E-15	9.756167E-17
4.877807E+03	3.946486E-15	9.736867E-17
4.887702E+03	3.948418E-15	9.714279E-17
4.897596E+03	3.950112E-15	9.688390E-17
4.907490E+03	3.952163E-15	9.660686E-17
4.917384E+03	3.953972E-15	9.629730E-17
4.927278E+03	3.955855E-15	9.596327E-17
4.937172E+03	3.957834E-15	9.560564E-17
4.947066E+03	3.959641E-15	9.521834E-17
4.956961E+03	3.961616E-15	9.480998E-17
4.966855E+03	3.963804E-15	9.438202E-17
4.976749E+03	3.966256E-15	9.393609E-17
4.986643E+03	3.968728E-15	9.346687E-17
4.996537E+03	3.971576E-15	9.298324E-17
5.006431E+03	3.974859E-15	9.248698E-17
5.016325E+03	3.978335E-15	9.197300E-17
5.026219E+03	3.982360E-15	9.145001E-17
5.036114E+03	3.986986E-15	9.091967E-17
5.046008E+03	3.992263E-15	9.038354E-17
5.055902E+03	3.997935E-15	8.983635E-17
5.065796E+03	4.004337E-15	8.928621E-17
5.075690E+03	4.011496E-15	8.873421E-17
5.085584E+03	4.019132E-15	8.817476E-17
5.095478E+03	4.027853E-15	8.762178E-17
5.105373E+03	4.036760E-15	8.705633E-17
5.115267E+03	4.046735E-15	8.649829E-17
5.125161E+03	4.057155E-15	8.593501E-17
5.135055E+03	4.068283E-15	8.537300E-17
5.144949E+03	4.080066E-15	8.481210E-17
5.154843E+03	4.092445E-15	8.425205E-17
5.164737E+03	4.105041E-15	8.368632E-17
5.174631E+03	4.118071E-15	8.312071E-17
5.184526E+03	4.131131E-15	8.254860E-17
5.194420E+03	4.144722E-15	8.198162E-17
5.204314E+03	4.158117E-15	8.140713E-17
5.214208E+03	4.171493E-15	8.083068E-17
5.224102E+03	4.184411E-15	8.024594E-17
5.233996E+03	4.197343E-15	7.966436E-17
5.243890E+03	4.209534E-15	7.907405E-17
5.253785E+03	4.220836E-15	7.847511E-17
5.263679E+03	4.231720E-15	7.787923E-17
5.273573E+03	4.241427E-15	7.727542E-17
5.283467E+03	4.250128E-15	7.667010E-17
5.293361E+03	4.257691E-15	7.606419E-17
5.303255E+03	4.263688E-15	7.545350E-17
5.313149E+03	4.268321E-15	7.484522E-17
5.323043E+03	4.271500E-15	7.424126E-17
5.332938E+03	4.273154E-15	7.364392E-17
5.342832E+03	4.272923E-15	7.305053E-17
5.352726E+03	4.271098E-15	7.246951E-17
5.362620E+03	4.267688E-15	7.190429E-17
5.372514E+03	4.262744E-15	7.135883E-17
5.382408E+03	4.256052E-15	7.083243E-17
5.392302E+03	4.248047E-15	7.033500E-17
5.402196E+03	4.238879E-15	6.987135E-17
5.412091E+03	4.228715E-15	6.944621E-17
5.421985E+03	4.217430E-15	6.905746E-17
5.431879E+03	4.205520E-15	6.871067E-17
5.441773E+03	4.193183E-15	6.840619E-17
5.451667E+03	4.180621E-15	6.814422E-17
5.461561E+03	4.167739E-15	6.792002E-17
5.471455E+03	4.155341E-15	6.774345E-17
5.481350E+03	4.143031E-15	6.760474E-17
5.491244E+03	4.131008E-15	6.750382E-17
5.501138E+03	4.120057E-15	6.745032E-17
5.511032E+03	4.109768E-15	6.743436E-17
5.520926E+03	4.100614E-15	6.746059E-17
5.530820E+03	4.092761E-15	6.752883E-17
5.540714E+03	4.086366E-15	6.763883E-17
5.550608E+03	4.081282E-15	6.778551E-17
5.560503E+03	4.077944E-15	6.797350E-17
5.570397E+03	4.076479E-15	6.820254E-17
5.580291E+03	4.077005E-15	6.847237E-17
5.590185E+03	4.079632E-15	6.878275E-17
5.600079E+03	4.084167E-15	6.912843E-17
5.609973E+03	4.090994E-15	6.951400E-17
5.619867E+03	4.100193E-15	6.993912E-17
5.629762E+03	4.111837E-15	7.040338E-17
5.639656E+03	4.125699E-15	7.090129E-17
5.649550E+03	4.142422E-15	7.144246E-17
5.659444E+03	4.161466E-15	7.201612E-17
5.669338E+03	4.183165E-15	7.262669E-17
5.679232E+03	4.207557E-15	7.327346E-17
5.689126E+03	4.234368E-15	7.395033E-17
5.699020E+03	4.263920E-15	7.466163E-17
5.708915E+03	4.296540E-15	7.541179E-17
5.718809E+03	4.331630E-15	7.618904E-17
5.728703E+03	4.369510E-15	7.699770E-17
5.738597E+03	4.409875E-15	7.783105E-17
5.748491E+03	4.453366E-15	7.869907E-17
5.758385E+03	4.499362E-15	7.958944E-17
5.768279E+03	4.548194E-15	8.050661E-17
5.778174E+03	4.599884E-15	8.144956E-17
5.788068E+03	4.654458E-15	8.241730E-17
5.797962E+03	4.711617E-15	8.340305E-17
5.807856E+03	4.772075E-15	8.441795E-17
5.817750E+03	4.835209E-15	8.544942E-17
5.827644E+03	4.901425E-15	8.650309E-17
5.837538E+03	4.970806E-15	8.757880E-17
5.847432E+03	5.043449E-15	8.867661E-17
5.857327E+03	5.119466E-15	8.979683E-17
5.867221E+03	5.198612E-15	9.093346E-17
5.877115E+03	5.281770E-15	9.210022E-17
5.887009E+03	5.368343E-15	9.328494E-17
5.896903E+03	5.458872E-15	9.449524E-17
5.906797E+03	5.553534E-15	9.573240E-17
5.916691E+03	5.652517E-15	9.699780E-17
5.926586E+03	5.755591E-15	9.828571E-17
5.936480E+03	5.863761E-15	9.961147E-17
5.946374E+03	5.976369E-15	1.009621E-16
5.956268E+03	6.094426E-15	1.023528E-16
5.966162E+03	6.217202E-15	1.037698E-16
5.976056E+03	6.345233E-15	1.052204E-16
5.985950E+03	6.478580E-15	1.067042E-16
5.995844E+03	6.616780E-15	1.082123E-16
6.005739E+03	6.760715E-15	1.097584E-16
6.015633E+03	6.909289E-15	1.113240E-16
6.025527E+03	7.063262E-15	1.129211E-16
6.035421E+03	7.221301E-15	1.145287E-16
6.045315E+03	7.383455E-15	1.161487E-16
6.055209E+03	7.549151E-15	1.177738E-16
6.065103E+03	7.717675E-15	1.193955E-16
6.074998E+03	7.888169E-15	1.210039E-16
6.084892E+03	8.059626E-15	1.225882E-16
6.094786E+03	8.230297E-15	1.241278E-16
6.104680E+03	8.400052E-15	1.256276E-16
6.114574E+03	8.566271E-15	1.270570E-16
6.124468E+03	8.728637E-15	1.284209E-16
6.134362E+03	8.884296E-15	1.296884E-16
6.144256E+03	9.032216E-15	1.308568E-16
6.154151E+03	9.170767E-15	1.319159E-16
6.164045E+03	9.298388E-15	1.328576E-16
6.173939E+03	9.413659E-15	1.336767E-16
6.183833E+03	9.515373E-15	1.343714E-16
6.193727E+03	9.601924E-15	1.349345E-16
6.203621E+03	9.674150E-15	1.353931E-16
6.213515E+03	9.730563E-15	1.357407E-16
6.223410E+03	9.772965E-15	1.360160E-16
6.233304E+03	9.800796E-15	1.362231E-16
6.243198E+03	9.815971E-15	1.363994E-16
6.253092E+03	9.820703E-15	1.365846E-16
6.262986E+03	9.815259E-15	1.367898E-16
6.272880E+03	9.802143E-15	1.370552E-16
6.282774E+03	9.783173E-15	1.374035E-16
6.292668E+03	9.760121E-15	1.378513E-16
6.302563E+03	9.733950E-15	1.384029E-16
6.312457E+03	9.707593E-15	1.390906E-16
6.322351E+03	9.681687E-15	1.399140E-16
6.332245E+03	9.657371E-15	1.408804E-16
6.342139E+03	9.634871E-15	1.419842E-16
6.352033E+03	9.616289E-15	1.432480E-16
6.361927E+03	9.600707E-15	1.446504E-16
6.371822E+03	9.589087E-15	1.461982E-16
6.381716E+03	9.582182E-15	1.478965E-16
6.391610E+03	9.578456E-15	1.497152E-16
6.401504E+03	9.578284E-15	1.516537E-16
6.411398E+03	9.581181E-15	1.536985E-16
6.421292E+03	9.586512E-15	1.558336E-16
6.431186E+03	9.594221E-15	1.580521E-16
6.441080E+03	9.602044E-15	1.603108E-16
6.450975E+03	9.609736E-15	1.625990E-16
6.460869E+03	9.615588E-15	1.648807E-16
6.470763E+03	9.619963E-15	1.671548E-16
6.480657E+03	9.621108E-15	1.693837E-16
6.490551E+03	9.617981E-15	1.715408E-16
6.500445E+03	9.609575E-15	1.735998E-16
6.510339E+03	9.594238E-15	1.755218E-16
6.520234E+03	9.572504E-15	1.773073E-16
6.530128E+03	9.542195E-15	1.789066E-16
6.540022E+03	9.504049E-15	1.803239E-16
6.549916E+03	9.456825E-15	1.815264E-16
6.559810E+03	9.399430E-15	1.824834E-16
6.569704E+03	9.332301E-15	1.831941E-16
6.579598E+03	9.256006E-15	1.836606E-16
6.589492E+03	9.169206E-15	1.838482E-16
6.599387E+03	9.073427E-15	1.837794E-16
6.609281E+03	8.967629E-15	1.834260E-16
6.619175E+03	8.852915E-15	1.828037E-16
6.629069E+03	8.729827E-15	1.819182E-16
6.638963E+03	8.599004E-15	1.807777E-16
6.648857E+03	8.461793E-15	1.794067E-16
6.658751E+03	8.317720E-15	1.777921E-16
6.668645E+03	8.168261E-15	1.759629E-16
6.678540E+03	8.014285E-15	1.739365E-16
6.688434E+03	7.856686E-15	1.717317E-16
6.698328E+03	7.696352E-15	1.693679E-16
6.708222E+03	7.534164E-15	1.668654E-16
6.718116E+03	7.370977E-15	1.642447E-16
6.728010E+03	7.207075E-15	1.615139E-16
6.737904E+03	7.044315E-15	1.587172E-16
6.747799E+03	6.882866E-15	1.558615E-16
6.757693E+03	6.723396E-15	1.529651E-16
6.767587E+03	6.566497E-15	1.500451E-16
6.777481E+03	6.412229E-15	1.471063E-16
6.787375E+03	6.262022E-15	1.441854E-16
6.797269E+03	6.115785E-15	1.412843E-16
6.807163E+03	5.973408E-15	1.384042E-16
6.817057E+03	5.836062E-15	1.355761E-16
6.826952E+03	5.703502E-15	1.327981E-16
6.836846E+03	5.575467E-15	1.300678E-16
6.846740E+03	5.452900E-15	1.274105E-16
6.856634E+03	5.335031E-15	1.248116E-16
6.866528E+03	5.222288E-15	1.222843E-16
6.876422E+03	5.115025E-15	1.198397E-16
6.886316E+03	5.012406E-15	1.174610E-16
6.896211E+03	4.914730E-15	1.151578E-16
6.906105E+03	4.822241E-15	1.129381E-16
6.915999E+03	4.734070E-15	1.107837E-16
6.925893E+03	4.650430E-15	1.087015E-16
6.935787E+03	4.571152E-15	1.066894E-16
6.945681E+03	4.496389E-15	1.047527E-16
6.955575E+03	4.425273E-15	1.028723E-16
6.965469E+03	4.357953E-15	1.010533E-16
6.975364E+03	4.294231E-15	9.929234E-17
6.985258E+03	4.233911E-15	9.758587E-17
6.995152E+03	4.176795E-15	9.593041E-17
7.005046E+03	4.122689E-15	9.432249E-17
7.014940E+03	4.071099E-15	9.275167E-17
7.024834E+03	4.022459E-15	9.122874E-17
7.034728E+03	3.976280E-15	8.974338E-17
7.044623E+03	3.932397E-15	8.829263E-17
7.054517E+03	3.890347E-15	8.686696E-17
7.064411E+03	3.850576E-15	8.547712E-17
7.074305E+03	3.812640E-15	8.411398E-17
7.084199E+03	3.776116E-15	8.276913E-17
7.094093E+03	3.741456E-15	8.145331E-17
7.103987E+03	3.707970E-15	8.015241E-17
7.113881E+03	3.676116E-15	7.887730E-17
7.123776E+03	3.645233E-15	7.761476E-17
7.133670E+03	3.615510E-15	7.636998E-17
7.143564E+03	3.586863E-15	7.514232E-17
7.153458E+03	3.559485E-15	7.393700E-17
7.163352E+03	3.532764E-15	7.274254E-17
7.173246E+03	3.506908E-15	7.156469E-17
7.183140E+03	3.481861E-15	7.040380E-17
7.193035E+03	3.457572E-15	6.926039E-17
7.202929E+03	3.433996E-15	6.813522E-17
7.212823E+03	3.411092E-15	6.702927E-17
7.222717E+03	3.388566E-15	6.593868E-17
7.232611E+03	3.366907E-15	6.487502E-17
7.242505E+03	3.345830E-15	6.383482E-17
7.252399E+03	3.325055E-15	6.281501E-17
7.262293E+03	3.305075E-15	6.182734E-17
7.272188E+03	3.285367E-15	6.086443E-17
7.282082E+03	3.266426E-15	5.993812E-17
7.291976E+03	3.247733E-15	5.904160E-17
7.301870E+03	3.229538E-15	5.818231E-17
7.311764E+03	3.211833E-15	5.736307E-17
7.321658E+03	3.194612E-15	5.658688E-17
7.331552E+03	3.177872E-15	5.585680E-17
7.341447E+03	3.161609E-15	5.517604E-17
7.351341E+03	3.145819E-15	5.454777E-17
7.361235E+03	3.130496E-15	5.397529E-17
7.371129E+03	3.115634E-15	5.346178E-17
7.381023E+03	3.100981E-15	5.300631E-17
7.390917E+03	3.087012E-15	5.262023E-17
7.400811E+03	3.073226E-15	5.229822E-17
7.410705E+03	3.059849E-15	5.204712E-17
7.420600E+03	3.047095E-15	5.187345E-17
7.430494E+03	3.034456E-15	5.177123E-17
7.440388E+03	3.022141E-15	5.174635E-17
7.450282E+03	3.010110E-15	5.180021E-17
7.460176E+03	2.998320E-15	5.193377E-17
7.470070E+03	2.986718E-15	5.214637E-17
7.479964E+03	2.975018E-15	5.243100E-17
7.489859E+03	2.963627E-15	5.279235E-17
7.499753E+03	2.952245E-15	5.322244E-17
7.509647E+03	2.940569E-15	5.371276E-17
7.519541E+03	2.928758E-15	5.426289E-17
7.529435E+03	2.916966E-15	5.487232E-17
7.539329E+03	2.904653E-15	5.552736E-17
7.549223E+03	2.891972E-15	5.622706E-17
7.559117E+03	2.878844E-15	5.696605E-17
7.569012E+03	2.865191E-15	5.773883E-17
7.578906E+03	2.850714E-15	5.853528E-17
7.588800E+03	2.835803E-15	5.935921E-17
7.598694E+03	2.819944E-15	6.019588E-17
7.608588E+03	2.803542E-15	6.104969E-17
7.618482E+03	2.786108E-15	6.190599E-17
7.628376E+03	2.767844E-15	6.276498E-17
7.638271E+03	2.748736E-15	6.362235E-17
7.648165E+03	2.728788E-15	6.447421E-17
7.658059E+03	2.708014E-15	6.531704E-17
7.667953E+03	2.686441E-15	6.614779E-17
7.677847E+03	2.664105E-15	6.696380E-17
