#wls	flux	fluxerr
1.583061E+03	2.238034E-15	2.927640E-16
1.622638E+03	2.294659E-15	2.965865E-16
1.662214E+03	2.348602E-15	2.998377E-16
1.701791E+03	2.399682E-15	3.025042E-16
1.741367E+03	2.448127E-15	3.046255E-16
1.780944E+03	2.492576E-15	3.060443E-16
1.820520E+03	2.533131E-15	3.067908E-16
1.860097E+03	2.568064E-15	3.066760E-16
1.899673E+03	2.597316E-15	3.057204E-16
1.939250E+03	2.620230E-15	3.038758E-16
1.978827E+03	2.636653E-15	3.011575E-16
2.018403E+03	2.649027E-15	2.978744E-16
2.057980E+03	2.663736E-15	2.947549E-16
2.097556E+03	2.689930E-15	2.927831E-16
2.137133E+03	2.738701E-15	2.930837E-16
2.176709E+03	2.817181E-15	2.962821E-16
2.216286E+03	2.926075E-15	3.022841E-16
2.255862E+03	3.060439E-15	3.104141E-16
2.295439E+03	3.214757E-15	3.199745E-16
2.335015E+03	3.384964E-15	3.304486E-16
2.374592E+03	3.567760E-15	3.414233E-16
2.414168E+03	3.764027E-15	3.529020E-16
2.453745E+03	3.974370E-15	3.648552E-16
2.493321E+03	4.200702E-15	3.773662E-16
2.532898E+03	4.445289E-15	3.905337E-16
2.572475E+03	4.711151E-15	4.045036E-16
2.612051E+03	5.000407E-15	4.193215E-16
2.651628E+03	5.313549E-15	4.348837E-16
2.691204E+03	5.651528E-15	4.511197E-16
2.730781E+03	6.013622E-15	4.678221E-16
2.770357E+03	6.398093E-15	4.847123E-16
2.809934E+03	6.801198E-15	5.013793E-16
2.849510E+03	7.220975E-15	5.175732E-16
2.889087E+03	7.651557E-15	5.327913E-16
2.928663E+03	8.085799E-15	5.464970E-16
2.968240E+03	8.519973E-15	5.584415E-16
2.978134E+03	8.627001E-15	5.610572E-16
2.988028E+03	8.733035E-15	5.635023E-16
2.997922E+03	8.837928E-15	5.657695E-16
3.007816E+03	8.942769E-15	5.679302E-16
3.017710E+03	9.046304E-15	5.699058E-16
3.027605E+03	9.148463E-15	5.716946E-16
3.037499E+03	9.249100E-15	5.732902E-16
3.047393E+03	9.349303E-15	5.747623E-16
3.057287E+03	9.447828E-15	5.760364E-16
3.067181E+03	9.544477E-15	5.771038E-16
3.077075E+03	9.639039E-15	5.779551E-16
3.086969E+03	9.731337E-15	5.785838E-16
3.096864E+03	9.822449E-15	5.790577E-16
3.106758E+03	9.910902E-15	5.792930E-16
3.116652E+03	9.996522E-15	5.792847E-16
3.126546E+03	1.007911E-14	5.790264E-16
3.136440E+03	1.015848E-14	5.785125E-16
3.146334E+03	1.023576E-14	5.778126E-16
3.156228E+03	1.030948E-14	5.768480E-16
3.166122E+03	1.037944E-14	5.756147E-16
3.176017E+03	1.044547E-14	5.741093E-16
3.185911E+03	1.050873E-14	5.724023E-16
3.195805E+03	1.056773E-14	5.704170E-16
3.205699E+03	1.062228E-14	5.681518E-16
3.215593E+03	1.067223E-14	5.656058E-16
3.225487E+03	1.071875E-14	5.628484E-16
3.235381E+03	1.075901E-14	5.597378E-16
3.245276E+03	1.079553E-14	5.564145E-16
3.255170E+03	1.082681E-14	5.528082E-16
3.265064E+03	1.085406E-14	5.489885E-16
3.274958E+03	1.087444E-14	5.448202E-16
3.284852E+03	1.089048E-14	5.404396E-16
3.294746E+03	1.090072E-14	5.357819E-16
3.304640E+03	1.090503E-14	5.308500E-16
3.314534E+03	1.090460E-14	5.257108E-16
3.324429E+03	1.089798E-14	5.203024E-16
3.334323E+03	1.088508E-14	5.146299E-16
3.344217E+03	1.086577E-14	5.086975E-16
3.354111E+03	1.083998E-14	5.025112E-16
3.364005E+03	1.080893E-14	4.961366E-16
3.373899E+03	1.076996E-14	4.894610E-16
3.383793E+03	1.072687E-14	4.826667E-16
3.393688E+03	1.067582E-14	4.755881E-16
3.403582E+03	1.061807E-14	4.682931E-16
3.413476E+03	1.055491E-14	4.608468E-16
3.423370E+03	1.048513E-14	4.532041E-16
3.433264E+03	1.040885E-14	4.453794E-16
3.443158E+03	1.032621E-14	4.373866E-16
3.453052E+03	1.023865E-14	4.292923E-16
3.462946E+03	1.014533E-14	4.210657E-16
3.472841E+03	1.004678E-14	4.127345E-16
3.482735E+03	9.943653E-15	4.043295E-16
3.492629E+03	9.836616E-15	3.958816E-16
3.502523E+03	9.727463E-15	3.874652E-16
3.512417E+03	9.615772E-15	3.790644E-16
3.522311E+03	9.502212E-15	3.707068E-16
3.532205E+03	9.387446E-15	3.624183E-16
3.542100E+03	9.272099E-15	3.542227E-16
3.551994E+03	9.157773E-15	3.461795E-16
3.561888E+03	9.043944E-15	3.382665E-16
3.571782E+03	8.931133E-15	3.305007E-16
3.581676E+03	8.819772E-15	3.228954E-16
3.591570E+03	8.710272E-15	3.154625E-16
3.601464E+03	8.603915E-15	3.082444E-16
3.611358E+03	8.500039E-15	3.012128E-16
3.621253E+03	8.398906E-15	2.943729E-16
3.631147E+03	8.300727E-15	2.877279E-16
3.641041E+03	8.205673E-15	2.812793E-16
3.650935E+03	8.114738E-15	2.750564E-16
3.660829E+03	8.027125E-15	2.690269E-16
3.670723E+03	7.942886E-15	2.631883E-16
3.680617E+03	7.862045E-15	2.575368E-16
3.690512E+03	7.784594E-15	2.520678E-16
3.700406E+03	7.710498E-15	2.467760E-16
3.710300E+03	7.640489E-15	2.416806E-16
3.720194E+03	7.573669E-15	2.367484E-16
3.730088E+03	7.509933E-15	2.319727E-16
3.739982E+03	7.449163E-15	2.273463E-16
3.749876E+03	7.391221E-15	2.228617E-16
3.759770E+03	7.335960E-15	2.185116E-16
3.769665E+03	7.283963E-15	2.143104E-16
3.779559E+03	7.233573E-15	2.102066E-16
3.789453E+03	7.186093E-15	2.062362E-16
3.799347E+03	7.140605E-15	2.023705E-16
3.809241E+03	7.096934E-15	1.986030E-16
3.819135E+03	7.054901E-15	1.949274E-16
3.829029E+03	7.015031E-15	1.913571E-16
3.838924E+03	6.975747E-15	1.878480E-16
3.848818E+03	6.938274E-15	1.844332E-16
3.858712E+03	6.901077E-15	1.810714E-16
3.868606E+03	6.865365E-15	1.777949E-16
3.878500E+03	6.830313E-15	1.745821E-16
3.888394E+03	6.795789E-15	1.714305E-16
3.898288E+03	6.761671E-15	1.683380E-16
3.908182E+03	6.727851E-15	1.653030E-16
3.918077E+03	6.694231E-15	1.623245E-16
3.927971E+03	6.661365E-15	1.594173E-16
3.937865E+03	6.627902E-15	1.565507E-16
3.947759E+03	6.594425E-15	1.537409E-16
3.957653E+03	6.561506E-15	1.510029E-16
3.967547E+03	6.528482E-15	1.483235E-16
3.977441E+03	6.494719E-15	1.456908E-16
3.987336E+03	6.461427E-15	1.431345E-16
3.997230E+03	6.427987E-15	1.406432E-16
4.007124E+03	6.394406E-15	1.382195E-16
4.017018E+03	6.360693E-15	1.358664E-16
4.026912E+03	6.326285E-15	1.335745E-16
4.036806E+03	6.292372E-15	1.313720E-16
4.046700E+03	6.258391E-15	1.292494E-16
4.056594E+03	6.224371E-15	1.272101E-16
4.066489E+03	6.190337E-15	1.252570E-16
4.076383E+03	6.156315E-15	1.233934E-16
4.086277E+03	6.122328E-15	1.216220E-16
4.096171E+03	6.088396E-15	1.199458E-16
4.106065E+03	6.054531E-15	1.183671E-16
4.115959E+03	6.020741E-15	1.168881E-16
4.125853E+03	5.987025E-15	1.155107E-16
4.135748E+03	5.953374E-15	1.142363E-16
4.145642E+03	5.919770E-15	1.130660E-16
4.155536E+03	5.886183E-15	1.120003E-16
4.165430E+03	5.852575E-15	1.110393E-16
4.175324E+03	5.818897E-15	1.101826E-16
4.185218E+03	5.784587E-15	1.094187E-16
4.195112E+03	5.750587E-15	1.087609E-16
4.205006E+03	5.716317E-15	1.081926E-16
4.214901E+03	5.681211E-15	1.076973E-16
4.224795E+03	5.646168E-15	1.072861E-16
4.234689E+03	5.610129E-15	1.069328E-16
4.244583E+03	5.573974E-15	1.066479E-16
4.254477E+03	5.536671E-15	1.064057E-16
4.264371E+03	5.498631E-15	1.062076E-16
4.274265E+03	5.459805E-15	1.060467E-16
4.284159E+03	5.420166E-15	1.059162E-16
4.294054E+03	5.379705E-15	1.058100E-16
4.303948E+03	5.338427E-15	1.057225E-16
4.313842E+03	5.295910E-15	1.056394E-16
4.323736E+03	5.253072E-15	1.055736E-16
4.333630E+03	5.209082E-15	1.055032E-16
4.343524E+03	5.164436E-15	1.054332E-16
4.353418E+03	5.119205E-15	1.053603E-16
4.363313E+03	5.073471E-15	1.052817E-16
4.373207E+03	5.027326E-15	1.051953E-16
4.383101E+03	4.980470E-15	1.050907E-16
4.392995E+03	4.933825E-15	1.049840E-16
4.402889E+03	4.886708E-15	1.048574E-16
4.412783E+03	4.839644E-15	1.047192E-16
4.422677E+03	4.792761E-15	1.045694E-16
4.432571E+03	4.746188E-15	1.044086E-16
4.442466E+03	4.699678E-15	1.042293E-16
4.452360E+03	4.654113E-15	1.040491E-16
4.462254E+03	4.608875E-15	1.038530E-16
4.472148E+03	4.564461E-15	1.036506E-16
4.482042E+03	4.520987E-15	1.034436E-16
4.491936E+03	4.478213E-15	1.032257E-16
4.501830E+03	4.436606E-15	1.030068E-16
4.511725E+03	4.396264E-15	1.027888E-16
4.521619E+03	4.357281E-15	1.025737E-16
4.531513E+03	4.319739E-15	1.023632E-16
4.541407E+03	4.283384E-15	1.021513E-16
4.551301E+03	4.248622E-15	1.019476E-16
4.561195E+03	4.215516E-15	1.017538E-16
4.571089E+03	4.184113E-15	1.015713E-16
4.580983E+03	4.154140E-15	1.013938E-16
4.590878E+03	4.126271E-15	1.012381E-16
4.600772E+03	4.099897E-15	1.010896E-16
4.610666E+03	4.075042E-15	1.009492E-16
4.620560E+03	4.052338E-15	1.008330E-16
4.630454E+03	4.031165E-15	1.007260E-16
4.640348E+03	4.011820E-15	1.006361E-16
4.650242E+03	3.993985E-15	1.005555E-16
4.660137E+03	3.977935E-15	1.004915E-16
4.670031E+03	3.963635E-15	1.004436E-16
4.679925E+03	3.951037E-15	1.004109E-16
4.689819E+03	3.940087E-15	1.003924E-16
4.699713E+03	3.930433E-15	1.003791E-16
4.709607E+03	3.922300E-15	1.003772E-16
4.719501E+03	3.915322E-15	1.003773E-16
4.729395E+03	3.909710E-15	1.003850E-16
4.739290E+03	3.905377E-15	1.003982E-16
4.749184E+03	3.902232E-15	1.004145E-16
4.759078E+03	3.899893E-15	1.004242E-16
4.768972E+03	3.898554E-15	1.004322E-16
4.778866E+03	3.898114E-15	1.004361E-16
4.788760E+03	3.898481E-15	1.004333E-16
4.798654E+03	3.899272E-15	1.004141E-16
4.808549E+03	3.900684E-15	1.003835E-16
4.818443E+03	3.902345E-15	1.003318E-16
4.828337E+03	3.904458E-15	1.002645E-16
4.838231E+03	3.906949E-15	1.001795E-16
4.848125E+03	3.909752E-15	1.000751E-16
4.858019E+03	3.912527E-15	9.994295E-17
4.867913E+03	3.915510E-15	9.978896E-17
4.877807E+03	3.918381E-15	9.960521E-17
4.887702E+03	3.921677E-15	9.940548E-17
4.897596E+03	3.924538E-15	9.916818E-17
4.907490E+03	3.927801E-15	9.891469E-17
4.917384E+03	3.930909E-15	9.863126E-17
4.927278E+03	3.934157E-15	9.832553E-17
4.937172E+03	3.937567E-15	9.799837E-17
4.947066E+03	3.940891E-15	9.764397E-17
4.956961E+03	3.944447E-15	9.727055E-17
4.966855E+03	3.948280E-15	9.687955E-17
4.976749E+03	3.952161E-15	9.646574E-17
4.986643E+03	3.956420E-15	9.603762E-17
4.996537E+03	3.960835E-15	9.559018E-17
5.006431E+03	3.966019E-15	9.513862E-17
5.016325E+03	3.971470E-15	9.467125E-17
5.026219E+03	3.977245E-15	9.418988E-17
5.036114E+03	3.983948E-15	9.370928E-17
5.046008E+03	3.991071E-15	9.321782E-17
5.055902E+03	3.998654E-15	9.271697E-17
5.065796E+03	4.007010E-15	9.221451E-17
5.075690E+03	4.016164E-15	9.171142E-17
5.085584E+03	4.026134E-15	9.120860E-17
5.095478E+03	4.036647E-15	9.070039E-17
5.105373E+03	4.047978E-15	9.019366E-17
5.115267E+03	4.060113E-15	8.968867E-17
5.125161E+03	4.072743E-15	8.917935E-17
5.135055E+03	4.086110E-15	8.867183E-17
5.144949E+03	4.100159E-15	8.816582E-17
5.154843E+03	4.114543E-15	8.765488E-17
5.164737E+03	4.129466E-15	8.714454E-17
5.174631E+03	4.144837E-15	8.663412E-17
5.184526E+03	4.160268E-15	8.611695E-17
5.194420E+03	4.175929E-15	8.559820E-17
5.204314E+03	4.191696E-15	8.507704E-17
5.214208E+03	4.207431E-15	8.455259E-17
5.224102E+03	4.222705E-15	8.401835E-17
5.233996E+03	4.237366E-15	8.347374E-17
5.243890E+03	4.251834E-15	8.292958E-17
5.253785E+03	4.265375E-15	8.237411E-17
5.263679E+03	4.278118E-15	8.181280E-17
5.273573E+03	4.289615E-15	8.124011E-17
5.283467E+03	4.300296E-15	8.066740E-17
5.293361E+03	4.309433E-15	8.008425E-17
5.303255E+03	4.316892E-15	7.949172E-17
5.313149E+03	4.323140E-15	7.890188E-17
5.323043E+03	4.327490E-15	7.830569E-17
5.332938E+03	4.329863E-15	7.770532E-17
5.342832E+03	4.330793E-15	7.711388E-17
5.352726E+03	4.329668E-15	7.652383E-17
5.362620E+03	4.326794E-15	7.594387E-17
5.372514E+03	4.321930E-15	7.537289E-17
5.382408E+03	4.315458E-15	7.482048E-17
5.392302E+03	4.307499E-15	7.429137E-17
5.402196E+03	4.298203E-15	7.379047E-17
5.412091E+03	4.287740E-15	7.332269E-17
5.421985E+03	4.276007E-15	7.288651E-17
5.431879E+03	4.263204E-15	7.248299E-17
5.441773E+03	4.250115E-15	7.212266E-17
5.451667E+03	4.236383E-15	7.179643E-17
5.461561E+03	4.222511E-15	7.150975E-17
5.471455E+03	4.208717E-15	7.126311E-17
5.481350E+03	4.195215E-15	7.105693E-17
5.491244E+03	4.181937E-15	7.088680E-17
5.501138E+03	4.169367E-15	7.075778E-17
5.511032E+03	4.157422E-15	7.066530E-17
5.520926E+03	4.146848E-15	7.061904E-17
5.530820E+03	4.137264E-15	7.060956E-17
5.540714E+03	4.129116E-15	7.064168E-17
5.550608E+03	4.122557E-15	7.071538E-17
5.560503E+03	4.117460E-15	7.082589E-17
5.570397E+03	4.114234E-15	7.097787E-17
5.580291E+03	4.113003E-15	7.117116E-17
5.590185E+03	4.113881E-15	7.140565E-17
5.600079E+03	4.116696E-15	7.167630E-17
5.609973E+03	4.121816E-15	7.198763E-17
5.619867E+03	4.129328E-15	7.233935E-17
5.629762E+03	4.139306E-15	7.273107E-17
5.639656E+03	4.151818E-15	7.316239E-17
5.649550E+03	4.166646E-15	7.362788E-17
5.659444E+03	4.184119E-15	7.413187E-17
5.669338E+03	4.204282E-15	7.467370E-17
5.679232E+03	4.226894E-15	7.524766E-17
5.689126E+03	4.252553E-15	7.586302E-17
5.699020E+03	4.280722E-15	7.650882E-17
5.708915E+03	4.311710E-15	7.718921E-17
5.718809E+03	4.345541E-15	7.790324E-17
5.728703E+03	4.381946E-15	7.864470E-17
5.738597E+03	4.421531E-15	7.942305E-17
5.748491E+03	4.463731E-15	8.022674E-17
5.758385E+03	4.508865E-15	8.106002E-17
5.768279E+03	4.556661E-15	8.191651E-17
5.778174E+03	4.607757E-15	8.280617E-17
5.788068E+03	4.661585E-15	8.371725E-17
5.797962E+03	4.718501E-15	8.465453E-17
5.807856E+03	4.778563E-15	8.561742E-17
5.817750E+03	4.841846E-15	8.660557E-17
5.827644E+03	4.908432E-15	8.761874E-17
5.837538E+03	4.978084E-15	8.865093E-17
5.847432E+03	5.051575E-15	8.971409E-17
5.857327E+03	5.128357E-15	9.079662E-17
5.867221E+03	5.208899E-15	9.190495E-17
5.877115E+03	5.292997E-15	9.303353E-17
5.887009E+03	5.381513E-15	9.419555E-17
5.896903E+03	5.473903E-15	9.537941E-17
5.906797E+03	5.571067E-15	9.659875E-17
5.916691E+03	5.672446E-15	9.784173E-17
5.926586E+03	5.778581E-15	9.911562E-17
5.936480E+03	5.889247E-15	1.004145E-16
5.946374E+03	6.005379E-15	1.017522E-16
5.956268E+03	6.126725E-15	1.031224E-16
5.966162E+03	6.252972E-15	1.045178E-16
5.976056E+03	6.384587E-15	1.059445E-16
5.985950E+03	6.521583E-15	1.074010E-16
5.995844E+03	6.663916E-15	1.088853E-16
6.005739E+03	6.811468E-15	1.103941E-16
6.015633E+03	6.964034E-15	1.119236E-16
6.025527E+03	7.120835E-15	1.134610E-16
6.035421E+03	7.281913E-15	1.150076E-16
6.045315E+03	7.447233E-15	1.165638E-16
6.055209E+03	7.615137E-15	1.181055E-16
6.065103E+03	7.785308E-15	1.196309E-16
6.074998E+03	7.956792E-15	1.211295E-16
6.084892E+03	8.128497E-15	1.225897E-16
6.094786E+03	8.298632E-15	1.239913E-16
6.104680E+03	8.466945E-15	1.253384E-16
6.114574E+03	8.630847E-15	1.266020E-16
6.124468E+03	8.789365E-15	1.277789E-16
6.134362E+03	8.941527E-15	1.288670E-16
6.144256E+03	9.084582E-15	1.298402E-16
6.154151E+03	9.217624E-15	1.307002E-16
6.164045E+03	9.339287E-15	1.314434E-16
6.173939E+03	9.448400E-15	1.320694E-16
6.183833E+03	9.543405E-15	1.325732E-16
6.193727E+03	9.624991E-15	1.329806E-16
6.203621E+03	9.691633E-15	1.332868E-16
6.213515E+03	9.744751E-15	1.335265E-16
6.223410E+03	9.783409E-15	1.337011E-16
6.233304E+03	9.808967E-15	1.338419E-16
6.243198E+03	9.823115E-15	1.339832E-16
6.253092E+03	9.825835E-15	1.341342E-16
6.262986E+03	9.819315E-15	1.343326E-16
6.272880E+03	9.805205E-15	1.346057E-16
6.282774E+03	9.784548E-15	1.349638E-16
6.292668E+03	9.760364E-15	1.354391E-16
6.302563E+03	9.733600E-15	1.360349E-16
6.312457E+03	9.705087E-15	1.367526E-16
6.322351E+03	9.677477E-15	1.376190E-16
6.332245E+03	9.650596E-15	1.386217E-16
6.342139E+03	9.626696E-15	1.397832E-16
6.352033E+03	9.605194E-15	1.410859E-16
6.361927E+03	9.587905E-15	1.425481E-16
6.371822E+03	9.573820E-15	1.441467E-16
6.381716E+03	9.563684E-15	1.458854E-16
6.391610E+03	9.557389E-15	1.477556E-16
6.401504E+03	9.554654E-15	1.497465E-16
6.411398E+03	9.555027E-15	1.518445E-16
6.421292E+03	9.557911E-15	1.540341E-16
6.431186E+03	9.562584E-15	1.562974E-16
6.441080E+03	9.568212E-15	1.586144E-16
6.450975E+03	9.573227E-15	1.609523E-16
6.460869E+03	9.577958E-15	1.633097E-16
6.470763E+03	9.580735E-15	1.656511E-16
6.480657E+03	9.579867E-15	1.679393E-16
6.490551E+03	9.575641E-15	1.701711E-16
6.500445E+03	9.566406E-15	1.723089E-16
6.510339E+03	9.550563E-15	1.743148E-16
6.520234E+03	9.528552E-15	1.761874E-16
6.530128E+03	9.498287E-15	1.778787E-16
6.540022E+03	9.459753E-15	1.793786E-16
6.549916E+03	9.413049E-15	1.806794E-16
6.559810E+03	9.356460E-15	1.817386E-16
6.569704E+03	9.290359E-15	1.825540E-16
6.579598E+03	9.214612E-15	1.831137E-16
6.589492E+03	9.129857E-15	1.834219E-16
6.599387E+03	9.034976E-15	1.834484E-16
6.609281E+03	8.930885E-15	1.832038E-16
6.619175E+03	8.817990E-15	1.826901E-16
6.629069E+03	8.696807E-15	1.819118E-16
6.638963E+03	8.567954E-15	1.808769E-16
6.648857E+03	8.432131E-15	1.795960E-16
6.658751E+03	8.290105E-15	1.780821E-16
6.668645E+03	8.142696E-15	1.763505E-16
6.678540E+03	7.990757E-15	1.744181E-16
6.688434E+03	7.834617E-15	1.722913E-16
6.698328E+03	7.676249E-15	1.700134E-16
6.708222E+03	7.515964E-15	1.675923E-16
6.718116E+03	7.354602E-15	1.650482E-16
6.728010E+03	7.192972E-15	1.624011E-16
6.737904E+03	7.031346E-15	1.596598E-16
6.747799E+03	6.871425E-15	1.568657E-16
6.757693E+03	6.713363E-15	1.540257E-16
6.767587E+03	6.557295E-15	1.511465E-16
6.777481E+03	6.404676E-15	1.482652E-16
6.787375E+03	6.255063E-15	1.453756E-16
6.797269E+03	6.109737E-15	1.425114E-16
6.807163E+03	5.968172E-15	1.396642E-16
6.817057E+03	5.831482E-15	1.368641E-16
6.826952E+03	5.699056E-15	1.341007E-16
6.836846E+03	5.571863E-15	1.314003E-16
6.846740E+03	5.449219E-15	1.287506E-16
6.856634E+03	5.331585E-15	1.261659E-16
6.866528E+03	5.219345E-15	1.236585E-16
6.876422E+03	5.111740E-15	1.212135E-16
6.886316E+03	5.009093E-15	1.188414E-16
6.896211E+03	4.911320E-15	1.165430E-16
6.906105E+03	4.818314E-15	1.143181E-16
6.915999E+03	4.730278E-15	1.121739E-16
6.925893E+03	4.646397E-15	1.100931E-16
6.935787E+03	4.566847E-15	1.080818E-16
6.945681E+03	4.491458E-15	1.061378E-16
6.955575E+03	4.420049E-15	1.042583E-16
6.965469E+03	4.352434E-15	1.024405E-16
6.975364E+03	4.288427E-15	1.006813E-16
6.985258E+03	4.227836E-15	9.897726E-17
6.995152E+03	4.170177E-15	9.731839E-17
7.005046E+03	4.115856E-15	9.571515E-17
7.014940E+03	4.064392E-15	9.415729E-17
7.024834E+03	4.015606E-15	9.264156E-17
7.034728E+03	3.969043E-15	9.115839E-17
7.044623E+03	3.925102E-15	8.971784E-17
7.054517E+03	3.883342E-15	8.831056E-17
7.064411E+03	3.843336E-15	8.692774E-17
7.074305E+03	3.805491E-15	8.557948E-17
7.084199E+03	3.769128E-15	8.425127E-17
7.094093E+03	3.734391E-15	8.294737E-17
7.103987E+03	3.701430E-15	8.167192E-17
7.113881E+03	3.669602E-15	8.041171E-17
7.123776E+03	3.639072E-15	7.917143E-17
7.133670E+03	3.609746E-15	7.795013E-17
7.143564E+03	3.581539E-15	7.674709E-17
7.153458E+03	3.554625E-15	7.556722E-17
7.163352E+03	3.528169E-15	7.439406E-17
7.173246E+03	3.502873E-15	7.324388E-17
7.183140E+03	3.478419E-15	7.211146E-17
7.193035E+03	3.454759E-15	7.099728E-17
7.202929E+03	3.431845E-15	6.990205E-17
7.212823E+03	3.409636E-15	6.882667E-17
7.222717E+03	3.387851E-15	6.776736E-17
7.232611E+03	3.366950E-15	6.673533E-17
7.242505E+03	3.346418E-15	6.572241E-17
7.252399E+03	3.326477E-15	6.473521E-17
7.262293E+03	3.307348E-15	6.378030E-17
7.272188E+03	3.288534E-15	6.285049E-17
7.282082E+03	3.270264E-15	6.195277E-17
7.291976E+03	3.252527E-15	6.108958E-17
7.301870E+03	3.235317E-15	6.026356E-17
7.311764E+03	3.218625E-15	5.947744E-17
7.321658E+03	3.202447E-15	5.873413E-17
7.331552E+03	3.186778E-15	5.803656E-17
7.341447E+03	3.171384E-15	5.738364E-17
7.351341E+03	3.156721E-15	5.678686E-17
7.361235E+03	3.142552E-15	5.624513E-17
7.371129E+03	3.128639E-15	5.575747E-17
7.381023E+03	3.115204E-15	5.533110E-17
7.390917E+03	3.102231E-15	5.496891E-17
7.400811E+03	3.089931E-15	5.467775E-17
7.410705E+03	3.077827E-15	5.445222E-17
7.420600E+03	3.066123E-15	5.429871E-17
7.430494E+03	3.054560E-15	5.421534E-17
7.440388E+03	3.043552E-15	5.421183E-17
7.450282E+03	3.032829E-15	5.428559E-17
7.460176E+03	3.022122E-15	5.443357E-17
7.470070E+03	3.011819E-15	5.466356E-17
7.479964E+03	3.001414E-15	5.496481E-17
7.489859E+03	2.991062E-15	5.533789E-17
7.499753E+03	2.980692E-15	5.577892E-17
7.509647E+03	2.970224E-15	5.628367E-17
7.519541E+03	2.959576E-15	5.684756E-17
7.529435E+03	2.948664E-15	5.746574E-17
7.539329E+03	2.937400E-15	5.813309E-17
7.549223E+03	2.925481E-15	5.883996E-17
7.559117E+03	2.913039E-15	5.958514E-17
7.569012E+03	2.900211E-15	6.036761E-17
7.578906E+03	2.886484E-15	6.117285E-17
7.588800E+03	2.872010E-15	6.199984E-17
7.598694E+03	2.856731E-15	6.284322E-17
7.608588E+03	2.840601E-15	6.369789E-17
7.618482E+03	2.823376E-15	6.455410E-17
7.628376E+03	2.805461E-15	6.541692E-17
7.638271E+03	2.786423E-15	6.627224E-17
7.648165E+03	2.766676E-15	6.712580E-17
7.658059E+03	2.745812E-15	6.796383E-17
7.667953E+03	2.724061E-15	6.878805E-17
7.677847E+03	2.701462E-15	6.959567E-17
