#wls	flux	fluxerr
1.583061E+03	2.315347E-15	2.866202E-16
1.622638E+03	2.375630E-15	2.911336E-16
1.662214E+03	2.433485E-15	2.951624E-16
1.701791E+03	2.488729E-15	2.986914E-16
1.741367E+03	2.542030E-15	3.018075E-16
1.780944E+03	2.591936E-15	3.043463E-16
1.820520E+03	2.637598E-15	3.062205E-16
1.860097E+03	2.678899E-15	3.074325E-16
1.899673E+03	2.713812E-15	3.077689E-16
1.939250E+03	2.741434E-15	3.071539E-16
1.978827E+03	2.762773E-15	3.057290E-16
2.018403E+03	2.779213E-15	3.036718E-16
2.057980E+03	2.797234E-15	3.017025E-16
2.097556E+03	2.826715E-15	3.008668E-16
2.137133E+03	2.878201E-15	3.022235E-16
2.176709E+03	2.959960E-15	3.065343E-16
2.216286E+03	3.071479E-15	3.136142E-16
2.255862E+03	3.208748E-15	3.229270E-16
2.295439E+03	3.364029E-15	3.335887E-16
2.335015E+03	3.532530E-15	3.450475E-16
2.374592E+03	3.711363E-15	3.569621E-16
2.414168E+03	3.899709E-15	3.692042E-16
2.453745E+03	4.098755E-15	3.818373E-16
2.493321E+03	4.308441E-15	3.948032E-16
2.532898E+03	4.530954E-15	4.082465E-16
2.572475E+03	4.768624E-15	4.223117E-16
2.612051E+03	5.021252E-15	4.369086E-16
2.651628E+03	5.290953E-15	4.521465E-16
2.691204E+03	5.575762E-15	4.677802E-16
2.730781E+03	5.876347E-15	4.837926E-16
2.770357E+03	6.190096E-15	4.998972E-16
2.809934E+03	6.514528E-15	5.158346E-16
2.849510E+03	6.847480E-15	5.313870E-16
2.889087E+03	7.182910E-15	5.460573E-16
2.928663E+03	7.518236E-15	5.596459E-16
2.968240E+03	7.846906E-15	5.716831E-16
2.978134E+03	7.927433E-15	5.744112E-16
2.988028E+03	8.006980E-15	5.770055E-16
2.997922E+03	8.085439E-15	5.794596E-16
3.007816E+03	8.162721E-15	5.817685E-16
3.017710E+03	8.238782E-15	5.839309E-16
3.027605E+03	8.314828E-15	5.860333E-16
3.037499E+03	8.388257E-15	5.878937E-16
3.047393E+03	8.460194E-15	5.895939E-16
3.057287E+03	8.531905E-15	5.912236E-16
3.067181E+03	8.601970E-15	5.926856E-16
3.077075E+03	8.668935E-15	5.938825E-16
3.086969E+03	8.735213E-15	5.949825E-16
3.096864E+03	8.799353E-15	5.958887E-16
3.106758E+03	8.861197E-15	5.965933E-16
3.116652E+03	8.920586E-15	5.970886E-16
3.126546E+03	8.977370E-15	5.973679E-16
3.136440E+03	9.031383E-15	5.974238E-16
3.146334E+03	9.082481E-15	5.972503E-16
3.156228E+03	9.130491E-15	5.968401E-16
3.166122E+03	9.175289E-15	5.961890E-16
3.176017E+03	9.218058E-15	5.953777E-16
3.185911E+03	9.255958E-15	5.942266E-16
3.195805E+03	9.291546E-15	5.929051E-16
3.205699E+03	9.321975E-15	5.912356E-16
3.215593E+03	9.349824E-15	5.893873E-16
3.225487E+03	9.373584E-15	5.872691E-16
3.235381E+03	9.391785E-15	5.847944E-16
3.245276E+03	9.406994E-15	5.821293E-16
3.255170E+03	9.417745E-15	5.791873E-16
3.265064E+03	9.423909E-15	5.759662E-16
3.274958E+03	9.425376E-15	5.724649E-16
3.284852E+03	9.422036E-15	5.686828E-16
3.294746E+03	9.415122E-15	5.646997E-16
3.304640E+03	9.401867E-15	5.603551E-16
3.314534E+03	9.383523E-15	5.557307E-16
3.324429E+03	9.361328E-15	5.509058E-16
3.334323E+03	9.332576E-15	5.457266E-16
3.344217E+03	9.299844E-15	5.403508E-16
3.354111E+03	9.260449E-15	5.346281E-16
3.364005E+03	9.216996E-15	5.287159E-16
3.373899E+03	9.166844E-15	5.224682E-16
3.383793E+03	9.112605E-15	5.160409E-16
3.393688E+03	9.052971E-15	5.093650E-16
3.403582E+03	8.987999E-15	5.024498E-16
3.413476E+03	8.917743E-15	4.953043E-16
3.423370E+03	8.842289E-15	4.879390E-16
3.433264E+03	8.761752E-15	4.803658E-16
3.443158E+03	8.676295E-15	4.725986E-16
3.453052E+03	8.586139E-15	4.646539E-16
3.462946E+03	8.491603E-15	4.565532E-16
3.472841E+03	8.394312E-15	4.483872E-16
3.482735E+03	8.292474E-15	4.400630E-16
3.492629E+03	8.187841E-15	4.316771E-16
3.502523E+03	8.082110E-15	4.233206E-16
3.512417E+03	7.973638E-15	4.149084E-16
3.522311E+03	7.865205E-15	4.065864E-16
3.532205E+03	7.756267E-15	3.983259E-16
3.542100E+03	7.646330E-15	3.901017E-16
3.551994E+03	7.538013E-15	3.820469E-16
3.561888E+03	7.430755E-15	3.741310E-16
3.571782E+03	7.324036E-15	3.663263E-16
3.581676E+03	7.220292E-15	3.587528E-16
3.591570E+03	7.118928E-15	3.513776E-16
3.601464E+03	7.020319E-15	3.442163E-16
3.611358E+03	6.924808E-15	3.372824E-16
3.621253E+03	6.832700E-15	3.305872E-16
3.631147E+03	6.744254E-15	3.241393E-16
3.641041E+03	6.659684E-15	3.179452E-16
3.650935E+03	6.579156E-15	3.120086E-16
3.660829E+03	6.503655E-15	3.063717E-16
3.670723E+03	6.431517E-15	3.009516E-16
3.680617E+03	6.363651E-15	2.957871E-16
3.690512E+03	6.300051E-15	2.908738E-16
3.700406E+03	6.241498E-15	2.862432E-16
3.710300E+03	6.186271E-15	2.818122E-16
3.720194E+03	6.135110E-15	2.776112E-16
3.730088E+03	6.088705E-15	2.736671E-16
3.739982E+03	6.045333E-15	2.698988E-16
3.749876E+03	6.006447E-15	2.663681E-16
3.759770E+03	5.970335E-15	2.629954E-16
3.769665E+03	5.938405E-15	2.598401E-16
3.779559E+03	5.908950E-15	2.568241E-16
3.789453E+03	5.883335E-15	2.540046E-16
3.799347E+03	5.859851E-15	2.513049E-16
3.809241E+03	5.839827E-15	2.487802E-16
3.819135E+03	5.821556E-15	2.463553E-16
3.829029E+03	5.806332E-15	2.440836E-16
3.838924E+03	5.793196E-15	2.419226E-16
3.848818E+03	5.781196E-15	2.398315E-16
3.858712E+03	5.771603E-15	2.378621E-16
3.868606E+03	5.763463E-15	2.359737E-16
3.878500E+03	5.755837E-15	2.341275E-16
3.888394E+03	5.749985E-15	2.323743E-16
3.898288E+03	5.744979E-15	2.306761E-16
3.908182E+03	5.739903E-15	2.289961E-16
3.918077E+03	5.736033E-15	2.273854E-16
3.927971E+03	5.732479E-15	2.258086E-16
3.937865E+03	5.729093E-15	2.242604E-16
3.947759E+03	5.725030E-15	2.227083E-16
3.957653E+03	5.721620E-15	2.212048E-16
3.967547E+03	5.718055E-15	2.197190E-16
3.977441E+03	5.714269E-15	2.182492E-16
3.987336E+03	5.709505E-15	2.167674E-16
3.997230E+03	5.705149E-15	2.153274E-16
4.007124E+03	5.700468E-15	2.139019E-16
4.017018E+03	5.694746E-15	2.124652E-16
4.026912E+03	5.689381E-15	2.110705E-16
4.036806E+03	5.683661E-15	2.096919E-16
4.046700E+03	5.676879E-15	2.083046E-16
4.056594E+03	5.670427E-15	2.069605E-16
4.066489E+03	5.663600E-15	2.056347E-16
4.076383E+03	5.655711E-15	2.043031E-16
4.086277E+03	5.648155E-15	2.030173E-16
4.096171E+03	5.639579E-15	2.017293E-16
4.106065E+03	5.631401E-15	2.004907E-16
4.115959E+03	5.622307E-15	1.992555E-16
4.125853E+03	5.613731E-15	1.980755E-16
4.135748E+03	5.604392E-15	1.969058E-16
4.145642E+03	5.595724E-15	1.957977E-16
4.155536E+03	5.586450E-15	1.947070E-16
4.165430E+03	5.577976E-15	1.936833E-16
4.175324E+03	5.569000E-15	1.926818E-16
4.185218E+03	5.560208E-15	1.917269E-16
4.195112E+03	5.551584E-15	1.908185E-16
4.205006E+03	5.543742E-15	1.899780E-16
4.214901E+03	5.535274E-15	1.891576E-16
4.224795E+03	5.526725E-15	1.883757E-16
4.234689E+03	5.517944E-15	1.876261E-16
4.244583E+03	5.508749E-15	1.869010E-16
4.254477E+03	5.498935E-15	1.861921E-16
4.264371E+03	5.488274E-15	1.854905E-16
4.274265E+03	5.476541E-15	1.847871E-16
4.284159E+03	5.463522E-15	1.840733E-16
4.294054E+03	5.449018E-15	1.833411E-16
4.303948E+03	5.432856E-15	1.825833E-16
4.313842E+03	5.414258E-15	1.817722E-16
4.323736E+03	5.394393E-15	1.809458E-16
4.333630E+03	5.372569E-15	1.800793E-16
4.343524E+03	5.348158E-15	1.791502E-16
4.353418E+03	5.322456E-15	1.782003E-16
4.363313E+03	5.294318E-15	1.771899E-16
4.373207E+03	5.264507E-15	1.761428E-16
4.383101E+03	5.233799E-15	1.750834E-16
4.392995E+03	5.201177E-15	1.739763E-16
4.402889E+03	5.167457E-15	1.728471E-16
4.412783E+03	5.132846E-15	1.717012E-16
4.422677E+03	5.097542E-15	1.705439E-16
4.432571E+03	5.061722E-15	1.693796E-16
4.442466E+03	5.025545E-15	1.682122E-16
4.452360E+03	4.989148E-15	1.670450E-16
4.462254E+03	4.952652E-15	1.658808E-16
4.472148E+03	4.915605E-15	1.647032E-16
4.482042E+03	4.879231E-15	1.635520E-16
4.491936E+03	4.843064E-15	1.624106E-16
4.501830E+03	4.806655E-15	1.612628E-16
4.511725E+03	4.770658E-15	1.601296E-16
4.521619E+03	4.735711E-15	1.590314E-16
4.531513E+03	4.700846E-15	1.579350E-16
4.541407E+03	4.666714E-15	1.568613E-16
4.551301E+03	4.633428E-15	1.558134E-16
4.561195E+03	4.601103E-15	1.547944E-16
4.571089E+03	4.569856E-15	1.538077E-16
4.580983E+03	4.539800E-15	1.528564E-16
4.590878E+03	4.511047E-15	1.519436E-16
4.600772E+03	4.483198E-15	1.510556E-16
4.610666E+03	4.457361E-15	1.502290E-16
4.620560E+03	4.432621E-15	1.494326E-16
4.630454E+03	4.410050E-15	1.487021E-16
4.640348E+03	4.388727E-15	1.480061E-16
4.650242E+03	4.369199E-15	1.473625E-16
4.660137E+03	4.351502E-15	1.467723E-16
4.670031E+03	4.335659E-15	1.462358E-16
4.679925E+03	4.321677E-15	1.457529E-16
4.689819E+03	4.309543E-15	1.453228E-16
4.699713E+03	4.298751E-15	1.449282E-16
4.709607E+03	4.290199E-15	1.445989E-16
4.719501E+03	4.283333E-15	1.443160E-16
4.729395E+03	4.277581E-15	1.440598E-16
4.739290E+03	4.273284E-15	1.438415E-16
4.749184E+03	4.270285E-15	1.436555E-16
4.759078E+03	4.268871E-15	1.435111E-16
4.768972E+03	4.267903E-15	1.433698E-16
4.778866E+03	4.267165E-15	1.432240E-16
4.788760E+03	4.267358E-15	1.430971E-16
4.798654E+03	4.267783E-15	1.429653E-16
4.808549E+03	4.268211E-15	1.428208E-16
4.818443E+03	4.267962E-15	1.426408E-16
4.828337E+03	4.267304E-15	1.424341E-16
4.838231E+03	4.266527E-15	1.422105E-16
4.848125E+03	4.264560E-15	1.419342E-16
4.858019E+03	4.261751E-15	1.416170E-16
4.867913E+03	4.258014E-15	1.412560E-16
4.877807E+03	4.253291E-15	1.408496E-16
4.887702E+03	4.247554E-15	1.403972E-16
4.897596E+03	4.240349E-15	1.398839E-16
4.907490E+03	4.232618E-15	1.393413E-16
4.917384E+03	4.223501E-15	1.387413E-16
4.927278E+03	4.213527E-15	1.381017E-16
4.937172E+03	4.203230E-15	1.374405E-16
4.947066E+03	4.191805E-15	1.367316E-16
4.956961E+03	4.179806E-15	1.359936E-16
4.966855E+03	4.167341E-15	1.352305E-16
4.976749E+03	4.154081E-15	1.344320E-16
4.986643E+03	4.141030E-15	1.336312E-16
4.996537E+03	4.127862E-15	1.328177E-16
5.006431E+03	4.114262E-15	1.319820E-16
5.016325E+03	4.100794E-15	1.311425E-16
5.026219E+03	4.088017E-15	1.303174E-16
5.036114E+03	4.075181E-15	1.294831E-16
5.046008E+03	4.062845E-15	1.286578E-16
5.055902E+03	4.051122E-15	1.278454E-16
5.065796E+03	4.040122E-15	1.270495E-16
5.075690E+03	4.029513E-15	1.262600E-16
5.085584E+03	4.020233E-15	1.255064E-16
5.095478E+03	4.011490E-15	1.247643E-16
5.105373E+03	4.004175E-15	1.240616E-16
5.115267E+03	3.997456E-15	1.233725E-16
5.125161E+03	3.991751E-15	1.227103E-16
5.135055E+03	3.987028E-15	1.220740E-16
5.144949E+03	3.983236E-15	1.214625E-16
5.154843E+03	3.980306E-15	1.208737E-16
5.164737E+03	3.977736E-15	1.202929E-16
5.174631E+03	3.976271E-15	1.197428E-16
5.184526E+03	3.975393E-15	1.192081E-16
5.194420E+03	3.974580E-15	1.186736E-16
5.204314E+03	3.974148E-15	1.181494E-16
5.214208E+03	3.973994E-15	1.176330E-16
5.224102E+03	3.974017E-15	1.171218E-16
5.233996E+03	3.974122E-15	1.166138E-16
5.243890E+03	3.974211E-15	1.161068E-16
5.253785E+03	3.974198E-15	1.155989E-16
5.263679E+03	3.973994E-15	1.150885E-16
5.273573E+03	3.973106E-15	1.145620E-16
5.283467E+03	3.972288E-15	1.140421E-16
5.293361E+03	3.970642E-15	1.135039E-16
5.303255E+03	3.968523E-15	1.129586E-16
5.313149E+03	3.965879E-15	1.124056E-16
5.323043E+03	3.962670E-15	1.118448E-16
5.332938E+03	3.958870E-15	1.112763E-16
5.342832E+03	3.954469E-15	1.107009E-16
5.352726E+03	3.949476E-15	1.101197E-16
5.362620E+03	3.943513E-15	1.095232E-16
5.372514E+03	3.937475E-15	1.089371E-16
5.382408E+03	3.930668E-15	1.083431E-16
5.392302E+03	3.923654E-15	1.077574E-16
5.402196E+03	3.916596E-15	1.071852E-16
5.412091E+03	3.910063E-15	1.066420E-16
5.421985E+03	3.903405E-15	1.061094E-16
5.431879E+03	3.896787E-15	1.055908E-16
5.441773E+03	3.891173E-15	1.051117E-16
5.451667E+03	3.886306E-15	1.046639E-16
5.461561E+03	3.882328E-15	1.042502E-16
5.471455E+03	3.878967E-15	1.038625E-16
5.481350E+03	3.876749E-15	1.035137E-16
5.491244E+03	3.876190E-15	1.032166E-16
5.501138E+03	3.876592E-15	1.029514E-16
5.511032E+03	3.878455E-15	1.027305E-16
5.520926E+03	3.881871E-15	1.025552E-16
5.530820E+03	3.886933E-15	1.024268E-16
5.540714E+03	3.893727E-15	1.023466E-16
5.550608E+03	3.902343E-15	1.023159E-16
5.560503E+03	3.912468E-15	1.023253E-16
5.570397E+03	3.925001E-15	1.023973E-16
5.580291E+03	3.939228E-15	1.025122E-16
5.590185E+03	3.956057E-15	1.026926E-16
5.600079E+03	3.974767E-15	1.029185E-16
5.609973E+03	3.995858E-15	1.032019E-16
5.619867E+03	4.019830E-15	1.035546E-16
5.629762E+03	4.045934E-15	1.039559E-16
5.639656E+03	4.074653E-15	1.044173E-16
5.649550E+03	4.105612E-15	1.049281E-16
5.659444E+03	4.139694E-15	1.055095E-16
5.669338E+03	4.176495E-15	1.061501E-16
5.679232E+03	4.216014E-15	1.068486E-16
5.689126E+03	4.257784E-15	1.075920E-16
5.699020E+03	4.302628E-15	1.084000E-16
5.708915E+03	4.349590E-15	1.092471E-16
5.718809E+03	4.399003E-15	1.101407E-16
5.728703E+03	4.451203E-15	1.110880E-16
5.738597E+03	4.505128E-15	1.120612E-16
5.748491E+03	4.561064E-15	1.130666E-16
5.758385E+03	4.618825E-15	1.140984E-16
5.768279E+03	4.678211E-15	1.151506E-16
5.778174E+03	4.739010E-15	1.162173E-16
5.788068E+03	4.800513E-15	1.172801E-16
5.797962E+03	4.863481E-15	1.183570E-16
5.807856E+03	4.927216E-15	1.194303E-16
5.817750E+03	4.991005E-15	1.204820E-16
5.827644E+03	5.055687E-15	1.215322E-16
5.837538E+03	5.120081E-15	1.225520E-16
5.847432E+03	5.184589E-15	1.235509E-16
5.857327E+03	5.249685E-15	1.245399E-16
5.867221E+03	5.314284E-15	1.254933E-16
5.877115E+03	5.378962E-15	1.264247E-16
5.887009E+03	5.443815E-15	1.273365E-16
5.896903E+03	5.508996E-15	1.282323E-16
5.906797E+03	5.574714E-15	1.291172E-16
5.916691E+03	5.641231E-15	1.299975E-16
5.926586E+03	5.708860E-15	1.308804E-16
5.936480E+03	5.777364E-15	1.317607E-16
5.946374E+03	5.848326E-15	1.326748E-16
5.956268E+03	5.921597E-15	1.336192E-16
5.966162E+03	5.997019E-15	1.345904E-16
5.976056E+03	6.076297E-15	1.356267E-16
5.985950E+03	6.158676E-15	1.367112E-16
5.995844E+03	6.245891E-15	1.378823E-16
6.005739E+03	6.337124E-15	1.391219E-16
6.015633E+03	6.433428E-15	1.404531E-16
6.025527E+03	6.535171E-15	1.418838E-16
6.035421E+03	6.642643E-15	1.434206E-16
6.045315E+03	6.756742E-15	1.450829E-16
6.055209E+03	6.876172E-15	1.468433E-16
6.065103E+03	7.001560E-15	1.487159E-16
6.074998E+03	7.131956E-15	1.506818E-16
6.084892E+03	7.268405E-15	1.527646E-16
6.094786E+03	7.409563E-15	1.549380E-16
6.104680E+03	7.554561E-15	1.571863E-16
6.114574E+03	7.702255E-15	1.594892E-16
6.124468E+03	7.850406E-15	1.618042E-16
6.134362E+03	7.998864E-15	1.641333E-16
6.144256E+03	8.143928E-15	1.664061E-16
6.154151E+03	8.284883E-15	1.686144E-16
6.164045E+03	8.417369E-15	1.706767E-16
6.173939E+03	8.540227E-15	1.725773E-16
6.183833E+03	8.648717E-15	1.742286E-16
6.193727E+03	8.740807E-15	1.755985E-16
6.203621E+03	8.814967E-15	1.766646E-16
6.213515E+03	8.868261E-15	1.773762E-16
6.223410E+03	8.902917E-15	1.777852E-16
6.233304E+03	8.921775E-15	1.779546E-16
6.243198E+03	8.928234E-15	1.779571E-16
6.253092E+03	8.925817E-15	1.778672E-16
6.262986E+03	8.917935E-15	1.777559E-16
6.272880E+03	8.907724E-15	1.776888E-16
6.282774E+03	8.897974E-15	1.777238E-16
6.292668E+03	8.891095E-15	1.779081E-16
6.302563E+03	8.889101E-15	1.782792E-16
6.312457E+03	8.893637E-15	1.788674E-16
6.322351E+03	8.905074E-15	1.796777E-16
6.332245E+03	8.926205E-15	1.807648E-16
6.342139E+03	8.956750E-15	1.821217E-16
6.352033E+03	8.996107E-15	1.837355E-16
6.361927E+03	9.046160E-15	1.856440E-16
6.371822E+03	9.105706E-15	1.878229E-16
6.381716E+03	9.173210E-15	1.902403E-16
6.391610E+03	9.249668E-15	1.929170E-16
6.401504E+03	9.331967E-15	1.957880E-16
6.411398E+03	9.419570E-15	1.988417E-16
6.421292E+03	9.511736E-15	2.020615E-16
6.431186E+03	9.604591E-15	2.053636E-16
6.441080E+03	9.697079E-15	2.087230E-16
6.450975E+03	9.788137E-15	2.121135E-16
6.460869E+03	9.873686E-15	2.154424E-16
6.470763E+03	9.952742E-15	2.186828E-16
6.480657E+03	1.002343E-14	2.217870E-16
6.490551E+03	1.008399E-14	2.247090E-16
6.500445E+03	1.013390E-14	2.274289E-16
6.510339E+03	1.016965E-14	2.298590E-16
6.520234E+03	1.019107E-14	2.319857E-16
6.530128E+03	1.019721E-14	2.337768E-16
6.540022E+03	1.018736E-14	2.352060E-16
6.549916E+03	1.016113E-14	2.362530E-16
6.559810E+03	1.011735E-14	2.368797E-16
6.569704E+03	1.005828E-14	2.371282E-16
6.579598E+03	9.983234E-15	2.369724E-16
6.589492E+03	9.892789E-15	2.364159E-16
6.599387E+03	9.787674E-15	2.354670E-16
6.609281E+03	9.667746E-15	2.341133E-16
6.619175E+03	9.536008E-15	2.324195E-16
6.629069E+03	9.392495E-15	2.303798E-16
6.638963E+03	9.238329E-15	2.280152E-16
6.648857E+03	9.073737E-15	2.253259E-16
6.658751E+03	8.901854E-15	2.223850E-16
6.668645E+03	8.722055E-15	2.191734E-16
6.678540E+03	8.537465E-15	2.157666E-16
6.688434E+03	8.347587E-15	2.121501E-16
6.698328E+03	8.155496E-15	2.084008E-16
6.708222E+03	7.960764E-15	2.045075E-16
6.718116E+03	7.766333E-15	2.005460E-16
6.728010E+03	7.571749E-15	1.965056E-16
6.737904E+03	7.379724E-15	1.924580E-16
6.747799E+03	7.189699E-15	1.883910E-16
6.757693E+03	7.003365E-15	1.843511E-16
6.767587E+03	6.822217E-15	1.803806E-16
6.777481E+03	6.645468E-15	1.764619E-16
6.787375E+03	6.474399E-15	1.726322E-16
6.797269E+03	6.309445E-15	1.689065E-16
6.807163E+03	6.150943E-15	1.652975E-16
6.817057E+03	5.999758E-15	1.618320E-16
6.826952E+03	5.854770E-15	1.584835E-16
6.836846E+03	5.716695E-15	1.552746E-16
6.846740E+03	5.585538E-15	1.522089E-16
6.856634E+03	5.461236E-15	1.492881E-16
6.866528E+03	5.343666E-15	1.465119E-16
6.876422E+03	5.232657E-15	1.438786E-16
6.886316E+03	5.127992E-15	1.413852E-16
6.896211E+03	5.029417E-15	1.390275E-16
6.906105E+03	4.936647E-15	1.367999E-16
6.915999E+03	4.848860E-15	1.346823E-16
6.925893E+03	4.766765E-15	1.326963E-16
6.935787E+03	4.689499E-15	1.308202E-16
6.945681E+03	4.616721E-15	1.290465E-16
6.955575E+03	4.548087E-15	1.273672E-16
6.965469E+03	4.482781E-15	1.257614E-16
6.975364E+03	4.421421E-15	1.242477E-16
6.985258E+03	4.363207E-15	1.228054E-16
6.995152E+03	4.307370E-15	1.214142E-16
7.005046E+03	4.254533E-15	1.200929E-16
7.014940E+03	4.203516E-15	1.188096E-16
7.024834E+03	4.154960E-15	1.175835E-16
7.034728E+03	4.108183E-15	1.163966E-16
7.044623E+03	4.062551E-15	1.152321E-16
7.054517E+03	4.018322E-15	1.140982E-16
7.064411E+03	3.975765E-15	1.130039E-16
7.074305E+03	3.933901E-15	1.119223E-16
7.084199E+03	3.893457E-15	1.108751E-16
7.094093E+03	3.853512E-15	1.098373E-16
7.103987E+03	3.814408E-15	1.088194E-16
7.113881E+03	3.776082E-15	1.078207E-16
7.123776E+03	3.738880E-15	1.068522E-16
7.133670E+03	3.701960E-15	1.058908E-16
7.143564E+03	3.665683E-15	1.049478E-16
7.153458E+03	3.630014E-15	1.040232E-16
7.163352E+03	3.594921E-15	1.031170E-16
7.173246E+03	3.560371E-15	1.022293E-16
7.183140E+03	3.526336E-15	1.013602E-16
7.193035E+03	3.492785E-15	1.005099E-16
7.202929E+03	3.459692E-15	9.967846E-17
7.212823E+03	3.427029E-15	9.886608E-17
7.222717E+03	3.394770E-15	9.807290E-17
7.232611E+03	3.362892E-15	9.729918E-17
7.242505E+03	3.331369E-15	9.654508E-17
7.252399E+03	3.300185E-15	9.581093E-17
7.262293E+03	3.268969E-15	9.508685E-17
7.272188E+03	3.238413E-15	9.439375E-17
7.282082E+03	3.208155E-15	9.372195E-17
7.291976E+03	3.177849E-15	9.306204E-17
7.301870E+03	3.148186E-15	9.243499E-17
7.311764E+03	3.118492E-15	9.182175E-17
7.321658E+03	3.089456E-15	9.124330E-17
7.331552E+03	3.060430E-15	9.068114E-17
7.341447E+03	3.032098E-15	9.015614E-17
7.351341E+03	3.003831E-15	8.965026E-17
7.361235E+03	2.976309E-15	8.918433E-17
7.371129E+03	2.948915E-15	8.874047E-17
7.381023E+03	2.922005E-15	8.832979E-17
7.390917E+03	2.895920E-15	8.796320E-17
7.400811E+03	2.870054E-15	8.762284E-17
7.410705E+03	2.844748E-15	8.731945E-17
7.420600E+03	2.820016E-15	8.705393E-17
7.430494E+03	2.795873E-15	8.682719E-17
7.440388E+03	2.772323E-15	8.663978E-17
7.450282E+03	2.749372E-15	8.649195E-17
7.460176E+03	2.727015E-15	8.638296E-17
7.470070E+03	2.705245E-15	8.631173E-17
7.479964E+03	2.684047E-15	8.627706E-17
7.489859E+03	2.663398E-15	8.627746E-17
7.499753E+03	2.643274E-15	8.631133E-17
7.509647E+03	2.623354E-15	8.636741E-17
7.519541E+03	2.604173E-15	8.646248E-17
7.529435E+03	2.585399E-15	8.658494E-17
7.539329E+03	2.566702E-15	8.672289E-17
7.549223E+03	2.548596E-15	8.689281E-17
7.559117E+03	2.530465E-15	8.707297E-17
7.569012E+03	2.512804E-15	8.727950E-17
7.578906E+03	2.494999E-15	8.749025E-17
7.588800E+03	2.477534E-15	8.772128E-17
7.598694E+03	2.459801E-15	8.795011E-17
7.608588E+03	2.442007E-15	8.818301E-17
7.618482E+03	2.424360E-15	8.842649E-17
7.628376E+03	2.406274E-15	8.865820E-17
7.638271E+03	2.387993E-15	8.888580E-17
7.648165E+03	2.369520E-15	8.910825E-17
7.658059E+03	2.350868E-15	8.932491E-17
7.667953E+03	2.332052E-15	8.953532E-17
7.677847E+03	2.313093E-15	8.973922E-17
