#wls	flux	fluxerr
1.583061E+03	2.500128E-15	1.855993E-16
1.622638E+03	2.560297E-15	1.889867E-16
1.662214E+03	2.618817E-15	1.921932E-16
1.701791E+03	2.675053E-15	1.951745E-16
1.741367E+03	2.728739E-15	1.979143E-16
1.780944E+03	2.779155E-15	2.003642E-16
1.820520E+03	2.825763E-15	2.024903E-16
1.860097E+03	2.866788E-15	2.041716E-16
1.899673E+03	2.900777E-15	2.053131E-16
1.939250E+03	2.926457E-15	2.058354E-16
1.978827E+03	2.944043E-15	2.057653E-16
2.018403E+03	2.955067E-15	2.052209E-16
2.057980E+03	2.965443E-15	2.046201E-16
2.097556E+03	2.985147E-15	2.046487E-16
2.137133E+03	3.025801E-15	2.060868E-16
2.176709E+03	3.093831E-15	2.093420E-16
2.216286E+03	3.188751E-15	2.143451E-16
2.255862E+03	3.304796E-15	2.206757E-16
2.295439E+03	3.433437E-15	2.277399E-16
2.335015E+03	3.568255E-15	2.350978E-16
2.374592E+03	3.705381E-15	2.424875E-16
2.414168E+03	3.843672E-15	2.498312E-16
2.453745E+03	3.981915E-15	2.570483E-16
2.493321E+03	4.120742E-15	2.641792E-16
2.532898E+03	4.258782E-15	2.711351E-16
2.572475E+03	4.397386E-15	2.780020E-16
2.612051E+03	4.535603E-15	2.847191E-16
2.651628E+03	4.673745E-15	2.913059E-16
2.691204E+03	4.810342E-15	2.976700E-16
2.730781E+03	4.944452E-15	3.037527E-16
2.770357E+03	5.075685E-15	3.095309E-16
2.809934E+03	5.200767E-15	3.148074E-16
2.849510E+03	5.319536E-15	3.195775E-16
2.889087E+03	5.429849E-15	3.237192E-16
2.928663E+03	5.527460E-15	3.269899E-16
2.968240E+03	5.611589E-15	3.293586E-16
2.978134E+03	5.630290E-15	3.297986E-16
2.988028E+03	5.647881E-15	3.301679E-16
2.997922E+03	5.664318E-15	3.304642E-16
3.007816E+03	5.678626E-15	3.306313E-16
3.017710E+03	5.692706E-15	3.307803E-16
3.027605E+03	5.705618E-15	3.308567E-16
3.037499E+03	5.717321E-15	3.308585E-16
3.047393E+03	5.727776E-15	3.307839E-16
3.057287E+03	5.737020E-15	3.306354E-16
3.067181E+03	5.744984E-15	3.304095E-16
3.077075E+03	5.751604E-15	3.301029E-16
3.086969E+03	5.755863E-15	3.296579E-16
3.096864E+03	5.759614E-15	3.291811E-16
3.106758E+03	5.761850E-15	3.286154E-16
3.116652E+03	5.762523E-15	3.279584E-16
3.126546E+03	5.761587E-15	3.272083E-16
3.136440E+03	5.759003E-15	3.263632E-16
3.146334E+03	5.754735E-15	3.254218E-16
3.156228E+03	5.748753E-15	3.243829E-16
3.166122E+03	5.741976E-15	3.232990E-16
3.176017E+03	5.732486E-15	3.220626E-16
3.185911E+03	5.721215E-15	3.207269E-16
3.195805E+03	5.708150E-15	3.192919E-16
3.205699E+03	5.693286E-15	3.177579E-16
3.215593E+03	5.676619E-15	3.161255E-16
3.225487E+03	5.658153E-15	3.143954E-16
3.235381E+03	5.637899E-15	3.125690E-16
3.245276E+03	5.616791E-15	3.106988E-16
3.255170E+03	5.593003E-15	3.086840E-16
3.265064E+03	5.567486E-15	3.065783E-16
3.274958E+03	5.540274E-15	3.043842E-16
3.284852E+03	5.511405E-15	3.021043E-16
3.294746E+03	5.481820E-15	2.997908E-16
3.304640E+03	5.449772E-15	2.973488E-16
3.314534E+03	5.416220E-15	2.948313E-16
3.324429E+03	5.381230E-15	2.922425E-16
3.334323E+03	5.345742E-15	2.896341E-16
3.344217E+03	5.308084E-15	2.869158E-16
3.354111E+03	5.269219E-15	2.841403E-16
3.364005E+03	5.230085E-15	2.813589E-16
3.373899E+03	5.189071E-15	2.784850E-16
3.383793E+03	5.147134E-15	2.755707E-16
3.393688E+03	5.105211E-15	2.726664E-16
3.403582E+03	5.061746E-15	2.696893E-16
3.413476E+03	5.017689E-15	2.666906E-16
3.423370E+03	4.973964E-15	2.637194E-16
3.433264E+03	4.929064E-15	2.606960E-16
3.443158E+03	4.883921E-15	2.576700E-16
3.453052E+03	4.839419E-15	2.546881E-16
3.462946E+03	4.794088E-15	2.516728E-16
3.472841E+03	4.749589E-15	2.487115E-16
3.482735E+03	4.704481E-15	2.457287E-16
3.492629E+03	4.660396E-15	2.428097E-16
3.502523E+03	4.615926E-15	2.398808E-16
3.512417E+03	4.571940E-15	2.369874E-16
3.522311E+03	4.529273E-15	2.341724E-16
3.532205E+03	4.486566E-15	2.313654E-16
3.542100E+03	4.445378E-15	2.286464E-16
3.551994E+03	4.404376E-15	2.259466E-16
3.561888E+03	4.365086E-15	2.233440E-16
3.571782E+03	4.326200E-15	2.207712E-16
3.581676E+03	4.289208E-15	2.183039E-16
3.591570E+03	4.252820E-15	2.158760E-16
3.601464E+03	4.218490E-15	2.135607E-16
3.611358E+03	4.184941E-15	2.112929E-16
3.621253E+03	4.153592E-15	2.091436E-16
3.631147E+03	4.123175E-15	2.070484E-16
3.641041E+03	4.095071E-15	2.050761E-16
3.650935E+03	4.068020E-15	2.031628E-16
3.660829E+03	4.043367E-15	2.013751E-16
3.670723E+03	4.019854E-15	1.996495E-16
3.680617E+03	3.998793E-15	1.980506E-16
3.690512E+03	3.978926E-15	1.965154E-16
3.700406E+03	3.961534E-15	1.951063E-16
3.710300E+03	3.945986E-15	1.937915E-16
3.720194E+03	3.931655E-15	1.925394E-16
3.730088E+03	3.919780E-15	1.914101E-16
3.739982E+03	3.909101E-15	1.903412E-16
3.749876E+03	3.900834E-15	1.893913E-16
3.759770E+03	3.893714E-15	1.884982E-16
3.769665E+03	3.888940E-15	1.877192E-16
3.779559E+03	3.885240E-15	1.869923E-16
3.789453E+03	3.883801E-15	1.863738E-16
3.799347E+03	3.883345E-15	1.858017E-16
3.809241E+03	3.885045E-15	1.853317E-16
3.819135E+03	3.888234E-15	1.849310E-16
3.829029E+03	3.892238E-15	1.845671E-16
3.838924E+03	3.898221E-15	1.842947E-16
3.848818E+03	3.904894E-15	1.840522E-16
3.858712E+03	3.913417E-15	1.838938E-16
3.868606E+03	3.922494E-15	1.837581E-16
3.878500E+03	3.933288E-15	1.836991E-16
3.888394E+03	3.944498E-15	1.836556E-16
3.898288E+03	3.957291E-15	1.836817E-16
3.908182E+03	3.970362E-15	1.837161E-16
3.918077E+03	3.984886E-15	1.838131E-16
3.927971E+03	3.999554E-15	1.839118E-16
3.937865E+03	4.015551E-15	1.840666E-16
3.947759E+03	4.031564E-15	1.842168E-16
3.957653E+03	4.048792E-15	1.844172E-16
3.967547E+03	4.065918E-15	1.846073E-16
3.977441E+03	4.084155E-15	1.848423E-16
3.987336E+03	4.102184E-15	1.850622E-16
3.997230E+03	4.121231E-15	1.853221E-16
4.007124E+03	4.139974E-15	1.855625E-16
4.017018E+03	4.159656E-15	1.858391E-16
4.026912E+03	4.178950E-15	1.860923E-16
4.036806E+03	4.199112E-15	1.863782E-16
4.046700E+03	4.218812E-15	1.866376E-16
4.056594E+03	4.238664E-15	1.868978E-16
4.066489E+03	4.259298E-15	1.871865E-16
4.076383E+03	4.279370E-15	1.874444E-16
4.086277E+03	4.300172E-15	1.877284E-16
4.096171E+03	4.320351E-15	1.879793E-16
4.106065E+03	4.340541E-15	1.882249E-16
4.115959E+03	4.361385E-15	1.884931E-16
4.125853E+03	4.381510E-15	1.887244E-16
4.135748E+03	4.402232E-15	1.889759E-16
4.145642E+03	4.422163E-15	1.891877E-16
4.155536E+03	4.441938E-15	1.893876E-16
4.165430E+03	4.462199E-15	1.896029E-16
4.175324E+03	4.481531E-15	1.897735E-16
4.185218E+03	4.500562E-15	1.899265E-16
4.195112E+03	4.519236E-15	1.900596E-16
4.205006E+03	4.538184E-15	1.901995E-16
4.214901E+03	4.555949E-15	1.902854E-16
4.224795E+03	4.573154E-15	1.903438E-16
4.234689E+03	4.589723E-15	1.903719E-16
4.244583E+03	4.606285E-15	1.903960E-16
4.254477E+03	4.621359E-15	1.903551E-16
4.264371E+03	4.635576E-15	1.902760E-16
4.274265E+03	4.648867E-15	1.901563E-16
4.284159E+03	4.661180E-15	1.899942E-16
4.294054E+03	4.672468E-15	1.897883E-16
4.303948E+03	4.683408E-15	1.895661E-16
4.313842E+03	4.692542E-15	1.892690E-16
4.323736E+03	4.700560E-15	1.889253E-16
4.333630E+03	4.707445E-15	1.885348E-16
4.343524E+03	4.713187E-15	1.880975E-16
4.353418E+03	4.717782E-15	1.876135E-16
4.363313E+03	4.721239E-15	1.870836E-16
4.373207E+03	4.723569E-15	1.865085E-16
4.383101E+03	4.724794E-15	1.858897E-16
4.392995E+03	4.724942E-15	1.852284E-16
4.402889E+03	4.724051E-15	1.845266E-16
4.412783E+03	4.722161E-15	1.837861E-16
4.422677E+03	4.719320E-15	1.830092E-16
4.432571E+03	4.715582E-15	1.821981E-16
4.442466E+03	4.711001E-15	1.813554E-16
4.452360E+03	4.704929E-15	1.804563E-16
4.462254E+03	4.698848E-15	1.795582E-16
4.472148E+03	4.692113E-15	1.786363E-16
4.482042E+03	4.684792E-15	1.776933E-16
4.491936E+03	4.676950E-15	1.767321E-16
4.501830E+03	4.667955E-15	1.757288E-16
4.511725E+03	4.659282E-15	1.747392E-16
4.521619E+03	4.650295E-15	1.737394E-16
4.531513E+03	4.641062E-15	1.727319E-16
4.541407E+03	4.630955E-15	1.716935E-16
4.551301E+03	4.621432E-15	1.706784E-16
4.561195E+03	4.611859E-15	1.696630E-16
4.571089E+03	4.601606E-15	1.686240E-16
4.580983E+03	4.592112E-15	1.676144E-16
4.590878E+03	4.582053E-15	1.665855E-16
4.600772E+03	4.572852E-15	1.655891E-16
4.610666E+03	4.563182E-15	1.645770E-16
4.620560E+03	4.554449E-15	1.635997E-16
4.630454E+03	4.545318E-15	1.626092E-16
4.640348E+03	4.537174E-15	1.616548E-16
4.650242E+03	4.528678E-15	1.606887E-16
4.660137E+03	4.521192E-15	1.597590E-16
4.670031E+03	4.513364E-15	1.588177E-16
4.679925E+03	4.506534E-15	1.579120E-16
4.689819E+03	4.499340E-15	1.569938E-16
4.699713E+03	4.492427E-15	1.560857E-16
4.709607E+03	4.485763E-15	1.551864E-16
4.719501E+03	4.479969E-15	1.543172E-16
4.729395E+03	4.473660E-15	1.534303E-16
4.739290E+03	4.467447E-15	1.525468E-16
4.749184E+03	4.461265E-15	1.516643E-16
4.759078E+03	4.455707E-15	1.508029E-16
4.768972E+03	4.449375E-15	1.499154E-16
4.778866E+03	4.442859E-15	1.490218E-16
4.788760E+03	4.436079E-15	1.481195E-16
4.798654E+03	4.428963E-15	1.472064E-16
4.808549E+03	4.421435E-15	1.462801E-16
4.818443E+03	4.413427E-15	1.453385E-16
4.828337E+03	4.404873E-15	1.443798E-16
4.838231E+03	4.395716E-15	1.434025E-16
4.848125E+03	4.385904E-15	1.424051E-16
4.858019E+03	4.375395E-15	1.413867E-16
4.867913E+03	4.364157E-15	1.403465E-16
4.877807E+03	4.352167E-15	1.392844E-16
4.887702E+03	4.339412E-15	1.382002E-16
4.897596E+03	4.325252E-15	1.370742E-16
4.907490E+03	4.310974E-15	1.359476E-16
4.917384E+03	4.295955E-15	1.348012E-16
4.927278E+03	4.280224E-15	1.336360E-16
4.937172E+03	4.263189E-15	1.324344E-16
4.947066E+03	4.246153E-15	1.312371E-16
4.956961E+03	4.228537E-15	1.300265E-16
4.966855E+03	4.209780E-15	1.287859E-16
4.976749E+03	4.191186E-15	1.275555E-16
4.986643E+03	4.172202E-15	1.263187E-16
4.996537E+03	4.152287E-15	1.250595E-16
5.006431E+03	4.132737E-15	1.238172E-16
5.016325E+03	4.112408E-15	1.225577E-16
5.026219E+03	4.092586E-15	1.213196E-16
5.036114E+03	4.072137E-15	1.200694E-16
5.046008E+03	4.052329E-15	1.188447E-16
5.055902E+03	4.032041E-15	1.176126E-16
5.065796E+03	4.011932E-15	1.163926E-16
5.075690E+03	3.992649E-15	1.152034E-16
5.085584E+03	3.973073E-15	1.140126E-16
5.095478E+03	3.953844E-15	1.128389E-16
5.105373E+03	3.935006E-15	1.116833E-16
5.115267E+03	3.917172E-15	1.105633E-16
5.125161E+03	3.899228E-15	1.094472E-16
5.135055E+03	3.881779E-15	1.083520E-16
5.144949E+03	3.864849E-15	1.072784E-16
5.154843E+03	3.848458E-15	1.062269E-16
5.164737E+03	3.832620E-15	1.051977E-16
5.174631E+03	3.817906E-15	1.042063E-16
5.184526E+03	3.803206E-15	1.032222E-16
5.194420E+03	3.789087E-15	1.022610E-16
5.204314E+03	3.775552E-15	1.013225E-16
5.214208E+03	3.762605E-15	1.004068E-16
5.224102E+03	3.750248E-15	9.951380E-17
5.233996E+03	3.737938E-15	9.862916E-17
5.243890E+03	3.726769E-15	9.778173E-17
5.253785E+03	3.716198E-15	9.695697E-17
5.263679E+03	3.706230E-15	9.615493E-17
5.273573E+03	3.696869E-15	9.537567E-17
5.283467E+03	3.688125E-15	9.461934E-17
5.293361E+03	3.679472E-15	9.387244E-17
5.303255E+03	3.671994E-15	9.316264E-17
5.313149E+03	3.665169E-15	9.247646E-17
5.323043E+03	3.658482E-15	9.180089E-17
5.332938E+03	3.653018E-15	9.116318E-17
5.342832E+03	3.648266E-15	9.055030E-17
5.352726E+03	3.643724E-15	8.994979E-17
5.362620E+03	3.640483E-15	8.938855E-17
5.372514E+03	3.637525E-15	8.884142E-17
5.382408E+03	3.635961E-15	8.833550E-17
5.392302E+03	3.634791E-15	8.784625E-17
5.402196E+03	3.635127E-15	8.740054E-17
5.412091E+03	3.635970E-15	8.697389E-17
5.421985E+03	3.638428E-15	8.659238E-17
5.431879E+03	3.641497E-15	8.623143E-17
5.441773E+03	3.645759E-15	8.590435E-17
5.451667E+03	3.651793E-15	8.562415E-17
5.461561E+03	3.658591E-15	8.536652E-17
5.471455E+03	3.666730E-15	8.514444E-17
5.481350E+03	3.676793E-15	8.497075E-17
5.491244E+03	3.687761E-15	8.482122E-17
5.501138E+03	3.700209E-15	8.470860E-17
5.511032E+03	3.714182E-15	8.463326E-17
5.520926E+03	3.729721E-15	8.459552E-17
5.530820E+03	3.747410E-15	8.460792E-17
5.540714E+03	3.766203E-15	8.464620E-17
5.550608E+03	3.786679E-15	8.472282E-17
5.560503E+03	3.808869E-15	8.483788E-17
5.570397E+03	3.832807E-15	8.499148E-17
5.580291E+03	3.858524E-15	8.518368E-17
5.590185E+03	3.886043E-15	8.541440E-17
5.600079E+03	3.915389E-15	8.568354E-17
5.609973E+03	3.946580E-15	8.599093E-17
5.619867E+03	3.979631E-15	8.633625E-17
5.629762E+03	4.014553E-15	8.671917E-17
5.639656E+03	4.050764E-15	8.712658E-17
5.649550E+03	4.089431E-15	8.758308E-17
5.659444E+03	4.129966E-15	8.807539E-17
5.669338E+03	4.172358E-15	8.860275E-17
5.679232E+03	4.216588E-15	8.916422E-17
5.689126E+03	4.262014E-15	8.974577E-17
5.699020E+03	4.309834E-15	9.037219E-17
5.708915E+03	4.359400E-15	9.102932E-17
5.718809E+03	4.410670E-15	9.171586E-17
5.728703E+03	4.462955E-15	9.241710E-17
5.738597E+03	4.517488E-15	9.315825E-17
5.748491E+03	4.572919E-15	9.391104E-17
5.758385E+03	4.630510E-15	9.470115E-17
5.768279E+03	4.689555E-15	9.551371E-17
5.778174E+03	4.749322E-15	9.633359E-17
5.788068E+03	4.811127E-15	9.718735E-17
5.797962E+03	4.873552E-15	9.804603E-17
5.807856E+03	4.937966E-15	9.893708E-17
5.817750E+03	5.002932E-15	9.983153E-17
5.827644E+03	5.069879E-15	1.007578E-16
5.837538E+03	5.137358E-15	1.016870E-16
5.847432E+03	5.206115E-15	1.026339E-16
5.857327E+03	5.276952E-15	1.036142E-16
5.867221E+03	5.348413E-15	1.045993E-16
5.877115E+03	5.421325E-15	1.056054E-16
5.887009E+03	5.496578E-15	1.066499E-16
5.896903E+03	5.572710E-15	1.077043E-16
5.906797E+03	5.650631E-15	1.087863E-16
5.916691E+03	5.731318E-15	1.099149E-16
5.926586E+03	5.813287E-15	1.110615E-16
5.936480E+03	5.897524E-15	1.122451E-16
5.946374E+03	5.984206E-15	1.134692E-16
5.956268E+03	6.073512E-15	1.147374E-16
5.966162E+03	6.166510E-15	1.160698E-16
5.976056E+03	6.261600E-15	1.174365E-16
5.985950E+03	6.359815E-15	1.188571E-16
5.995844E+03	6.461285E-15	1.203343E-16
6.005739E+03	6.566110E-15	1.218702E-16
6.015633E+03	6.674353E-15	1.234664E-16
6.025527E+03	6.786029E-15	1.251236E-16
6.035421E+03	6.901094E-15	1.268416E-16
6.045315E+03	7.019436E-15	1.286188E-16
6.055209E+03	7.140870E-15	1.304527E-16
6.065103E+03	7.265119E-15	1.323390E-16
6.074998E+03	7.391810E-15	1.342721E-16
6.084892E+03	7.520465E-15	1.362445E-16
6.094786E+03	7.650498E-15	1.382468E-16
6.104680E+03	7.781201E-15	1.402679E-16
6.114574E+03	7.911752E-15	1.422947E-16
6.124468E+03	8.041215E-15	1.443122E-16
6.134362E+03	8.167361E-15	1.462826E-16
6.144256E+03	8.291392E-15	1.482296E-16
6.154151E+03	8.410930E-15	1.501130E-16
6.164045E+03	8.524716E-15	1.519128E-16
6.173939E+03	8.631479E-15	1.536088E-16
6.183833E+03	8.728739E-15	1.551594E-16
6.193727E+03	8.817893E-15	1.565920E-16
6.203621E+03	8.896798E-15	1.578709E-16
6.213515E+03	8.964935E-15	1.589891E-16
6.223410E+03	9.021136E-15	1.599279E-16
6.233304E+03	9.068580E-15	1.607455E-16
6.243198E+03	9.106812E-15	1.614355E-16
6.253092E+03	9.135524E-15	1.619935E-16
6.262986E+03	9.158463E-15	1.624874E-16
6.272880E+03	9.174153E-15	1.628918E-16
6.282774E+03	9.186397E-15	1.632739E-16
6.292668E+03	9.194978E-15	1.636289E-16
6.302563E+03	9.199587E-15	1.639498E-16
6.312457E+03	9.203789E-15	1.642990E-16
6.322351E+03	9.205711E-15	1.646417E-16
6.332245E+03	9.208656E-15	1.650357E-16
6.342139E+03	9.210467E-15	1.654413E-16
6.352033E+03	9.214159E-15	1.659113E-16
6.361927E+03	9.217282E-15	1.664005E-16
6.371822E+03	9.222572E-15	1.669573E-16
6.381716E+03	9.227304E-15	1.675313E-16
6.391610E+03	9.232628E-15	1.681421E-16
6.401504E+03	9.239585E-15	1.688077E-16
6.411398E+03	9.245113E-15	1.694711E-16
6.421292E+03	9.251410E-15	1.701713E-16
6.431186E+03	9.255253E-15	1.708478E-16
6.441080E+03	9.257385E-15	1.715128E-16
6.450975E+03	9.258509E-15	1.721779E-16
6.460869E+03	9.255292E-15	1.727794E-16
6.470763E+03	9.248418E-15	1.733282E-16
6.480657E+03	9.238577E-15	1.738354E-16
6.490551E+03	9.222478E-15	1.742369E-16
6.500445E+03	9.200883E-15	1.745448E-16
6.510339E+03	9.173271E-15	1.747466E-16
6.520234E+03	9.140513E-15	1.748567E-16
6.530128E+03	9.099576E-15	1.748143E-16
6.540022E+03	9.051492E-15	1.746364E-16
6.549916E+03	8.996051E-15	1.743162E-16
6.559810E+03	8.933135E-15	1.738486E-16
6.569704E+03	8.863997E-15	1.732551E-16
6.579598E+03	8.786124E-15	1.724840E-16
6.589492E+03	8.700959E-15	1.715606E-16
6.599387E+03	8.608736E-15	1.704868E-16
6.609281E+03	8.509763E-15	1.692662E-16
6.619175E+03	8.404420E-15	1.679039E-16
6.629069E+03	8.293147E-15	1.664063E-16
6.638963E+03	8.176439E-15	1.647812E-16
6.648857E+03	8.054832E-15	1.630376E-16
6.658751E+03	7.928899E-15	1.611851E-16
6.668645E+03	7.800363E-15	1.592574E-16
6.678540E+03	7.667560E-15	1.572193E-16
6.688434E+03	7.532252E-15	1.551056E-16
6.698328E+03	7.395057E-15	1.529281E-16
6.708222E+03	7.256581E-15	1.506987E-16
6.718116E+03	7.116379E-15	1.484074E-16
6.728010E+03	6.977101E-15	1.461092E-16
6.737904E+03	6.838228E-15	1.437933E-16
6.747799E+03	6.700262E-15	1.414704E-16
6.757693E+03	6.563662E-15	1.391502E-16
6.767587E+03	6.428855E-15	1.368424E-16
6.777481E+03	6.296216E-15	1.345552E-16
6.787375E+03	6.166079E-15	1.322966E-16
6.797269E+03	6.038734E-15	1.300735E-16
6.807163E+03	5.914428E-15	1.278919E-16
6.817057E+03	5.792519E-15	1.257389E-16
6.826952E+03	5.674871E-15	1.236558E-16
6.836846E+03	5.560743E-15	1.216275E-16
6.846740E+03	5.450219E-15	1.196570E-16
6.856634E+03	5.343347E-15	1.177464E-16
6.866528E+03	5.239381E-15	1.158801E-16
6.876422E+03	5.139846E-15	1.140931E-16
6.886316E+03	5.043925E-15	1.123682E-16
6.896211E+03	4.951558E-15	1.107053E-16
6.906105E+03	4.861951E-15	1.090875E-16
6.915999E+03	4.776435E-15	1.075457E-16
6.925893E+03	4.694173E-15	1.060621E-16
6.935787E+03	4.615039E-15	1.046349E-16
6.945681E+03	4.538238E-15	1.032469E-16
6.955575E+03	4.464961E-15	1.019260E-16
6.965469E+03	4.394389E-15	1.006546E-16
6.975364E+03	4.325744E-15	9.941541E-17
6.985258E+03	4.260149E-15	9.823512E-17
6.995152E+03	4.196201E-15	9.708219E-17
7.005046E+03	4.134990E-15	9.598246E-17
7.014940E+03	4.075756E-15	9.491906E-17
7.024834E+03	4.017775E-15	9.387573E-17
7.034728E+03	3.962101E-15	9.287763E-17
7.044623E+03	3.907443E-15	9.189517E-17
7.054517E+03	3.854837E-15	9.095320E-17
7.064411E+03	3.803041E-15	9.002297E-17
7.074305E+03	3.753073E-15	8.912904E-17
7.084199E+03	3.703738E-15	8.824353E-17
7.094093E+03	3.656039E-15	8.739078E-17
7.103987E+03	3.608826E-15	8.654372E-17
7.113881E+03	3.563089E-15	8.572649E-17
7.123776E+03	3.517718E-15	8.491280E-17
7.133670E+03	3.473691E-15	8.412661E-17
7.143564E+03	3.429937E-15	8.334235E-17
7.153458E+03	3.387421E-15	8.258380E-17
7.163352E+03	3.345106E-15	8.182602E-17
7.173246E+03	3.303459E-15	8.108070E-17
7.183140E+03	3.262930E-15	8.035920E-17
7.193035E+03	3.222531E-15	7.963754E-17
7.202929E+03	3.182725E-15	7.892733E-17
7.212823E+03	3.143954E-15	7.823991E-17
7.222717E+03	3.105278E-15	7.755213E-17
7.232611E+03	3.067152E-15	7.687552E-17
7.242505E+03	3.030011E-15	7.622134E-17
7.252399E+03	2.992955E-15	7.556720E-17
7.262293E+03	2.956435E-15	7.492460E-17
7.272188E+03	2.920876E-15	7.430463E-17
7.282082E+03	2.885418E-15	7.368567E-17
7.291976E+03	2.850501E-15	7.307907E-17
7.301870E+03	2.816129E-15	7.248517E-17
7.311764E+03	2.782309E-15	7.190437E-17
7.321658E+03	2.749458E-15	7.134765E-17
7.331552E+03	2.716770E-15	7.079443E-17
7.341447E+03	2.684667E-15	7.025576E-17
7.351341E+03	2.653161E-15	6.973217E-17
7.361235E+03	2.622264E-15	6.922424E-17
7.371129E+03	2.591989E-15	6.873245E-17
7.381023E+03	2.562726E-15	6.826745E-17
7.390917E+03	2.533727E-15	6.780958E-17
7.400811E+03	2.505387E-15	6.736950E-17
7.410705E+03	2.477714E-15	6.694769E-17
7.420600E+03	2.450720E-15	6.654467E-17
7.430494E+03	2.424413E-15	6.616089E-17
7.440388E+03	2.398799E-15	6.579675E-17
7.450282E+03	2.373882E-15	6.545263E-17
7.460176E+03	2.349668E-15	6.512889E-17
7.470070E+03	2.326158E-15	6.482572E-17
7.479964E+03	2.303351E-15	6.454308E-17
7.489859E+03	2.281244E-15	6.428087E-17
7.499753E+03	2.259833E-15	6.403893E-17
7.509647E+03	2.239110E-15	6.381701E-17
7.519541E+03	2.219066E-15	6.361488E-17
7.529435E+03	2.199689E-15	6.343221E-17
7.539329E+03	2.180969E-15	6.326868E-17
7.549223E+03	2.162887E-15	6.312385E-17
7.559117E+03	2.145114E-15	6.298802E-17
7.569012E+03	2.128265E-15	6.287927E-17
7.578906E+03	2.112002E-15	6.278778E-17
7.588800E+03	2.096302E-15	6.271290E-17
7.598694E+03	2.081142E-15	6.265401E-17
7.608588E+03	2.066500E-15	6.261045E-17
7.618482E+03	2.052048E-15	6.257231E-17
7.628376E+03	2.038374E-15	6.255749E-17
7.638271E+03	2.025153E-15	6.255617E-17
7.648165E+03	2.012371E-15	6.256799E-17
7.658059E+03	2.000015E-15	6.259254E-17
7.667953E+03	1.987777E-15	6.262020E-17
7.677847E+03	1.976235E-15	6.266916E-17
