#wls	flux	fluxerr
1.583061E+03	2.563763E-15	8.721050E-17
1.622638E+03	2.634872E-15	8.877564E-17
1.662214E+03	2.704155E-15	9.023103E-17
1.701791E+03	2.772333E-15	9.160297E-17
1.741367E+03	2.838611E-15	9.286735E-17
1.780944E+03	2.902165E-15	9.400039E-17
1.820520E+03	2.961813E-15	9.496800E-17
1.860097E+03	3.016064E-15	9.572806E-17
1.899673E+03	3.063220E-15	9.623394E-17
1.939250E+03	3.102275E-15	9.646285E-17
1.978827E+03	3.132119E-15	9.639018E-17
2.018403E+03	3.154080E-15	9.606697E-17
2.057980E+03	3.175277E-15	9.571717E-17
2.097556E+03	3.205574E-15	9.563772E-17
2.137133E+03	3.257458E-15	9.619097E-17
2.176709E+03	3.337241E-15	9.754351E-17
2.216286E+03	3.445382E-15	9.968549E-17
2.255862E+03	3.573441E-15	1.023525E-16
2.295439E+03	3.713766E-15	1.053127E-16
2.335015E+03	3.858675E-15	1.083419E-16
2.374592E+03	4.003742E-15	1.113148E-16
2.414168E+03	4.146699E-15	1.141706E-16
2.453745E+03	4.287279E-15	1.169053E-16
2.493321E+03	4.423489E-15	1.194687E-16
2.532898E+03	4.556341E-15	1.218928E-16
2.572475E+03	4.684281E-15	1.241406E-16
2.612051E+03	4.806157E-15	1.261872E-16
2.651628E+03	4.921445E-15	1.280248E-16
2.691204E+03	5.030922E-15	1.296778E-16
2.730781E+03	5.132438E-15	1.310937E-16
2.770357E+03	5.227008E-15	1.323020E-16
2.809934E+03	5.312709E-15	1.332575E-16
2.849510E+03	5.387328E-15	1.339090E-16
2.889087E+03	5.451263E-15	1.342721E-16
2.928663E+03	5.502982E-15	1.343147E-16
2.968240E+03	5.539013E-15	1.339590E-16
2.978134E+03	5.545537E-15	1.338081E-16
2.988028E+03	5.551022E-15	1.336317E-16
2.997922E+03	5.555447E-15	1.334293E-16
3.007816E+03	5.558805E-15	1.332009E-16
3.017710E+03	5.562081E-15	1.329703E-16
3.027605E+03	5.563391E-15	1.326924E-16
3.037499E+03	5.563672E-15	1.323900E-16
3.047393E+03	5.562909E-15	1.320628E-16
3.057287E+03	5.561161E-15	1.317123E-16
3.067181E+03	5.558384E-15	1.313377E-16
3.077075E+03	5.554539E-15	1.309382E-16
3.086969E+03	5.550545E-15	1.305356E-16
3.096864E+03	5.544465E-15	1.300845E-16
3.106758E+03	5.537227E-15	1.296068E-16
3.116652E+03	5.528810E-15	1.291024E-16
3.126546E+03	5.519199E-15	1.285710E-16
3.136440E+03	5.509323E-15	1.280345E-16
3.146334E+03	5.497285E-15	1.274488E-16
3.156228E+03	5.484028E-15	1.268362E-16
3.166122E+03	5.469553E-15	1.261969E-16
3.176017E+03	5.453865E-15	1.255312E-16
3.185911E+03	5.437903E-15	1.248608E-16
3.195805E+03	5.419818E-15	1.241435E-16
3.205699E+03	5.400559E-15	1.234013E-16
3.215593E+03	5.380152E-15	1.226349E-16
3.225487E+03	5.359535E-15	1.218660E-16
3.235381E+03	5.336906E-15	1.210537E-16
3.245276E+03	5.313218E-15	1.202199E-16
3.255170E+03	5.289412E-15	1.193859E-16
3.265064E+03	5.263723E-15	1.185122E-16
3.274958E+03	5.237103E-15	1.176205E-16
3.284852E+03	5.209604E-15	1.167119E-16
3.294746E+03	5.182162E-15	1.158077E-16
3.304640E+03	5.153064E-15	1.148696E-16
3.314534E+03	5.123261E-15	1.139191E-16
3.324429E+03	5.093683E-15	1.129770E-16
3.334323E+03	5.062659E-15	1.120062E-16
3.344217E+03	5.031134E-15	1.110278E-16
3.354111E+03	5.000027E-15	1.100623E-16
3.364005E+03	4.967713E-15	1.090738E-16
3.373899E+03	4.935124E-15	1.080830E-16
3.383793E+03	4.903170E-15	1.071099E-16
3.393688E+03	4.870265E-15	1.061197E-16
3.403582E+03	4.837326E-15	1.051327E-16
3.413476E+03	4.805250E-15	1.041682E-16
3.423370E+03	4.772481E-15	1.031925E-16
3.433264E+03	4.739917E-15	1.022250E-16
3.443158E+03	4.708429E-15	1.012844E-16
3.453052E+03	4.676478E-15	1.003375E-16
3.462946E+03	4.645710E-15	9.941956E-17
3.472841E+03	4.614604E-15	9.849792E-17
3.482735E+03	4.584004E-15	9.759057E-17
3.492629E+03	4.554730E-15	9.671486E-17
3.502523E+03	4.525295E-15	9.583900E-17
3.512417E+03	4.496520E-15	9.498040E-17
3.522311E+03	4.469212E-15	9.415594E-17
3.532205E+03	4.441910E-15	9.333462E-17
3.542100E+03	4.416164E-15	9.254897E-17
3.551994E+03	4.390531E-15	9.176851E-17
3.561888E+03	4.365807E-15	9.100986E-17
3.571782E+03	4.342768E-15	9.028896E-17
3.581676E+03	4.319992E-15	8.957608E-17
3.591570E+03	4.298981E-15	8.890219E-17
3.601464E+03	4.278324E-15	8.823795E-17
3.611358E+03	4.258787E-15	8.759900E-17
3.621253E+03	4.241117E-15	8.700050E-17
3.631147E+03	4.223919E-15	8.641363E-17
3.641041E+03	4.208644E-15	8.586789E-17
3.650935E+03	4.193906E-15	8.533477E-17
3.660829E+03	4.180435E-15	8.482901E-17
3.670723E+03	4.168952E-15	8.436500E-17
3.680617E+03	4.158074E-15	8.391447E-17
3.690512E+03	4.149212E-15	8.350577E-17
3.700406E+03	4.140982E-15	8.311080E-17
3.710300E+03	4.134090E-15	8.274356E-17
3.720194E+03	4.129231E-15	8.241775E-17
3.730088E+03	4.125022E-15	8.210550E-17
3.739982E+03	4.122840E-15	8.183406E-17
3.749876E+03	4.121301E-15	8.157571E-17
3.759770E+03	4.121774E-15	8.135739E-17
3.769665E+03	4.122869E-15	8.115142E-17
3.779559E+03	4.125259E-15	8.097095E-17
3.789453E+03	4.129615E-15	8.082889E-17
3.799347E+03	4.134537E-15	8.069766E-17
3.809241E+03	4.141382E-15	8.060356E-17
3.819135E+03	4.148743E-15	8.051901E-17
3.829029E+03	4.157282E-15	8.045676E-17
3.838924E+03	4.167660E-15	8.042944E-17
3.848818E+03	4.178460E-15	8.040947E-17
3.858712E+03	4.191035E-15	8.042282E-17
3.868606E+03	4.203958E-15	8.044189E-17
3.878500E+03	4.217885E-15	8.047922E-17
3.888394E+03	4.233481E-15	8.054731E-17
3.898288E+03	4.249299E-15	8.061853E-17
3.908182E+03	4.266002E-15	8.070536E-17
3.918077E+03	4.284255E-15	8.082032E-17
3.927971E+03	4.302596E-15	8.093569E-17
3.937865E+03	4.322408E-15	8.107742E-17
3.947759E+03	4.342213E-15	8.121774E-17
3.957653E+03	4.362680E-15	8.136917E-17
3.967547E+03	4.384491E-15	8.154433E-17
3.977441E+03	4.406150E-15	8.171534E-17
3.987336E+03	4.428331E-15	8.189479E-17
3.997230E+03	4.451727E-15	8.209540E-17
4.007124E+03	4.474818E-15	8.228914E-17
4.017018E+03	4.498292E-15	8.248872E-17
4.026912E+03	4.522847E-15	8.270695E-17
4.036806E+03	4.546942E-15	8.291565E-17
4.046700E+03	4.571273E-15	8.312761E-17
4.056594E+03	4.596550E-15	8.335576E-17
4.066489E+03	4.621205E-15	8.357173E-17
4.076383E+03	4.645945E-15	8.378841E-17
4.086277E+03	4.671486E-15	8.401878E-17
4.096171E+03	4.696237E-15	8.423430E-17
4.106065E+03	4.720911E-15	8.444792E-17
4.115959E+03	4.746232E-15	8.467268E-17
4.125853E+03	4.770583E-15	8.487982E-17
4.135748E+03	4.794681E-15	8.508234E-17
4.145642E+03	4.818467E-15	8.527930E-17
4.155536E+03	4.842672E-15	8.548379E-17
4.165430E+03	4.865644E-15	8.566676E-17
4.175324E+03	4.888108E-15	8.584126E-17
4.185218E+03	4.910804E-15	8.602041E-17
4.195112E+03	4.932053E-15	8.617496E-17
4.205006E+03	4.952587E-15	8.631800E-17
4.214901E+03	4.972336E-15	8.644853E-17
4.224795E+03	4.991228E-15	8.656549E-17
4.234689E+03	5.010017E-15	8.668216E-17
4.244583E+03	5.026989E-15	8.676913E-17
4.254477E+03	5.042902E-15	8.683975E-17
4.264371E+03	5.057692E-15	8.689320E-17
4.274265E+03	5.071324E-15	8.692910E-17
4.284159E+03	5.084620E-15	8.696167E-17
4.294054E+03	5.095923E-15	8.696257E-17
4.303948E+03	5.106074E-15	8.694629E-17
4.313842E+03	5.115092E-15	8.691316E-17
4.323736E+03	5.122992E-15	8.686349E-17
4.333630E+03	5.129777E-15	8.679737E-17
4.343524E+03	5.136290E-15	8.672899E-17
4.353418E+03	5.140858E-15	8.663009E-17
4.363313E+03	5.144327E-15	8.651497E-17
4.373207E+03	5.146710E-15	8.638383E-17
4.383101E+03	5.148020E-15	8.623689E-17
4.392995E+03	5.148276E-15	8.607440E-17
4.402889E+03	5.147496E-15	8.589669E-17
4.412783E+03	5.145706E-15	8.570412E-17
4.422677E+03	5.142931E-15	8.549709E-17
4.432571E+03	5.139199E-15	8.527604E-17
4.442466E+03	5.134544E-15	8.504147E-17
4.452360E+03	5.128996E-15	8.479385E-17
4.462254E+03	5.122592E-15	8.453373E-17
4.472148E+03	5.115367E-15	8.426165E-17
4.482042E+03	5.107359E-15	8.397820E-17
4.491936E+03	5.098607E-15	8.368394E-17
4.501830E+03	5.089150E-15	8.337947E-17
4.511725E+03	5.079027E-15	8.306535E-17
4.521619E+03	5.068277E-15	8.274219E-17
4.531513E+03	5.056939E-15	8.241056E-17
4.541407E+03	5.045050E-15	8.207100E-17
4.551301E+03	5.032648E-15	8.172406E-17
4.561195E+03	5.019766E-15	8.137024E-17
4.571089E+03	5.006441E-15	8.101004E-17
4.580983E+03	4.992702E-15	8.064389E-17
4.590878E+03	4.978580E-15	8.027224E-17
4.600772E+03	4.964100E-15	7.989542E-17
4.610666E+03	4.948487E-15	7.950093E-17
4.620560E+03	4.933366E-15	7.911485E-17
4.630454E+03	4.917952E-15	7.872448E-17
4.640348E+03	4.902262E-15	7.833003E-17
4.650242E+03	4.886306E-15	7.793164E-17
4.660137E+03	4.870094E-15	7.752940E-17
4.670031E+03	4.852848E-15	7.711090E-17
4.679925E+03	4.836141E-15	7.670116E-17
4.689819E+03	4.819188E-15	7.628759E-17
4.699713E+03	4.801985E-15	7.587013E-17
4.709607E+03	4.783754E-15	7.543647E-17
4.719501E+03	4.766036E-15	7.501092E-17
4.729395E+03	4.748046E-15	7.458106E-17
4.739290E+03	4.729772E-15	7.414668E-17
4.749184E+03	4.710444E-15	7.369571E-17
4.759078E+03	4.691569E-15	7.325178E-17
4.768972E+03	4.672372E-15	7.280272E-17
4.778866E+03	4.652089E-15	7.233667E-17
4.788760E+03	4.632209E-15	7.187682E-17
4.798654E+03	4.611968E-15	7.141128E-17
4.808549E+03	4.590615E-15	7.092845E-17
4.818443E+03	4.569622E-15	7.045117E-17
4.828337E+03	4.548240E-15	6.996784E-17
4.838231E+03	4.525735E-15	6.946726E-17
4.848125E+03	4.503565E-15	6.897187E-17
4.858019E+03	4.480279E-15	6.845945E-17
4.867913E+03	4.457326E-15	6.795224E-17
4.877807E+03	4.433276E-15	6.742847E-17
4.887702E+03	4.409569E-15	6.691011E-17
4.897596E+03	4.384797E-15	6.637585E-17
4.907490E+03	4.360393E-15	6.584745E-17
4.917384E+03	4.334973E-15	6.530406E-17
4.927278E+03	4.309957E-15	6.476716E-17
4.937172E+03	4.283984E-15	6.421635E-17
4.947066E+03	4.258465E-15	6.367286E-17
4.956961E+03	4.232062E-15	6.311673E-17
4.966855E+03	4.206171E-15	6.256888E-17
4.976749E+03	4.179478E-15	6.200978E-17
4.986643E+03	4.152700E-15	6.145020E-17
4.996537E+03	4.126540E-15	6.090057E-17
5.006431E+03	4.099712E-15	6.034194E-17
5.016325E+03	4.072923E-15	5.978484E-17
5.026219E+03	4.046866E-15	5.923944E-17
5.036114E+03	4.020281E-15	5.868735E-17
5.046008E+03	3.993866E-15	5.813884E-17
5.055902E+03	3.968295E-15	5.760375E-17
5.065796E+03	3.942339E-15	5.706422E-17
5.075690E+03	3.916676E-15	5.653018E-17
5.085584E+03	3.891970E-15	5.601121E-17
5.095478E+03	3.867008E-15	5.548986E-17
5.105373E+03	3.842457E-15	5.497576E-17
5.115267E+03	3.818352E-15	5.446944E-17
5.125161E+03	3.794728E-15	5.397142E-17
5.135055E+03	3.772222E-15	5.349073E-17
5.144949E+03	3.749657E-15	5.301068E-17
5.154843E+03	3.727672E-15	5.254033E-17
5.164737E+03	3.706297E-15	5.208013E-17
5.174631E+03	3.685560E-15	5.163048E-17
5.184526E+03	3.665493E-15	5.119179E-17
5.194420E+03	3.646704E-15	5.077253E-17
5.204314E+03	3.628057E-15	5.035685E-17
5.214208E+03	3.610163E-15	4.995327E-17
5.224102E+03	3.593052E-15	4.956217E-17
5.233996E+03	3.576753E-15	4.918395E-17
5.243890E+03	3.561296E-15	4.881897E-17
5.253785E+03	3.546712E-15	4.846766E-17
5.263679E+03	3.533034E-15	4.813042E-17
5.273573E+03	3.520296E-15	4.780767E-17
5.283467E+03	3.508534E-15	4.749989E-17
5.293361E+03	3.497787E-15	4.720755E-17
5.303255E+03	3.488098E-15	4.693119E-17
5.313149E+03	3.479511E-15	4.667135E-17
5.323043E+03	3.472074E-15	4.642863E-17
5.332938E+03	3.465840E-15	4.620367E-17
5.342832E+03	3.460863E-15	4.599715E-17
5.352726E+03	3.457203E-15	4.580980E-17
5.362620E+03	3.454373E-15	4.563509E-17
5.372514E+03	3.453520E-15	4.548817E-17
5.382408E+03	3.454108E-15	4.536185E-17
5.392302E+03	3.456136E-15	4.525602E-17
5.402196E+03	3.459596E-15	4.517053E-17
5.412091E+03	3.464481E-15	4.510513E-17
5.421985E+03	3.470232E-15	4.505239E-17
5.431879E+03	3.477951E-15	4.502639E-17
5.441773E+03	3.487088E-15	4.501975E-17
5.451667E+03	3.497646E-15	4.503232E-17
5.461561E+03	3.509632E-15	4.506397E-17
5.471455E+03	3.522495E-15	4.510745E-17
5.481350E+03	3.537364E-15	4.517703E-17
5.491244E+03	3.553695E-15	4.526552E-17
5.501138E+03	3.570932E-15	4.536568E-17
5.511032E+03	3.590224E-15	4.549189E-17
5.520926E+03	3.611024E-15	4.563702E-17
5.530820E+03	3.632768E-15	4.579375E-17
5.540714E+03	3.656628E-15	4.597668E-17
5.550608E+03	3.682044E-15	4.617856E-17
5.560503E+03	3.708447E-15	4.639206E-17
5.570397E+03	3.737026E-15	4.663190E-17
5.580291E+03	3.767214E-15	4.689077E-17
5.590185E+03	3.798424E-15	4.716121E-17
5.600079E+03	3.831872E-15	4.745815E-17
5.609973E+03	3.866362E-15	4.776657E-17
5.619867E+03	3.903128E-15	4.810156E-17
5.629762E+03	3.940951E-15	4.844790E-17
5.639656E+03	3.981087E-15	4.882087E-17
5.649550E+03	4.022287E-15	4.920498E-17
5.659444E+03	4.065833E-15	4.961573E-17
5.669338E+03	4.110448E-15	5.003739E-17
5.679232E+03	4.157436E-15	5.048567E-17
5.689126E+03	4.205491E-15	5.094453E-17
5.699020E+03	4.255946E-15	5.142998E-17
5.708915E+03	4.307462E-15	5.192569E-17
5.718809E+03	4.361401E-15	5.244793E-17
5.728703E+03	4.416391E-15	5.298006E-17
5.738597E+03	4.473827E-15	5.353868E-17
5.748491E+03	4.532302E-15	5.410684E-17
5.758385E+03	4.592519E-15	5.469282E-17
5.768279E+03	4.655220E-15	5.530534E-17
5.778174E+03	4.718943E-15	5.592689E-17
5.788068E+03	4.784421E-15	5.656611E-17
5.797962E+03	4.852429E-15	5.723206E-17
5.807856E+03	4.921449E-15	5.790671E-17
5.817750E+03	4.992246E-15	5.859907E-17
5.827644E+03	5.065636E-15	5.931861E-17
5.837538E+03	5.140036E-15	6.004673E-17
5.847432E+03	5.216249E-15	6.079282E-17
5.857327E+03	5.294291E-15	6.155703E-17
5.867221E+03	5.375027E-15	6.234939E-17
5.877115E+03	5.456781E-15	6.315044E-17
5.887009E+03	5.540405E-15	6.397010E-17
5.896903E+03	5.625910E-15	6.480852E-17
5.906797E+03	5.714209E-15	6.567627E-17
5.916691E+03	5.803510E-15	6.655276E-17
5.926586E+03	5.894700E-15	6.744832E-17
5.936480E+03	5.987772E-15	6.836296E-17
5.946374E+03	6.082702E-15	6.929655E-17
5.956268E+03	6.180440E-15	7.026005E-17
5.966162E+03	6.278997E-15	7.123100E-17
5.976056E+03	6.379275E-15	7.221988E-17
5.985950E+03	6.481194E-15	7.322603E-17
5.995844E+03	6.584651E-15	7.424856E-17
6.005739E+03	6.689526E-15	7.528643E-17
6.015633E+03	6.795667E-15	7.633826E-17
6.025527E+03	6.902899E-15	7.740247E-17
6.035421E+03	7.011018E-15	7.847719E-17
6.045315E+03	7.119791E-15	7.956028E-17
6.055209E+03	7.228957E-15	8.064931E-17
6.065103E+03	7.339385E-15	8.175451E-17
6.074998E+03	7.448452E-15	8.284721E-17
6.084892E+03	7.556956E-15	8.393697E-17
6.094786E+03	7.664534E-15	8.502041E-17
6.104680E+03	7.770805E-15	8.609399E-17
6.114574E+03	7.875375E-15	8.715409E-17
6.124468E+03	7.977852E-15	8.819712E-17
6.134362E+03	8.076569E-15	8.920546E-17
6.144256E+03	8.173701E-15	9.020393E-17
6.154151E+03	8.267646E-15	9.117565E-17
6.164045E+03	8.358108E-15	9.211817E-17
6.173939E+03	8.444848E-15	9.302966E-17
6.183833E+03	8.527690E-15	9.390902E-17
6.193727E+03	8.606534E-15	9.475589E-17
6.203621E+03	8.681347E-15	9.557072E-17
6.213515E+03	8.752097E-15	9.635390E-17
6.223410E+03	8.818531E-15	9.710337E-17
6.233304E+03	8.880360E-15	9.781663E-17
6.243198E+03	8.935942E-15	9.847625E-17
6.253092E+03	8.987945E-15	9.911222E-17
6.262986E+03	9.034890E-15	9.970881E-17
6.272880E+03	9.076780E-15	1.002665E-16
6.282774E+03	9.113684E-15	1.007861E-16
6.292668E+03	9.145714E-15	1.012684E-16
6.302563E+03	9.171558E-15	1.016984E-16
6.312457E+03	9.194281E-15	1.021095E-16
6.322351E+03	9.212606E-15	1.024870E-16
6.332245E+03	9.226703E-15	1.028322E-16
6.342139E+03	9.236740E-15	1.031462E-16
6.352033E+03	9.241401E-15	1.034138E-16
6.361927E+03	9.243748E-15	1.036683E-16
6.371822E+03	9.242431E-15	1.038940E-16
6.381716E+03	9.237531E-15	1.040910E-16
6.391610E+03	9.227651E-15	1.042428E-16
6.401504E+03	9.215750E-15	1.043820E-16
6.411398E+03	9.200375E-15	1.044914E-16
6.421292E+03	9.180059E-15	1.045534E-16
6.431186E+03	9.157685E-15	1.046001E-16
6.441080E+03	9.131743E-15	1.046133E-16
6.450975E+03	9.100728E-15	1.045750E-16
6.460869E+03	9.067459E-15	1.045166E-16
6.470763E+03	9.030412E-15	1.044198E-16
6.480657E+03	8.988084E-15	1.042661E-16
6.490551E+03	8.943258E-15	1.040869E-16
6.500445E+03	8.894436E-15	1.038640E-16
6.510339E+03	8.840160E-15	1.035792E-16
6.520234E+03	8.783206E-15	1.032642E-16
6.530128E+03	8.722139E-15	1.029013E-16
6.540022E+03	8.655587E-15	1.024731E-16
6.549916E+03	8.586330E-15	1.020118E-16
6.559810E+03	8.511680E-15	1.014844E-16
6.569704E+03	8.434424E-15	1.009232E-16
6.579598E+03	8.351974E-15	1.002964E-16
6.589492E+03	8.267120E-15	9.963667E-17
6.599387E+03	8.178672E-15	9.892887E-17
6.609281E+03	8.085524E-15	9.815878E-17
6.619175E+03	7.990457E-15	9.735935E-17
6.629069E+03	7.891137E-15	9.650148E-17
6.638963E+03	7.790322E-15	9.561818E-17
6.648857E+03	7.685779E-15	9.468145E-17
6.658751E+03	7.580232E-15	9.372425E-17
6.668645E+03	7.471532E-15	9.271955E-17
6.678540E+03	7.362354E-15	9.170001E-17
6.688434E+03	7.250632E-15	9.063955E-17
6.698328E+03	7.138975E-15	8.957039E-17
6.708222E+03	7.025386E-15	8.846724E-17
6.718116E+03	6.911299E-15	8.734782E-17
6.728010E+03	6.798072E-15	8.622914E-17
6.737904E+03	6.683793E-15	8.508688E-17
6.747799E+03	6.570859E-15	8.395145E-17
6.757693E+03	6.457408E-15	8.279903E-17
6.767587E+03	6.345737E-15	8.165909E-17
6.777481E+03	6.234023E-15	8.050825E-17
6.787375E+03	6.123488E-15	7.936230E-17
6.797269E+03	6.015266E-15	7.823611E-17
6.807163E+03	5.907584E-15	7.710686E-17
6.817057E+03	5.802482E-15	7.600131E-17
6.826952E+03	5.698221E-15	7.489695E-17
6.836846E+03	5.595845E-15	7.380768E-17
6.846740E+03	5.496317E-15	7.274649E-17
6.856634E+03	5.397945E-15	7.169133E-17
6.866528E+03	5.301672E-15	7.065495E-17
6.876422E+03	5.208369E-15	6.964931E-17
6.886316E+03	5.116391E-15	6.865275E-17
6.896211E+03	5.026592E-15	6.767701E-17
6.906105E+03	4.939762E-15	6.673307E-17
6.915999E+03	4.854304E-15	6.579976E-17
6.925893E+03	4.770998E-15	6.488790E-17
6.935787E+03	4.689815E-15	6.399744E-17
6.945681E+03	4.611456E-15	6.313830E-17
6.955575E+03	4.534396E-15	6.228997E-17
6.965469E+03	4.459334E-15	6.146233E-17
6.975364E+03	4.386917E-15	6.066461E-17
6.985258E+03	4.315678E-15	5.987692E-17
6.995152E+03	4.246271E-15	5.910854E-17
7.005046E+03	4.178635E-15	5.835892E-17
7.014940E+03	4.113363E-15	5.763669E-17
7.024834E+03	4.049070E-15	5.692275E-17
7.034728E+03	3.986362E-15	5.622583E-17
7.044623E+03	3.925176E-15	5.554529E-17
7.054517E+03	3.865453E-15	5.488057E-17
7.064411E+03	3.807738E-15	5.423969E-17
7.074305E+03	3.750753E-15	5.360471E-17
7.084199E+03	3.695060E-15	5.298383E-17
7.094093E+03	3.640602E-15	5.237649E-17
7.103987E+03	3.587333E-15	5.178221E-17
7.113881E+03	3.535204E-15	5.120051E-17
7.123776E+03	3.484169E-15	5.063093E-17
7.133670E+03	3.434736E-15	5.008106E-17
7.143564E+03	3.385762E-15	4.953446E-17
7.153458E+03	3.337764E-15	4.899883E-17
7.163352E+03	3.290711E-15	4.847388E-17
7.173246E+03	3.244572E-15	4.795933E-17
7.183140E+03	3.199317E-15	4.745491E-17
7.193035E+03	3.154923E-15	4.696043E-17
7.202929E+03	3.111364E-15	4.647567E-17
7.212823E+03	3.068623E-15	4.600050E-17
7.222717E+03	3.027163E-15	4.554207E-17
7.232611E+03	2.985994E-15	4.508564E-17
7.242505E+03	2.945593E-15	4.463849E-17
7.252399E+03	2.905946E-15	4.420057E-17
7.262293E+03	2.867045E-15	4.377185E-17
7.272188E+03	2.828879E-15	4.335235E-17
7.282082E+03	2.791440E-15	4.294204E-17
7.291976E+03	2.754724E-15	4.254098E-17
7.301870E+03	2.718724E-15	4.214921E-17
7.311764E+03	2.683437E-15	4.176679E-17
7.321658E+03	2.648860E-15	4.139381E-17
7.331552E+03	2.614990E-15	4.103033E-17
7.341447E+03	2.581826E-15	4.067646E-17
7.351341E+03	2.549367E-15	4.033232E-17
7.361235E+03	2.517612E-15	3.999800E-17
7.371129E+03	2.486562E-15	3.967363E-17
7.381023E+03	2.456216E-15	3.935933E-17
7.390917E+03	2.426574E-15	3.905520E-17
7.400811E+03	2.397637E-15	3.876140E-17
7.410705E+03	2.369024E-15	3.847185E-17
7.420600E+03	2.341500E-15	3.819908E-17
7.430494E+03	2.314682E-15	3.793701E-17
7.440388E+03	2.288568E-15	3.768573E-17
7.450282E+03	2.263158E-15	3.744540E-17
7.460176E+03	2.238453E-15	3.721612E-17
7.470070E+03	2.214451E-15	3.699796E-17
7.479964E+03	2.191151E-15	3.679092E-17
7.489859E+03	2.168551E-15	3.659500E-17
7.499753E+03	2.146650E-15	3.641017E-17
7.509647E+03	2.125102E-15	3.623060E-17
7.519541E+03	2.104592E-15	3.606796E-17
7.529435E+03	2.084773E-15	3.591638E-17
7.539329E+03	2.065640E-15	3.577587E-17
7.549223E+03	2.047193E-15	3.564646E-17
7.559117E+03	2.029430E-15	3.552819E-17
7.569012E+03	2.012025E-15	3.541537E-17
7.578906E+03	1.995625E-15	3.531945E-17
7.588800E+03	1.979903E-15	3.523477E-17
7.598694E+03	1.964856E-15	3.516139E-17
7.608588E+03	1.950486E-15	3.509942E-17
7.618482E+03	1.936480E-15	3.504332E-17
7.628376E+03	1.923465E-15	3.500447E-17
7.638271E+03	1.911112E-15	3.497708E-17
7.648165E+03	1.899392E-15	3.496075E-17
7.658059E+03	1.887974E-15	3.494941E-17
7.667953E+03	1.877438E-15	3.495391E-17
7.677847E+03	1.867453E-15	3.496827E-17
