#wls	flux	fluxerr
1.600000E+03	1.585083E-17	1.923724E-17
1.640000E+03	1.610731E-17	1.936657E-17
1.680000E+03	1.638513E-17	1.951033E-17
1.720000E+03	1.668422E-17	1.966732E-17
1.760000E+03	1.700591E-17	1.983796E-17
1.800000E+03	1.735282E-17	2.002406E-17
1.840000E+03	1.772158E-17	2.022040E-17
1.880000E+03	1.811601E-17	2.042999E-17
1.920000E+03	1.853543E-17	2.065059E-17
1.960000E+03	1.897912E-17	2.087989E-17
2.000000E+03	1.944496E-17	2.111408E-17
2.040000E+03	1.993225E-17	2.135089E-17
2.080000E+03	2.043764E-17	2.158532E-17
2.120000E+03	2.095543E-17	2.181006E-17
2.160000E+03	2.148402E-17	2.202234E-17
2.200000E+03	2.201700E-17	2.221465E-17
2.240000E+03	2.254962E-17	2.238151E-17
2.280000E+03	2.307987E-17	2.252047E-17
2.320000E+03	2.360822E-17	2.263164E-17
2.360000E+03	2.413862E-17	2.271839E-17
2.400000E+03	2.467590E-17	2.278467E-17
2.440000E+03	2.522460E-17	2.283389E-17
2.480000E+03	2.579225E-17	2.287178E-17
2.520000E+03	2.638274E-17	2.290041E-17
2.560000E+03	2.700185E-17	2.292322E-17
2.600000E+03	2.765203E-17	2.294044E-17
2.640000E+03	2.833669E-17	2.295300E-17
2.680000E+03	2.905727E-17	2.296003E-17
2.720000E+03	2.981532E-17	2.296076E-17
2.760000E+03	3.061262E-17	2.295455E-17
2.800000E+03	3.145029E-17	2.294030E-17
2.840000E+03	3.232980E-17	2.291726E-17
2.880000E+03	3.325487E-17	2.288630E-17
2.920000E+03	3.422786E-17	2.284735E-17
2.960000E+03	3.525600E-17	2.280364E-17
3.000000E+03	3.634442E-17	2.275681E-17
3.010000E+03	3.662784E-17	2.274561E-17
3.020000E+03	3.691511E-17	2.273415E-17
3.030000E+03	3.720628E-17	2.272243E-17
3.040000E+03	3.750308E-17	2.271148E-17
3.050000E+03	3.780472E-17	2.270080E-17
3.060000E+03	3.811126E-17	2.269038E-17
3.070000E+03	3.842359E-17	2.268073E-17
3.080000E+03	3.874093E-17	2.267137E-17
3.090000E+03	3.906338E-17	2.266233E-17
3.100000E+03	3.939263E-17	2.265455E-17
3.110000E+03	3.972712E-17	2.264713E-17
3.120000E+03	4.006777E-17	2.264054E-17
3.130000E+03	4.041384E-17	2.263436E-17
3.140000E+03	4.076785E-17	2.262998E-17
3.150000E+03	4.112749E-17	2.262606E-17
3.160000E+03	4.149366E-17	2.262311E-17
3.170000E+03	4.186727E-17	2.262158E-17
3.180000E+03	4.224845E-17	2.262153E-17
3.190000E+03	4.263572E-17	2.262213E-17
3.200000E+03	4.303160E-17	2.262472E-17
3.210000E+03	4.343464E-17	2.262850E-17
3.220000E+03	4.384578E-17	2.263394E-17
3.230000E+03	4.426439E-17	2.264072E-17
3.240000E+03	4.469142E-17	2.264929E-17
3.250000E+03	4.512704E-17	2.265973E-17
3.260000E+03	4.557143E-17	2.267212E-17
3.270000E+03	4.602400E-17	2.268615E-17
3.280000E+03	4.648573E-17	2.270231E-17
3.290000E+03	4.695683E-17	2.272068E-17
3.300000E+03	4.743674E-17	2.274098E-17
3.310000E+03	4.792648E-17	2.276371E-17
3.320000E+03	4.842551E-17	2.278861E-17
3.330000E+03	4.893486E-17	2.281615E-17
3.340000E+03	4.945401E-17	2.284611E-17
3.350000E+03	4.998326E-17	2.287861E-17
3.360000E+03	5.052289E-17	2.291380E-17
3.370000E+03	5.107320E-17	2.295181E-17
3.380000E+03	5.163450E-17	2.299280E-17
3.390000E+03	5.220637E-17	2.303657E-17
3.400000E+03	5.278990E-17	2.308363E-17
3.410000E+03	5.338392E-17	2.313347E-17
3.420000E+03	5.399033E-17	2.318692E-17
3.430000E+03	5.460798E-17	2.324351E-17
3.440000E+03	5.523728E-17	2.330342E-17
3.450000E+03	5.587862E-17	2.336683E-17
3.460000E+03	5.653168E-17	2.343362E-17
3.470000E+03	5.719766E-17	2.350430E-17
3.480000E+03	5.787624E-17	2.357874E-17
3.490000E+03	5.856714E-17	2.365684E-17
3.500000E+03	5.927084E-17	2.373881E-17
3.510000E+03	5.998706E-17	2.382455E-17
3.520000E+03	6.071709E-17	2.391456E-17
3.530000E+03	6.145917E-17	2.400817E-17
3.540000E+03	6.221459E-17	2.410587E-17
3.550000E+03	6.298314E-17	2.420760E-17
3.560000E+03	6.376538E-17	2.431356E-17
3.570000E+03	6.456037E-17	2.442339E-17
3.580000E+03	6.536792E-17	2.453701E-17
3.590000E+03	6.618940E-17	2.465492E-17
3.600000E+03	6.702312E-17	2.477648E-17
3.610000E+03	6.787045E-17	2.490218E-17
3.620000E+03	6.873127E-17	2.503194E-17
3.630000E+03	6.960466E-17	2.516540E-17
3.640000E+03	7.049049E-17	2.530249E-17
3.650000E+03	7.138941E-17	2.544339E-17
3.660000E+03	7.230052E-17	2.558774E-17
3.670000E+03	7.322526E-17	2.573600E-17
3.680000E+03	7.416194E-17	2.588752E-17
3.690000E+03	7.511124E-17	2.604247E-17
3.700000E+03	7.607304E-17	2.620074E-17
3.710000E+03	7.704802E-17	2.636248E-17
3.720000E+03	7.803526E-17	2.652730E-17
3.730000E+03	7.903546E-17	2.669533E-17
3.740000E+03	8.004850E-17	2.686643E-17
3.750000E+03	8.107506E-17	2.704073E-17
3.760000E+03	8.211504E-17	2.721806E-17
3.770000E+03	8.316914E-17	2.739852E-17
3.776700E+03	3.619009E-16	NAN
3.802300E+03	4.014513E-16	NAN
3.827900E+03	5.295612E-16	NAN
3.853400E+03	6.259955E-16	NAN
3.879000E+03	6.117901E-16	NAN
3.904600E+03	5.945184E-16	NAN
3.930100E+03	5.760124E-16	NAN
3.955700E+03	7.338344E-16	NAN
3.981300E+03	7.417462E-16	NAN
4.006800E+03	6.875855E-16	NAN
4.032400E+03	5.875332E-16	NAN
4.058000E+03	5.607385E-16	NAN
4.083600E+03	5.296714E-16	NAN
4.109100E+03	5.388214E-16	NAN
4.134700E+03	5.502262E-16	NAN
4.160300E+03	5.987267E-16	NAN
4.185800E+03	6.074272E-16	NAN
4.211400E+03	6.027541E-16	NAN
4.237000E+03	5.757762E-16	NAN
4.262600E+03	6.041157E-16	NAN
4.288100E+03	6.283815E-16	NAN
4.313700E+03	6.522396E-16	NAN
4.339300E+03	6.866474E-16	NAN
4.364800E+03	6.205458E-16	NAN
4.390400E+03	5.877562E-16	NAN
4.416000E+03	5.874005E-16	NAN
4.441600E+03	5.801726E-16	NAN
4.467100E+03	6.169672E-16	NAN
4.492700E+03	6.711831E-16	NAN
4.518300E+03	6.569827E-16	NAN
4.543800E+03	6.394478E-16	NAN
4.569400E+03	5.934853E-16	NAN
4.595000E+03	5.609496E-16	NAN
4.620500E+03	5.796215E-16	NAN
4.646100E+03	5.845096E-16	NAN
4.671700E+03	5.792295E-16	NAN
4.697300E+03	5.662592E-16	NAN
4.722800E+03	5.662362E-16	NAN
4.748400E+03	5.534840E-16	NAN
4.774000E+03	5.460032E-16	NAN
4.799500E+03	5.421798E-16	NAN
4.825100E+03	5.345444E-16	NAN
4.850700E+03	5.292148E-16	NAN
4.876300E+03	5.462663E-16	NAN
4.901800E+03	5.516229E-16	NAN
4.927400E+03	5.773313E-16	NAN
4.953000E+03	5.891742E-16	NAN
4.978500E+03	5.823111E-16	NAN
5.004100E+03	5.687919E-16	NAN
5.029700E+03	5.512534E-16	NAN
5.055300E+03	5.544658E-16	NAN
5.080800E+03	5.709441E-16	NAN
5.106400E+03	5.668100E-16	NAN
5.132000E+03	5.668112E-16	NAN
5.157500E+03	5.511424E-16	NAN
5.183100E+03	5.242035E-16	NAN
5.208700E+03	5.218114E-16	NAN
5.234200E+03	5.285998E-16	NAN
5.259800E+03	5.169026E-16	NAN
5.285400E+03	5.151005E-16	NAN
5.311000E+03	4.825978E-16	NAN
5.336500E+03	4.694793E-16	NAN
5.362100E+03	4.632175E-16	NAN
5.387700E+03	4.357591E-16	NAN
5.413200E+03	4.359421E-16	NAN
5.438800E+03	4.328490E-16	NAN
5.464400E+03	4.200795E-16	NAN
5.490000E+03	4.232383E-16	NAN
5.515500E+03	4.202531E-16	NAN
5.541100E+03	4.200048E-16	NAN
5.566700E+03	4.251870E-16	NAN
5.592200E+03	3.887292E-16	NAN
5.617800E+03	3.741089E-16	NAN
5.643400E+03	3.726755E-16	NAN
5.668900E+03	3.929806E-16	NAN
5.694500E+03	3.883141E-16	NAN
5.720100E+03	3.810575E-16	NAN
5.745700E+03	3.544005E-16	NAN
5.771200E+03	3.355521E-16	NAN
5.796800E+03	3.365058E-16	NAN
5.822400E+03	3.421390E-16	NAN
5.847900E+03	3.476809E-16	NAN
5.873500E+03	3.630420E-16	NAN
5.899100E+03	3.391304E-16	NAN
5.924700E+03	3.127570E-16	NAN
5.950200E+03	2.911663E-16	NAN
5.975800E+03	2.692226E-16	NAN
6.001400E+03	2.738749E-16	NAN
6.026900E+03	2.820790E-16	NAN
6.052500E+03	2.894339E-16	NAN
6.078100E+03	2.967255E-16	NAN
6.103700E+03	2.839549E-16	NAN
6.129200E+03	2.663524E-16	NAN
6.154800E+03	2.619145E-16	NAN
6.180400E+03	2.580692E-16	NAN
6.205900E+03	2.586981E-16	NAN
6.231500E+03	2.540236E-16	NAN
6.257100E+03	2.554062E-16	NAN
6.282600E+03	2.652252E-16	NAN
6.308200E+03	2.757215E-16	NAN
6.333800E+03	2.715248E-16	NAN
6.359400E+03	2.571570E-16	NAN
6.384900E+03	2.456992E-16	NAN
6.410500E+03	2.492228E-16	NAN
6.436100E+03	2.559468E-16	NAN
6.461600E+03	2.575454E-16	NAN
6.487200E+03	2.509531E-16	NAN
6.512800E+03	2.520044E-16	NAN
6.538400E+03	2.551147E-16	NAN
6.563900E+03	2.554715E-16	NAN
6.589500E+03	2.525810E-16	NAN
6.615100E+03	2.491040E-16	NAN
6.640600E+03	2.470558E-16	NAN
6.666200E+03	2.461608E-16	NAN
6.691800E+03	2.459201E-16	NAN
6.717400E+03	2.475982E-16	NAN
6.742900E+03	2.449692E-16	NAN
6.768500E+03	2.383621E-16	NAN
6.794100E+03	2.311663E-16	NAN
6.819600E+03	2.277056E-16	NAN
6.845200E+03	2.303676E-16	NAN
6.870800E+03	2.274512E-16	NAN
6.896300E+03	2.141213E-16	NAN
6.921900E+03	2.015535E-16	NAN
6.947500E+03	1.991436E-16	NAN
6.973100E+03	2.082665E-16	NAN
6.998600E+03	2.117140E-16	NAN
7.024200E+03	2.054151E-16	NAN
7.049800E+03	1.983100E-16	NAN
7.075300E+03	1.911911E-16	NAN
7.100900E+03	1.859666E-16	NAN
7.126500E+03	1.839471E-16	NAN
7.152100E+03	1.888342E-16	NAN
7.177600E+03	1.932387E-16	NAN
7.203200E+03	1.921354E-16	NAN
7.228800E+03	1.750560E-16	NAN
7.254300E+03	1.582394E-16	NAN
7.279900E+03	1.536274E-16	NAN
7.305500E+03	1.517267E-16	NAN
7.331100E+03	1.490962E-16	NAN
7.356600E+03	1.583073E-16	NAN
7.382200E+03	1.608945E-16	NAN
7.407800E+03	1.576265E-16	NAN
7.433300E+03	1.519818E-16	NAN
7.458900E+03	1.433229E-16	NAN
7.484500E+03	1.402817E-16	NAN
7.510000E+03	1.380924E-16	NAN
7.535600E+03	1.282432E-16	NAN
7.561200E+03	1.217938E-16	NAN
7.586800E+03	1.243135E-16	NAN
7.612300E+03	1.281461E-16	NAN
7.637900E+03	1.401185E-16	NAN
7.663500E+03	1.577705E-16	NAN
7.689000E+03	1.629326E-16	NAN
7.714600E+03	1.504939E-16	NAN
7.740200E+03	1.341459E-16	NAN
7.765800E+03	1.261390E-16	NAN
7.791300E+03	1.285550E-16	NAN
7.816900E+03	1.318935E-16	NAN
7.842500E+03	1.267693E-16	NAN
7.868000E+03	1.196653E-16	NAN
7.893600E+03	1.168391E-16	NAN
7.919200E+03	1.120846E-16	NAN
7.944700E+03	1.087494E-16	NAN
7.970300E+03	1.128449E-16	NAN
7.995900E+03	1.166345E-16	NAN
8.021500E+03	1.190225E-16	NAN
8.047000E+03	1.219321E-16	NAN
8.072600E+03	1.212029E-16	NAN
8.098200E+03	1.166834E-16	NAN
8.123700E+03	1.098743E-16	NAN
8.149300E+03	1.061077E-16	NAN
8.174900E+03	1.070977E-16	NAN
8.200500E+03	1.074837E-16	NAN
8.226000E+03	1.052669E-16	NAN
8.251600E+03	9.878973E-17	NAN
8.277200E+03	9.150177E-17	NAN
8.302700E+03	8.410348E-17	NAN
8.328300E+03	7.921963E-17	NAN
8.353900E+03	7.787842E-17	NAN
8.379500E+03	7.443471E-17	NAN
8.405000E+03	6.733060E-17	NAN
8.430600E+03	6.795731E-17	NAN
8.456200E+03	7.162261E-17	NAN
8.481700E+03	7.069105E-17	NAN
8.507300E+03	6.099281E-17	NAN
8.532900E+03	4.692318E-17	NAN
8.558400E+03	3.772842E-17	NAN
8.584000E+03	3.737549E-17	NAN
8.609600E+03	3.617240E-17	NAN
8.635200E+03	3.292995E-17	NAN
8.660700E+03	2.909824E-17	NAN
8.686300E+03	2.635254E-17	NAN
8.711900E+03	2.529090E-17	NAN
8.737400E+03	2.640208E-17	NAN
8.763000E+03	2.698366E-17	NAN
8.788600E+03	2.536284E-17	NAN
8.814200E+03	2.194066E-17	NAN
8.839700E+03	1.878615E-17	NAN
8.865300E+03	1.608883E-17	NAN
8.890900E+03	1.309650E-17	NAN
8.916400E+03	9.335055E-18	NAN
8.942000E+03	6.360328E-18	NAN
8.967600E+03	5.109940E-18	NAN
8.993200E+03	4.425888E-18	NAN
9.018700E+03	3.522424E-18	NAN
9.044300E+03	2.491172E-18	NAN
9.069900E+03	1.699892E-18	NAN
9.095400E+03	1.233045E-18	NAN
9.121000E+03	7.723347E-19	NAN
9.146600E+03	2.901708E-19	NAN
9.172100E+03	-2.144564E-19	NAN
9.197700E+03	-8.192024E-19	NAN
9.223300E+03	-1.436727E-18	NAN
9.240000E+03	1.788240E-17	2.702439E-18
9.280000E+03	1.773293E-17	2.969666E-18
9.320000E+03	1.768715E-17	3.242773E-18
9.360000E+03	1.773361E-17	3.522549E-18
9.400000E+03	1.786308E-17	3.810370E-18
9.440000E+03	1.806813E-17	4.107905E-18
9.480000E+03	1.834058E-17	4.416477E-18
9.520000E+03	1.867398E-17	4.737597E-18
9.560000E+03	1.906360E-17	5.073092E-18
9.600000E+03	1.950029E-17	5.423549E-18
9.640000E+03	1.997831E-17	5.790362E-18
9.680000E+03	2.049210E-17	6.175024E-18
9.720000E+03	2.103338E-17	6.578256E-18
9.760000E+03	2.159668E-17	7.001650E-18
9.800000E+03	2.217365E-17	7.445886E-18
9.840000E+03	2.275932E-17	7.912664E-18
9.880000E+03	2.334754E-17	8.403164E-18
9.920000E+03	2.393263E-17	8.918426E-18
9.960000E+03	2.450729E-17	9.458431E-18
1.000000E+04	2.506654E-17	1.002339E-17
1.004000E+04	2.561053E-17	1.061494E-17
1.008000E+04	2.613358E-17	1.123167E-17
1.012000E+04	2.663260E-17	1.187240E-17
1.016000E+04	2.710490E-17	1.253536E-17
1.020000E+04	2.755092E-17	1.321947E-17
1.024000E+04	2.796894E-17	1.392211E-17
1.028000E+04	2.835745E-17	1.464019E-17
1.032000E+04	2.871813E-17	1.537184E-17
