#wls	flux	fluxerr
1.600000E+03	1.585204E-17	1.923860E-17
1.640000E+03	1.610857E-17	1.936797E-17
1.680000E+03	1.638645E-17	1.951176E-17
1.720000E+03	1.668560E-17	1.966879E-17
1.760000E+03	1.700735E-17	1.983948E-17
1.800000E+03	1.735432E-17	2.002562E-17
1.840000E+03	1.772315E-17	2.022201E-17
1.880000E+03	1.811765E-17	2.043165E-17
1.920000E+03	1.853714E-17	2.065230E-17
1.960000E+03	1.898091E-17	2.088165E-17
2.000000E+03	1.944684E-17	2.111589E-17
2.040000E+03	1.993421E-17	2.135275E-17
2.080000E+03	2.043970E-17	2.158723E-17
2.120000E+03	2.095759E-17	2.181203E-17
2.160000E+03	2.148628E-17	2.202436E-17
2.200000E+03	2.201937E-17	2.221671E-17
2.240000E+03	2.255210E-17	2.238362E-17
2.280000E+03	2.308245E-17	2.252262E-17
2.320000E+03	2.361092E-17	2.263383E-17
2.360000E+03	2.414144E-17	2.272061E-17
2.400000E+03	2.467883E-17	2.278693E-17
2.440000E+03	2.522765E-17	2.283617E-17
2.480000E+03	2.579543E-17	2.287408E-17
2.520000E+03	2.638605E-17	2.290274E-17
2.560000E+03	2.700530E-17	2.292556E-17
2.600000E+03	2.765563E-17	2.294280E-17
2.640000E+03	2.834045E-17	2.295536E-17
2.680000E+03	2.906118E-17	2.296239E-17
2.720000E+03	2.981940E-17	2.296312E-17
2.760000E+03	3.061688E-17	2.295690E-17
2.800000E+03	3.145472E-17	2.294263E-17
2.840000E+03	3.233443E-17	2.291957E-17
2.880000E+03	3.325970E-17	2.288857E-17
2.920000E+03	3.423290E-17	2.284958E-17
2.960000E+03	3.526126E-17	2.280582E-17
3.000000E+03	3.634990E-17	2.275893E-17
3.010000E+03	3.663338E-17	2.274772E-17
3.020000E+03	3.692072E-17	2.273624E-17
3.030000E+03	3.721195E-17	2.272450E-17
3.040000E+03	3.750881E-17	2.271353E-17
3.050000E+03	3.781051E-17	2.270283E-17
3.060000E+03	3.811712E-17	2.269239E-17
3.070000E+03	3.842950E-17	2.268272E-17
3.080000E+03	3.874692E-17	2.267334E-17
3.090000E+03	3.906942E-17	2.266427E-17
3.100000E+03	3.939874E-17	2.265648E-17
3.110000E+03	3.973330E-17	2.264903E-17
3.120000E+03	4.007402E-17	2.264242E-17
3.130000E+03	4.042016E-17	2.263622E-17
3.140000E+03	4.077424E-17	2.263181E-17
3.150000E+03	4.113395E-17	2.262787E-17
3.160000E+03	4.150019E-17	2.262489E-17
3.170000E+03	4.187388E-17	2.262334E-17
3.180000E+03	4.225513E-17	2.262325E-17
3.190000E+03	4.264248E-17	2.262383E-17
3.200000E+03	4.303844E-17	2.262639E-17
3.210000E+03	4.344156E-17	2.263014E-17
3.220000E+03	4.385278E-17	2.263555E-17
3.230000E+03	4.427147E-17	2.264230E-17
3.240000E+03	4.469858E-17	2.265084E-17
3.250000E+03	4.513429E-17	2.266125E-17
3.260000E+03	4.557876E-17	2.267361E-17
3.270000E+03	4.603142E-17	2.268761E-17
3.280000E+03	4.649323E-17	2.270373E-17
3.290000E+03	4.696442E-17	2.272207E-17
3.300000E+03	4.744443E-17	2.274234E-17
3.310000E+03	4.793426E-17	2.276504E-17
3.320000E+03	4.843339E-17	2.278990E-17
3.330000E+03	4.894283E-17	2.281741E-17
3.340000E+03	4.946208E-17	2.284733E-17
3.350000E+03	4.999143E-17	2.287980E-17
3.360000E+03	5.053116E-17	2.291495E-17
3.370000E+03	5.108157E-17	2.295293E-17
3.380000E+03	5.164298E-17	2.299388E-17
3.390000E+03	5.221496E-17	2.303761E-17
3.400000E+03	5.279859E-17	2.308463E-17
3.410000E+03	5.339273E-17	2.313444E-17
3.420000E+03	5.399925E-17	2.318786E-17
3.430000E+03	5.461702E-17	2.324441E-17
3.440000E+03	5.524643E-17	2.330428E-17
3.450000E+03	5.588789E-17	2.336766E-17
3.460000E+03	5.654108E-17	2.343441E-17
3.470000E+03	5.720717E-17	2.350505E-17
3.480000E+03	5.788588E-17	2.357946E-17
3.490000E+03	5.857691E-17	2.365753E-17
3.500000E+03	5.928073E-17	2.373947E-17
3.510000E+03	5.999710E-17	2.382517E-17
3.520000E+03	6.072726E-17	2.391515E-17
3.530000E+03	6.146947E-17	2.400872E-17
3.540000E+03	6.222503E-17	2.410640E-17
3.550000E+03	6.299372E-17	2.420810E-17
3.560000E+03	6.377612E-17	2.431403E-17
3.570000E+03	6.457125E-17	2.442383E-17
3.580000E+03	6.537895E-17	2.453742E-17
3.590000E+03	6.620059E-17	2.465530E-17
3.600000E+03	6.703445E-17	2.477683E-17
3.610000E+03	6.788195E-17	2.490251E-17
3.620000E+03	6.874293E-17	2.503225E-17
3.630000E+03	6.961648E-17	2.516569E-17
3.640000E+03	7.050247E-17	2.530275E-17
3.650000E+03	7.140156E-17	2.544363E-17
3.660000E+03	7.231284E-17	2.558796E-17
3.670000E+03	7.323775E-17	2.573621E-17
3.680000E+03	7.417461E-17	2.588771E-17
3.690000E+03	7.512408E-17	2.604264E-17
3.700000E+03	7.608606E-17	2.620090E-17
3.710000E+03	7.706123E-17	2.636263E-17
3.720000E+03	7.804866E-17	2.652744E-17
3.730000E+03	7.904904E-17	2.669546E-17
3.740000E+03	8.006227E-17	2.686655E-17
3.750000E+03	8.108903E-17	2.704084E-17
3.760000E+03	8.212920E-17	2.721816E-17
3.770000E+03	8.318351E-17	2.739862E-17
3.780000E+03	8.425182E-17	2.758205E-17
3.790000E+03	8.533402E-17	2.776825E-17
3.800000E+03	8.643251E-17	2.795785E-17
3.810000E+03	8.754551E-17	2.815010E-17
3.820000E+03	8.867459E-17	2.834535E-17
3.830000E+03	8.982136E-17	2.854390E-17
3.840000E+03	9.098488E-17	2.874528E-17
3.850000E+03	9.216592E-17	2.894951E-17
3.860000E+03	9.336614E-17	2.915690E-17
3.870000E+03	9.458638E-17	2.936749E-17
3.880000E+03	9.582747E-17	2.958129E-17
3.890000E+03	9.708937E-17	2.979805E-17
3.900000E+03	9.837388E-17	3.001806E-17
3.910000E+03	9.968189E-17	3.024131E-17
3.920000E+03	1.010144E-16	3.046783E-17
3.930000E+03	1.023723E-16	3.069760E-17
3.940000E+03	1.037566E-16	3.093063E-17
3.950000E+03	1.051693E-16	3.116718E-17
3.960000E+03	1.066115E-16	3.140725E-17
3.970000E+03	1.080835E-16	3.165054E-17
3.980000E+03	1.095881E-16	3.189760E-17
3.990000E+03	1.111259E-16	3.214813E-17
4.000000E+03	1.126989E-16	3.240239E-17
4.010000E+03	1.143085E-16	3.266037E-17
4.020000E+03	1.159551E-16	3.292173E-17
4.030000E+03	1.176422E-16	3.318703E-17
4.040000E+03	1.193703E-16	3.345594E-17
4.050000E+03	1.211419E-16	3.372871E-17
4.060000E+03	1.229587E-16	3.400529E-17
4.070000E+03	1.248224E-16	3.428564E-17
4.080000E+03	1.267349E-16	3.456968E-17
4.090000E+03	1.286989E-16	3.485766E-17
4.100000E+03	1.307154E-16	3.514918E-17
4.110000E+03	1.327864E-16	3.544416E-17
4.120000E+03	1.349162E-16	3.574311E-17
4.130000E+03	1.371047E-16	3.604530E-17
4.140000E+03	1.393552E-16	3.635090E-17
4.150000E+03	1.416701E-16	3.665975E-17
4.160000E+03	1.440518E-16	3.697171E-17
4.170000E+03	1.465028E-16	3.728655E-17
4.180000E+03	1.490256E-16	3.760408E-17
4.190000E+03	1.516229E-16	3.792404E-17
4.200000E+03	1.542974E-16	3.824616E-17
4.210000E+03	1.570518E-16	3.857012E-17
4.220000E+03	1.598891E-16	3.889559E-17
4.230000E+03	1.628108E-16	3.922182E-17
4.240000E+03	1.658198E-16	3.954838E-17
4.250000E+03	1.689206E-16	3.987514E-17
4.260000E+03	1.721164E-16	4.020156E-17
4.270000E+03	1.754073E-16	4.052635E-17
4.280000E+03	1.787979E-16	4.084920E-17
4.290000E+03	1.822916E-16	4.116939E-17
4.300000E+03	1.858916E-16	4.148614E-17
4.310000E+03	1.896012E-16	4.179857E-17
4.320000E+03	1.934220E-16	4.210538E-17
4.330000E+03	1.973608E-16	4.240627E-17
4.340000E+03	2.014175E-16	4.269937E-17
4.350000E+03	2.055990E-16	4.298422E-17
4.360000E+03	2.099086E-16	4.325951E-17
4.370000E+03	2.143519E-16	4.352420E-17
4.380000E+03	2.189322E-16	4.377676E-17
4.390000E+03	2.236551E-16	4.401593E-17
4.400000E+03	2.285241E-16	4.423995E-17
4.410000E+03	2.335469E-16	4.444769E-17
4.420000E+03	2.387271E-16	4.463713E-17
4.430000E+03	2.440684E-16	4.480606E-17
4.440000E+03	2.495785E-16	4.495296E-17
4.450000E+03	2.552610E-16	4.507531E-17
4.460000E+03	2.611217E-16	4.517085E-17
4.470000E+03	2.671688E-16	4.523752E-17
4.480000E+03	2.734030E-16	4.527186E-17
4.490000E+03	2.798325E-16	4.527144E-17
4.500000E+03	2.864626E-16	4.523320E-17
4.510000E+03	2.932960E-16	4.515346E-17
4.520000E+03	3.003375E-16	4.502871E-17
4.530000E+03	3.075916E-16	4.485519E-17
4.540000E+03	3.150625E-16	4.462892E-17
4.550000E+03	3.227535E-16	4.434563E-17
4.560000E+03	3.306644E-16	4.400039E-17
4.570000E+03	3.387938E-16	4.358800E-17
4.580000E+03	3.471485E-16	4.310422E-17
4.590000E+03	3.557215E-16	4.254290E-17
4.600000E+03	3.645067E-16	4.189805E-17
4.610000E+03	3.735031E-16	4.116425E-17
4.620000E+03	3.827040E-16	4.033541E-17
4.630000E+03	3.920887E-16	3.940411E-17
4.640000E+03	4.016553E-16	3.836510E-17
4.650000E+03	4.113713E-16	3.721040E-17
4.660000E+03	4.212226E-16	3.593426E-17
4.670000E+03	4.311781E-16	3.452995E-17
4.680000E+03	4.411995E-16	3.299108E-17
4.690000E+03	4.512410E-16	3.131177E-17
4.700000E+03	4.612474E-16	2.948702E-17
4.710000E+03	4.711621E-16	2.751365E-17
4.720000E+03	4.809030E-16	2.538952E-17
4.730000E+03	4.903783E-16	2.311565E-17
4.740000E+03	4.994854E-16	2.069771E-17
4.750000E+03	5.080891E-16	1.814786E-17
4.760000E+03	5.160604E-16	1.549162E-17
4.770000E+03	5.232207E-16	1.277728E-17
4.780000E+03	5.293998E-16	1.010653E-17
4.790000E+03	5.344057E-16	7.711797E-18
4.800000E+03	5.380365E-16	6.139048E-18
4.810000E+03	5.401377E-16	6.205768E-18
4.820000E+03	5.407039E-16	7.899882E-18
4.830000E+03	5.398599E-16	1.041900E-17
4.840000E+03	5.377818E-16	1.324067E-17
4.850000E+03	5.346457E-16	1.614074E-17
4.860000E+03	5.306153E-16	1.901895E-17
4.870000E+03	5.258466E-16	2.182522E-17
4.880000E+03	5.204852E-16	2.453278E-17
4.890000E+03	5.146494E-16	2.712657E-17
4.900000E+03	5.084528E-16	2.959911E-17
4.910000E+03	5.019789E-16	3.194658E-17
4.920000E+03	4.953139E-16	3.416902E-17
4.930000E+03	4.885275E-16	3.626827E-17
4.940000E+03	4.816744E-16	3.824724E-17
4.950000E+03	4.748102E-16	4.011058E-17
4.960000E+03	4.679731E-16	4.186285E-17
4.970000E+03	4.612042E-16	4.350989E-17
4.980000E+03	4.545292E-16	4.505695E-17
4.990000E+03	4.479735E-16	4.650982E-17
5.000000E+03	4.415534E-16	4.787382E-17
5.010000E+03	4.352954E-16	4.915572E-17
5.020000E+03	4.292042E-16	5.036016E-17
5.030000E+03	4.232910E-16	5.149261E-17
5.040000E+03	4.175687E-16	5.255890E-17
5.050000E+03	4.120397E-16	5.356356E-17
5.060000E+03	4.067084E-16	5.451142E-17
5.070000E+03	4.015783E-16	5.540708E-17
5.080000E+03	3.966510E-16	5.625488E-17
5.090000E+03	3.919232E-16	5.705833E-17
5.100000E+03	3.873947E-16	5.782125E-17
5.110000E+03	3.830686E-16	5.854783E-17
5.120000E+03	3.789351E-16	5.924021E-17
5.130000E+03	3.749997E-16	5.990271E-17
5.140000E+03	3.712481E-16	6.053637E-17
5.150000E+03	3.676848E-16	6.114507E-17
5.160000E+03	3.643024E-16	6.173064E-17
5.170000E+03	3.610970E-16	6.229529E-17
5.180000E+03	3.580646E-16	6.284109E-17
5.190000E+03	3.551973E-16	6.336923E-17
5.200000E+03	3.524906E-16	6.388137E-17
5.210000E+03	3.499364E-16	6.437835E-17
5.220000E+03	3.475372E-16	6.486282E-17
5.230000E+03	3.452777E-16	6.533397E-17
5.240000E+03	3.431565E-16	6.579348E-17
5.250000E+03	3.411689E-16	6.624222E-17
5.260000E+03	3.393099E-16	6.668094E-17
5.270000E+03	3.375677E-16	6.710890E-17
5.280000E+03	3.359408E-16	6.752727E-17
5.290000E+03	3.344208E-16	6.793574E-17
5.300000E+03	3.330029E-16	6.833455E-17
5.310000E+03	3.316786E-16	6.872319E-17
5.320000E+03	3.304465E-16	6.910241E-17
5.330000E+03	3.292948E-16	6.947077E-17
5.340000E+03	3.282187E-16	6.982815E-17
5.350000E+03	3.272101E-16	7.017365E-17
5.360000E+03	3.262673E-16	7.050770E-17
5.370000E+03	3.253757E-16	7.082782E-17
5.380000E+03	3.245338E-16	7.113431E-17
5.390000E+03	3.237337E-16	7.142600E-17
5.400000E+03	3.229675E-16	7.170167E-17
5.410000E+03	3.222210E-16	7.195857E-17
5.420000E+03	3.214864E-16	7.219540E-17
5.430000E+03	3.207563E-16	7.241078E-17
5.440000E+03	3.200104E-16	7.260044E-17
5.450000E+03	3.192415E-16	7.276297E-17
5.460000E+03	3.184329E-16	7.289475E-17
5.470000E+03	3.175747E-16	7.299365E-17
5.480000E+03	3.166730E-16	7.306122E-17
5.490000E+03	3.157211E-16	7.309609E-17
5.500000E+03	3.147255E-16	7.309992E-17
5.510000E+03	3.136863E-16	7.307291E-17
5.520000E+03	3.126134E-16	7.301755E-17
5.530000E+03	3.115008E-16	7.293267E-17
5.540000E+03	3.103525E-16	7.281940E-17
5.550000E+03	3.091662E-16	7.267744E-17
5.560000E+03	3.079495E-16	7.250877E-17
5.570000E+03	3.066975E-16	7.231248E-17
5.580000E+03	3.054119E-16	7.208920E-17
5.590000E+03	3.040915E-16	7.183888E-17
5.600000E+03	3.027416E-16	7.156304E-17
5.610000E+03	3.013585E-16	7.126102E-17
5.620000E+03	2.999449E-16	7.093373E-17
5.630000E+03	2.985038E-16	7.058212E-17
5.640000E+03	2.970353E-16	7.020648E-17
5.650000E+03	2.955429E-16	6.980789E-17
5.660000E+03	2.940241E-16	6.938604E-17
5.670000E+03	2.924829E-16	6.894210E-17
5.680000E+03	2.909233E-16	6.847732E-17
5.690000E+03	2.893468E-16	6.799226E-17
5.700000E+03	2.877546E-16	6.748751E-17
5.710000E+03	2.861484E-16	6.696371E-17
5.720000E+03	2.845362E-16	6.642296E-17
5.730000E+03	2.829137E-16	6.586452E-17
5.740000E+03	2.812891E-16	6.529053E-17
5.750000E+03	2.796645E-16	6.470170E-17
5.760000E+03	2.780391E-16	6.409809E-17
5.770000E+03	2.764183E-16	6.348112E-17
5.780000E+03	2.748075E-16	6.285222E-17
5.790000E+03	2.732061E-16	6.221143E-17
5.800000E+03	2.716166E-16	6.155948E-17
5.810000E+03	2.700473E-16	6.089842E-17
5.820000E+03	2.684948E-16	6.022759E-17
5.830000E+03	2.669646E-16	5.954830E-17
5.840000E+03	2.654590E-16	5.886118E-17
5.850000E+03	2.639806E-16	5.816684E-17
5.860000E+03	2.625344E-16	5.746645E-17
5.870000E+03	2.611171E-16	5.675926E-17
5.880000E+03	2.597367E-16	5.604702E-17
5.890000E+03	2.583925E-16	5.532951E-17
5.900000E+03	2.570866E-16	5.460713E-17
5.910000E+03	2.558210E-16	5.388022E-17
5.920000E+03	2.545977E-16	5.314905E-17
5.930000E+03	2.534215E-16	5.241448E-17
5.940000E+03	2.522883E-16	5.167548E-17
5.950000E+03	2.511998E-16	5.093220E-17
5.960000E+03	2.501607E-16	5.018533E-17
5.970000E+03	2.491723E-16	4.943489E-17
5.980000E+03	2.482304E-16	4.867972E-17
5.990000E+03	2.473420E-16	4.792089E-17
6.000000E+03	2.464998E-16	4.715663E-17
6.010000E+03	2.457136E-16	4.638843E-17
6.020000E+03	2.449758E-16	4.561445E-17
6.030000E+03	2.442874E-16	4.483446E-17
6.040000E+03	2.436521E-16	4.404870E-17
6.050000E+03	2.430678E-16	4.325630E-17
6.060000E+03	2.425353E-16	4.245688E-17
6.070000E+03	2.420493E-16	4.164902E-17
6.080000E+03	2.416161E-16	4.083328E-17
6.090000E+03	2.412274E-16	4.000768E-17
6.100000E+03	2.408892E-16	3.917268E-17
6.110000E+03	2.405989E-16	3.832724E-17
6.120000E+03	2.403534E-16	3.747029E-17
6.130000E+03	2.401528E-16	3.660122E-17
6.140000E+03	2.399997E-16	3.571982E-17
6.150000E+03	2.398908E-16	3.482495E-17
6.160000E+03	2.398256E-16	3.391590E-17
6.170000E+03	2.398096E-16	3.299273E-17
6.180000E+03	2.398358E-16	3.205382E-17
6.190000E+03	2.399064E-16	3.109874E-17
6.200000E+03	2.400233E-16	3.012704E-17
6.210000E+03	2.401881E-16	2.913817E-17
6.220000E+03	2.403963E-16	2.813082E-17
6.230000E+03	2.406460E-16	2.710404E-17
6.240000E+03	2.409382E-16	2.605722E-17
6.250000E+03	2.412670E-16	2.498906E-17
6.260000E+03	2.416328E-16	2.389893E-17
6.270000E+03	2.420320E-16	2.278587E-17
6.280000E+03	2.424636E-16	2.164924E-17
6.290000E+03	2.429231E-16	2.048814E-17
6.300000E+03	2.434048E-16	1.930172E-17
6.310000E+03	2.439054E-16	1.808951E-17
6.320000E+03	2.444207E-16	1.685112E-17
6.330000E+03	2.449385E-16	1.558592E-17
6.340000E+03	2.454519E-16	1.429404E-17
6.350000E+03	2.459522E-16	1.297604E-17
6.360000E+03	2.464222E-16	1.163280E-17
6.370000E+03	2.468528E-16	1.026683E-17
6.380000E+03	2.472261E-16	8.882091E-18
6.390000E+03	2.475218E-16	7.485919E-18
6.400000E+03	2.477171E-16	6.092423E-18
6.410000E+03	2.477944E-16	4.731598E-18
6.420000E+03	2.477229E-16	3.476332E-18
6.430000E+03	2.474802E-16	2.530499E-18
6.440000E+03	2.470363E-16	2.338145E-18
6.450000E+03	2.463822E-16	3.042166E-18
6.460000E+03	2.455449E-16	4.191878E-18
6.470000E+03	2.445514E-16	5.489790E-18
6.480000E+03	2.434298E-16	6.828581E-18
6.490000E+03	2.421945E-16	8.166887E-18
6.500000E+03	2.408721E-16	9.486470E-18
6.510000E+03	2.394795E-16	1.077804E-17
6.520000E+03	2.380276E-16	1.203637E-17
6.530000E+03	2.365326E-16	1.325879E-17
6.540000E+03	2.350046E-16	1.444375E-17
6.550000E+03	2.334522E-16	1.559048E-17
6.560000E+03	2.318824E-16	1.669867E-17
6.570000E+03	2.303044E-16	1.776866E-17
6.580000E+03	2.287187E-16	1.880040E-17
6.590000E+03	2.271290E-16	1.979429E-17
6.600000E+03	2.255415E-16	2.075112E-17
6.610000E+03	2.239583E-16	2.167147E-17
6.620000E+03	2.223772E-16	2.255560E-17
6.630000E+03	2.208032E-16	2.340448E-17
6.640000E+03	2.192334E-16	2.421839E-17
6.650000E+03	2.176761E-16	2.499881E-17
6.660000E+03	2.161243E-16	2.574562E-17
6.670000E+03	2.145788E-16	2.645947E-17
6.680000E+03	2.130435E-16	2.714152E-17
6.690000E+03	2.115191E-16	2.779251E-17
6.700000E+03	2.100023E-16	2.841269E-17
6.710000E+03	2.084938E-16	2.900279E-17
6.720000E+03	2.069978E-16	2.956407E-17
6.730000E+03	2.055113E-16	3.009680E-17
6.740000E+03	2.040388E-16	3.060229E-17
6.750000E+03	2.025739E-16	3.108027E-17
6.760000E+03	2.011246E-16	3.153262E-17
6.770000E+03	1.996848E-16	3.195907E-17
6.780000E+03	1.982626E-16	3.236158E-17
6.790000E+03	1.968522E-16	3.273985E-17
6.800000E+03	1.954581E-16	3.309531E-17
6.810000E+03	1.940816E-16	3.342884E-17
6.820000E+03	1.927204E-16	3.374069E-17
6.830000E+03	1.913795E-16	3.403236E-17
6.840000E+03	1.900564E-16	3.430409E-17
6.850000E+03	1.887562E-16	3.455739E-17
6.860000E+03	1.874730E-16	3.479185E-17
6.870000E+03	1.862154E-16	3.500963E-17
6.880000E+03	1.849811E-16	3.521094E-17
6.890000E+03	1.837714E-16	3.539662E-17
6.900000E+03	1.825842E-16	3.556685E-17
6.910000E+03	1.814277E-16	3.572378E-17
6.920000E+03	1.802927E-16	3.586618E-17
6.930000E+03	1.791909E-16	3.599689E-17
6.940000E+03	1.781163E-16	3.611531E-17
6.950000E+03	1.770702E-16	3.622216E-17
6.960000E+03	1.760570E-16	3.631886E-17
6.970000E+03	1.750743E-16	3.640540E-17
6.980000E+03	1.741230E-16	3.648245E-17
6.990000E+03	1.732040E-16	3.655063E-17
7.000000E+03	1.723179E-16	3.661054E-17
7.010000E+03	1.714657E-16	3.666276E-17
7.020000E+03	1.706445E-16	3.670711E-17
7.030000E+03	1.698616E-16	3.674552E-17
7.040000E+03	1.691075E-16	3.677630E-17
7.050000E+03	1.683926E-16	3.680207E-17
7.060000E+03	1.677074E-16	3.682104E-17
7.070000E+03	1.670586E-16	3.683503E-17
7.080000E+03	1.664433E-16	3.684365E-17
7.090000E+03	1.658616E-16	3.684718E-17
7.100000E+03	1.653168E-16	3.684664E-17
7.110000E+03	1.648023E-16	3.684077E-17
7.120000E+03	1.643213E-16	3.683050E-17
7.130000E+03	1.638705E-16	3.681524E-17
7.140000E+03	1.634528E-16	3.679587E-17
7.150000E+03	1.630681E-16	3.677247E-17
7.160000E+03	1.627127E-16	3.674436E-17
7.170000E+03	1.623895E-16	3.671231E-17
7.180000E+03	1.620914E-16	3.667484E-17
7.190000E+03	1.618246E-16	3.663339E-17
7.200000E+03	1.615851E-16	3.658716E-17
7.210000E+03	1.613690E-16	3.653533E-17
7.220000E+03	1.611789E-16	3.647851E-17
7.230000E+03	1.610142E-16	3.641657E-17
7.240000E+03	1.608707E-16	3.634861E-17
7.250000E+03	1.607476E-16	3.627443E-17
7.260000E+03	1.606441E-16	3.619383E-17
7.270000E+03	1.605592E-16	3.610658E-17
7.280000E+03	1.604920E-16	3.601246E-17
7.290000E+03	1.604349E-16	3.590969E-17
7.300000E+03	1.603934E-16	3.579952E-17
7.310000E+03	1.603634E-16	3.568090E-17
7.320000E+03	1.603402E-16	3.555281E-17
7.330000E+03	1.603262E-16	3.541569E-17
7.340000E+03	1.603136E-16	3.526775E-17
7.350000E+03	1.603012E-16	3.510869E-17
7.360000E+03	1.602879E-16	3.493820E-17
7.370000E+03	1.602691E-16	3.475525E-17
7.380000E+03	1.602470E-16	3.456028E-17
7.390000E+03	1.602103E-16	3.435081E-17
7.400000E+03	1.601645E-16	3.412801E-17
7.410000E+03	1.601016E-16	3.389018E-17
7.420000E+03	1.600240E-16	3.363779E-17
7.430000E+03	1.599268E-16	3.336988E-17
7.440000E+03	1.598091E-16	3.308624E-17
7.450000E+03	1.596729E-16	3.278737E-17
7.460000E+03	1.595139E-16	3.247239E-17
7.470000E+03	1.593410E-16	3.214320E-17
7.480000E+03	1.591464E-16	3.179825E-17
7.490000E+03	1.589359E-16	3.143877E-17
7.500000E+03	1.587050E-16	3.106391E-17
7.510000E+03	1.584631E-16	3.067558E-17
7.520000E+03	1.582058E-16	3.027295E-17
7.530000E+03	1.579320E-16	2.985590E-17
7.540000E+03	1.576443E-16	2.942498E-17
7.550000E+03	1.573418E-16	2.898009E-17
7.560000E+03	1.570306E-16	2.852239E-17
7.570000E+03	1.567027E-16	2.805052E-17
7.580000E+03	1.563609E-16	2.756505E-17
7.590000E+03	1.560077E-16	2.706652E-17
7.600000E+03	1.556387E-16	2.655426E-17
7.610000E+03	1.552565E-16	2.602884E-17
7.620000E+03	1.548569E-16	2.548964E-17
7.630000E+03	1.544458E-16	2.493781E-17
7.640000E+03	1.540154E-16	2.437223E-17
7.650000E+03	1.535718E-16	2.379403E-17
7.660000E+03	1.531071E-16	2.320220E-17
7.670000E+03	1.526273E-16	2.259786E-17
7.680000E+03	1.521245E-16	2.198010E-17
7.690000E+03	1.516048E-16	2.135006E-17
7.700000E+03	1.510636E-16	2.070742E-17
7.710000E+03	1.505001E-16	2.005237E-17
7.720000E+03	1.499131E-16	1.938518E-17
7.730000E+03	1.493019E-16	1.870613E-17
7.740000E+03	1.486652E-16	1.801555E-17
7.750000E+03	1.479988E-16	1.731344E-17
7.760000E+03	1.473085E-16	1.660105E-17
