#wls	flux	fluxerr
1.600000E+03	8.320422E-18	9.890678E-18
1.640000E+03	8.394002E-18	9.873845E-18
1.680000E+03	8.471699E-18	9.856853E-18
1.720000E+03	8.556784E-18	9.843158E-18
1.760000E+03	8.648000E-18	9.830882E-18
1.800000E+03	8.747439E-18	9.821958E-18
1.840000E+03	8.854940E-18	9.815686E-18
1.880000E+03	8.971439E-18	9.812555E-18
1.920000E+03	9.097848E-18	9.812951E-18
1.960000E+03	9.236138E-18	9.818306E-18
2.000000E+03	9.388231E-18	9.829848E-18
2.040000E+03	9.553862E-18	9.846394E-18
2.080000E+03	9.738087E-18	9.872142E-18
2.120000E+03	9.940552E-18	9.905508E-18
2.160000E+03	1.016616E-17	9.950039E-18
2.200000E+03	1.041866E-17	1.000776E-17
2.240000E+03	1.070066E-17	1.007928E-17
2.280000E+03	1.101571E-17	1.016584E-17
2.320000E+03	1.136731E-17	1.026824E-17
2.360000E+03	1.175783E-17	1.038593E-17
2.400000E+03	1.218854E-17	1.051717E-17
2.440000E+03	1.265972E-17	1.065912E-17
2.480000E+03	1.317159E-17	1.080882E-17
2.520000E+03	1.372540E-17	1.096400E-17
2.560000E+03	1.432238E-17	1.112218E-17
2.600000E+03	1.496176E-17	1.127919E-17
2.640000E+03	1.564771E-17	1.143448E-17
2.680000E+03	1.637851E-17	1.158283E-17
2.720000E+03	1.715734E-17	1.172253E-17
2.760000E+03	1.798544E-17	1.185020E-17
2.800000E+03	1.886409E-17	1.196237E-17
2.840000E+03	1.979462E-17	1.205545E-17
2.880000E+03	2.078127E-17	1.212742E-17
2.920000E+03	2.182831E-17	1.217590E-17
2.960000E+03	2.294473E-17	1.220065E-17
3.000000E+03	2.414232E-17	1.220201E-17
3.010000E+03	2.445639E-17	1.219894E-17
3.020000E+03	2.477633E-17	1.219427E-17
3.030000E+03	2.510305E-17	1.218834E-17
3.040000E+03	2.543747E-17	1.218146E-17
3.050000E+03	2.577774E-17	1.217260E-17
3.060000E+03	2.612663E-17	1.216294E-17
3.070000E+03	2.648320E-17	1.215190E-17
3.080000E+03	2.684747E-17	1.213933E-17
3.090000E+03	2.721942E-17	1.212509E-17
3.100000E+03	2.760090E-17	1.210984E-17
3.110000E+03	2.799189E-17	1.209341E-17
3.120000E+03	2.839150E-17	1.207524E-17
3.130000E+03	2.880154E-17	1.205593E-17
3.140000E+03	2.922202E-17	1.203531E-17
3.150000E+03	2.965296E-17	1.201318E-17
3.160000E+03	3.009434E-17	1.198937E-17
3.170000E+03	3.054801E-17	1.196442E-17
3.180000E+03	3.101216E-17	1.193742E-17
3.190000E+03	3.148953E-17	1.190923E-17
3.200000E+03	3.197922E-17	1.187928E-17
3.210000E+03	3.248215E-17	1.184773E-17
3.220000E+03	3.299927E-17	1.181468E-17
3.230000E+03	3.352967E-17	1.177959E-17
3.240000E+03	3.407431E-17	1.174258E-17
3.250000E+03	3.463321E-17	1.170343E-17
3.260000E+03	3.520822E-17	1.166255E-17
3.270000E+03	3.579847E-17	1.161941E-17
3.280000E+03	3.640491E-17	1.157409E-17
3.290000E+03	3.702760E-17	1.152638E-17
3.300000E+03	3.766750E-17	1.147634E-17
3.310000E+03	3.832467E-17	1.142378E-17
3.320000E+03	3.899918E-17	1.136848E-17
3.330000E+03	3.969112E-17	1.131026E-17
3.340000E+03	4.040148E-17	1.124919E-17
3.350000E+03	4.113034E-17	1.118510E-17
3.360000E+03	4.187783E-17	1.111782E-17
3.370000E+03	4.264317E-17	1.104697E-17
3.380000E+03	4.342827E-17	1.097289E-17
3.390000E+03	4.423149E-17	1.089501E-17
3.400000E+03	4.505298E-17	1.081327E-17
3.410000E+03	4.589381E-17	1.072781E-17
3.420000E+03	4.675236E-17	1.063818E-17
3.430000E+03	4.762884E-17	1.054440E-17
3.440000E+03	4.852345E-17	1.044651E-17
3.450000E+03	4.943463E-17	1.034421E-17
3.460000E+03	5.036173E-17	1.023744E-17
3.470000E+03	5.130502E-17	1.012639E-17
3.480000E+03	5.226297E-17	1.001094E-17
3.490000E+03	5.323410E-17	9.891036E-18
3.500000E+03	5.421782E-17	9.766879E-18
3.510000E+03	5.521357E-17	9.638727E-18
3.520000E+03	5.621989E-17	9.506753E-18
3.530000E+03	5.723538E-17	9.371213E-18
3.540000E+03	5.825860E-17	9.232451E-18
3.550000E+03	5.928907E-17	9.091030E-18
3.560000E+03	6.032362E-17	8.947182E-18
3.570000E+03	6.136267E-17	8.801755E-18
3.580000E+03	6.240398E-17	8.655231E-18
3.590000E+03	6.344713E-17	8.508373E-18
3.600000E+03	6.449080E-17	8.361825E-18
3.610000E+03	6.553366E-17	8.216239E-18
3.620000E+03	6.657527E-17	8.072367E-18
3.630000E+03	6.761429E-17	7.930835E-18
3.640000E+03	6.865021E-17	7.792352E-18
3.650000E+03	6.968160E-17	7.657481E-18
3.660000E+03	7.070969E-17	7.527040E-18
3.670000E+03	7.173207E-17	7.401384E-18
3.680000E+03	7.274989E-17	7.281176E-18
3.690000E+03	7.376339E-17	7.166893E-18
3.700000E+03	7.477094E-17	7.058751E-18
3.710000E+03	7.577357E-17	6.957136E-18
3.720000E+03	7.677136E-17	6.862250E-18
3.730000E+03	7.776341E-17	6.774127E-18
3.740000E+03	7.875061E-17	6.692861E-18
3.750000E+03	7.973289E-17	6.618387E-18
3.760000E+03	8.071015E-17	6.550564E-18
3.770000E+03	8.168234E-17	6.489185E-18
3.780000E+03	8.264939E-17	6.433993E-18
3.790000E+03	8.361221E-17	6.384760E-18
3.800000E+03	8.457079E-17	6.341141E-18
3.810000E+03	8.552605E-17	6.302833E-18
3.820000E+03	8.647599E-17	6.269298E-18
3.830000E+03	8.742316E-17	6.240303E-18
3.840000E+03	8.836623E-17	6.215330E-18
3.850000E+03	8.930468E-17	6.193939E-18
3.860000E+03	9.023885E-17	6.175764E-18
3.870000E+03	9.116903E-17	6.160475E-18
3.880000E+03	9.209362E-17	6.147662E-18
3.890000E+03	9.301297E-17	6.137096E-18
3.900000E+03	9.392750E-17	6.128596E-18
3.910000E+03	9.483584E-17	6.121884E-18
3.920000E+03	9.573862E-17	6.116810E-18
3.930000E+03	9.663562E-17	6.113173E-18
3.940000E+03	9.752755E-17	6.110843E-18
3.950000E+03	9.841411E-17	6.109625E-18
3.960000E+03	9.929587E-17	6.109403E-18
3.970000E+03	1.001713E-16	6.109957E-18
3.980000E+03	1.010398E-16	6.111137E-18
3.990000E+03	1.019035E-16	6.112994E-18
4.000000E+03	1.027585E-16	6.115233E-18
4.010000E+03	1.036059E-16	6.117852E-18
4.020000E+03	1.044449E-16	6.120736E-18
4.030000E+03	1.052756E-16	6.123845E-18
4.040000E+03	1.060963E-16	6.127016E-18
4.050000E+03	1.069065E-16	6.130156E-18
4.060000E+03	1.077065E-16	6.133241E-18
4.070000E+03	1.084972E-16	6.136229E-18
4.080000E+03	1.092765E-16	6.138920E-18
4.090000E+03	1.100465E-16	6.141364E-18
4.100000E+03	1.108063E-16	6.143450E-18
4.110000E+03	1.115572E-16	6.145205E-18
4.120000E+03	1.122988E-16	6.146563E-18
4.130000E+03	1.130328E-16	6.147568E-18
4.140000E+03	1.137602E-16	6.148226E-18
4.150000E+03	1.144823E-16	6.148565E-18
4.160000E+03	1.151997E-16	6.148564E-18
4.170000E+03	1.159152E-16	6.148338E-18
4.180000E+03	1.166298E-16	6.147922E-18
4.190000E+03	1.173467E-16	6.147467E-18
4.200000E+03	1.180659E-16	6.146971E-18
4.210000E+03	1.187907E-16	6.146593E-18
4.220000E+03	1.195218E-16	6.146332E-18
4.230000E+03	1.202609E-16	6.146214E-18
4.240000E+03	1.210084E-16	6.146187E-18
4.250000E+03	1.217643E-16	6.146141E-18
4.260000E+03	1.225294E-16	6.146008E-18
4.270000E+03	1.233023E-16	6.145611E-18
4.280000E+03	1.240825E-16	6.144816E-18
4.290000E+03	1.248694E-16	6.143516E-18
4.300000E+03	1.256604E-16	6.141538E-18
4.310000E+03	1.264558E-16	6.138897E-18
4.320000E+03	1.272539E-16	6.135556E-18
4.330000E+03	1.280505E-16	6.131426E-18
4.340000E+03	1.288457E-16	6.126659E-18
4.350000E+03	1.296369E-16	6.121331E-18
4.360000E+03	1.304213E-16	6.115506E-18
4.370000E+03	1.311979E-16	6.109282E-18
4.380000E+03	1.319689E-16	6.102867E-18
4.390000E+03	1.327338E-16	6.096298E-18
4.400000E+03	1.334929E-16	6.089556E-18
4.410000E+03	1.342486E-16	6.082672E-18
4.420000E+03	1.349998E-16	6.075478E-18
4.430000E+03	1.357474E-16	6.067853E-18
4.440000E+03	1.364902E-16	6.059552E-18
4.450000E+03	1.372291E-16	6.050415E-18
4.460000E+03	1.379637E-16	6.040180E-18
4.470000E+03	1.386926E-16	6.028518E-18
4.480000E+03	1.394141E-16	6.015092E-18
4.490000E+03	1.401265E-16	5.999523E-18
4.500000E+03	1.408305E-16	5.981533E-18
4.510000E+03	1.415218E-16	5.960624E-18
4.520000E+03	1.421998E-16	5.936404E-18
4.530000E+03	1.428600E-16	5.908312E-18
4.540000E+03	1.435032E-16	5.875973E-18
4.550000E+03	1.441259E-16	5.838792E-18
4.560000E+03	1.447236E-16	5.796102E-18
4.570000E+03	1.452941E-16	5.747332E-18
4.580000E+03	1.458361E-16	5.691913E-18
4.590000E+03	1.463435E-16	5.629081E-18
4.600000E+03	1.468162E-16	5.558351E-18
4.610000E+03	1.472477E-16	5.478982E-18
4.620000E+03	1.476354E-16	5.390451E-18
4.630000E+03	1.479784E-16	5.292371E-18
4.640000E+03	1.482722E-16	5.184293E-18
4.650000E+03	1.485153E-16	5.066011E-18
4.660000E+03	1.487072E-16	4.937497E-18
4.670000E+03	1.488494E-16	4.798937E-18
4.680000E+03	1.489399E-16	4.650634E-18
4.690000E+03	1.489833E-16	4.493357E-18
4.700000E+03	1.489819E-16	4.328094E-18
4.710000E+03	1.489334E-16	4.156117E-18
4.720000E+03	1.488371E-16	3.979306E-18
4.730000E+03	1.486929E-16	3.800186E-18
4.740000E+03	1.485011E-16	3.622153E-18
4.750000E+03	1.482632E-16	3.449689E-18
4.760000E+03	1.479811E-16	3.288370E-18
4.770000E+03	1.476567E-16	3.144858E-18
4.780000E+03	1.472921E-16	3.026509E-18
4.790000E+03	1.468917E-16	2.940562E-18
4.800000E+03	1.464554E-16	2.892749E-18
4.810000E+03	1.459919E-16	2.886025E-18
4.820000E+03	1.455060E-16	2.918808E-18
4.830000E+03	1.450094E-16	2.985636E-18
4.840000E+03	1.445137E-16	3.078970E-18
4.850000E+03	1.440319E-16	3.190869E-18
4.860000E+03	1.435743E-16	3.314069E-18
4.870000E+03	1.431525E-16	3.442670E-18
4.880000E+03	1.427761E-16	3.572161E-18
4.890000E+03	1.424542E-16	3.699423E-18
4.900000E+03	1.421938E-16	3.822451E-18
4.910000E+03	1.420002E-16	3.940114E-18
4.920000E+03	1.418775E-16	4.051970E-18
4.930000E+03	1.418312E-16	4.158131E-18
4.940000E+03	1.418597E-16	4.258801E-18
4.950000E+03	1.419656E-16	4.354557E-18
4.960000E+03	1.421483E-16	4.446051E-18
4.970000E+03	1.424050E-16	4.533933E-18
4.980000E+03	1.427355E-16	4.618978E-18
4.990000E+03	1.431383E-16	4.701910E-18
5.000000E+03	1.436140E-16	4.783381E-18
5.010000E+03	1.441606E-16	4.863874E-18
5.020000E+03	1.447781E-16	4.943824E-18
5.030000E+03	1.454682E-16	5.023549E-18
5.040000E+03	1.462313E-16	5.103244E-18
5.050000E+03	1.470667E-16	5.183026E-18
5.060000E+03	1.479762E-16	5.263053E-18
5.070000E+03	1.489604E-16	5.343451E-18
5.080000E+03	1.500181E-16	5.424333E-18
5.090000E+03	1.511507E-16	5.505910E-18
5.100000E+03	1.523582E-16	5.588382E-18
5.110000E+03	1.536403E-16	5.671977E-18
5.120000E+03	1.549957E-16	5.756829E-18
5.130000E+03	1.564243E-16	5.843130E-18
5.140000E+03	1.579274E-16	5.931115E-18
5.150000E+03	1.595048E-16	6.020883E-18
5.160000E+03	1.611548E-16	6.112446E-18
5.170000E+03	1.628768E-16	6.205848E-18
5.180000E+03	1.646701E-16	6.301055E-18
5.190000E+03	1.665339E-16	6.398025E-18
5.200000E+03	1.684656E-16	6.496661E-18
5.210000E+03	1.704673E-16	6.597027E-18
5.220000E+03	1.725344E-16	6.698953E-18
5.230000E+03	1.746673E-16	6.802470E-18
5.240000E+03	1.768627E-16	6.907433E-18
5.250000E+03	1.791192E-16	7.013769E-18
5.260000E+03	1.814353E-16	7.121431E-18
5.270000E+03	1.838078E-16	7.230273E-18
5.280000E+03	1.862375E-16	7.340323E-18
5.290000E+03	1.887235E-16	7.451569E-18
5.300000E+03	1.912617E-16	7.563833E-18
5.310000E+03	1.938556E-16	7.677266E-18
5.320000E+03	1.965011E-16	7.791768E-18
5.330000E+03	1.991998E-16	7.907454E-18
5.340000E+03	2.019488E-16	8.024316E-18
5.350000E+03	2.047469E-16	8.142414E-18
5.360000E+03	2.075895E-16	8.261623E-18
5.370000E+03	2.104772E-16	8.382005E-18
5.380000E+03	2.133986E-16	8.503122E-18
5.390000E+03	2.163485E-16	8.624673E-18
5.400000E+03	2.193179E-16	8.746169E-18
5.410000E+03	2.222959E-16	8.867025E-18
5.420000E+03	2.252676E-16	8.986408E-18
5.430000E+03	2.282185E-16	9.103510E-18
5.440000E+03	2.311332E-16	9.217503E-18
5.450000E+03	2.339955E-16	9.327499E-18
5.460000E+03	2.367906E-16	9.432751E-18
5.470000E+03	2.395019E-16	9.532517E-18
5.480000E+03	2.421079E-16	9.625920E-18
5.490000E+03	2.445894E-16	9.712306E-18
5.500000E+03	2.469353E-16	9.791438E-18
5.510000E+03	2.491222E-16	9.862634E-18
5.520000E+03	2.511397E-16	9.925801E-18
5.530000E+03	2.529675E-16	9.980500E-18
5.540000E+03	2.545935E-16	1.002655E-17
5.550000E+03	2.560062E-16	1.006379E-17
5.560000E+03	2.571872E-16	1.009181E-17
5.570000E+03	2.581270E-16	1.011047E-17
5.580000E+03	2.588176E-16	1.011969E-17
5.590000E+03	2.592448E-16	1.011917E-17
5.600000E+03	2.594047E-16	1.010893E-17
5.610000E+03	2.592954E-16	1.008907E-17
5.620000E+03	2.589097E-16	1.005950E-17
5.630000E+03	2.582536E-16	1.002050E-17
5.640000E+03	2.573303E-16	9.972258E-18
5.650000E+03	2.561403E-16	9.914807E-18
5.660000E+03	2.546972E-16	9.848589E-18
5.670000E+03	2.530120E-16	9.773918E-18
5.680000E+03	2.510947E-16	9.691102E-18
5.690000E+03	2.489631E-16	9.600680E-18
5.700000E+03	2.466310E-16	9.503092E-18
5.710000E+03	2.441190E-16	9.399081E-18
5.720000E+03	2.414460E-16	9.289306E-18
5.730000E+03	2.386320E-16	9.174501E-18
5.740000E+03	2.356973E-16	9.055438E-18
5.750000E+03	2.326649E-16	8.932928E-18
5.760000E+03	2.295503E-16	8.807498E-18
5.770000E+03	2.263788E-16	8.680053E-18
5.780000E+03	2.231673E-16	8.551109E-18
5.790000E+03	2.199343E-16	8.421251E-18
5.800000E+03	2.166995E-16	8.291102E-18
5.810000E+03	2.134787E-16	8.161053E-18
5.820000E+03	2.102865E-16	8.031427E-18
5.830000E+03	2.071356E-16	7.902464E-18
5.840000E+03	2.040376E-16	7.774244E-18
5.850000E+03	2.010022E-16	7.646768E-18
5.860000E+03	1.980403E-16	7.520055E-18
5.870000E+03	1.951585E-16	7.393918E-18
5.880000E+03	1.923603E-16	7.268089E-18
5.890000E+03	1.896522E-16	7.142544E-18
5.900000E+03	1.870370E-16	7.017228E-18
5.910000E+03	1.845188E-16	6.892284E-18
5.920000E+03	1.820962E-16	6.767803E-18
5.930000E+03	1.797708E-16	6.644069E-18
5.940000E+03	1.775412E-16	6.521362E-18
5.950000E+03	1.754054E-16	6.400000E-18
5.960000E+03	1.733624E-16	6.280331E-18
5.970000E+03	1.714090E-16	6.162641E-18
5.980000E+03	1.695396E-16	6.047150E-18
5.990000E+03	1.677545E-16	5.934232E-18
6.000000E+03	1.660482E-16	5.824042E-18
6.010000E+03	1.644189E-16	5.716860E-18
6.020000E+03	1.628632E-16	5.612801E-18
6.030000E+03	1.613780E-16	5.511953E-18
6.040000E+03	1.599623E-16	5.414423E-18
6.050000E+03	1.586155E-16	5.320199E-18
6.060000E+03	1.573318E-16	5.229026E-18
6.070000E+03	1.561132E-16	5.140859E-18
6.080000E+03	1.549584E-16	5.055407E-18
6.090000E+03	1.538681E-16	4.972424E-18
6.100000E+03	1.528417E-16	4.891602E-18
6.110000E+03	1.518809E-16	4.812654E-18
6.120000E+03	1.509836E-16	4.735226E-18
6.130000E+03	1.501560E-16	4.659280E-18
6.140000E+03	1.493985E-16	4.584622E-18
6.150000E+03	1.487121E-16	4.511149E-18
6.160000E+03	1.481035E-16	4.439004E-18
6.170000E+03	1.475722E-16	4.368084E-18
6.180000E+03	1.471234E-16	4.298490E-18
6.190000E+03	1.467530E-16	4.230033E-18
6.200000E+03	1.464645E-16	4.162634E-18
6.210000E+03	1.462576E-16	4.096055E-18
6.220000E+03	1.461318E-16	4.029983E-18
6.230000E+03	1.460864E-16	3.963948E-18
6.240000E+03	1.461208E-16	3.897440E-18
6.250000E+03	1.462341E-16	3.829960E-18
6.260000E+03	1.464315E-16	3.761115E-18
6.270000E+03	1.467081E-16	3.690283E-18
6.280000E+03	1.470662E-16	3.617017E-18
6.290000E+03	1.475037E-16	3.540610E-18
6.300000E+03	1.480218E-16	3.460369E-18
6.310000E+03	1.486170E-16	3.375368E-18
6.320000E+03	1.492849E-16	3.284447E-18
6.330000E+03	1.500265E-16	3.186551E-18
6.340000E+03	1.508344E-16	3.080570E-18
6.350000E+03	1.517045E-16	2.965696E-18
6.360000E+03	1.526370E-16	2.841787E-18
6.370000E+03	1.536236E-16	2.709516E-18
6.380000E+03	1.546627E-16	2.571019E-18
6.390000E+03	1.557488E-16	2.430378E-18
6.400000E+03	1.568829E-16	2.294471E-18
6.410000E+03	1.580575E-16	2.173231E-18
6.420000E+03	1.592715E-16	2.080065E-18
6.430000E+03	1.605205E-16	2.030297E-18
6.440000E+03	1.617950E-16	2.037167E-18
6.450000E+03	1.630971E-16	2.105066E-18
6.460000E+03	1.644260E-16	2.226573E-18
6.470000E+03	1.657823E-16	2.388794E-18
6.480000E+03	1.671618E-16	2.578398E-18
6.490000E+03	1.685623E-16	2.784169E-18
6.500000E+03	1.699737E-16	2.997369E-18
6.510000E+03	1.713877E-16	3.211742E-18
6.520000E+03	1.727867E-16	3.422747E-18
6.530000E+03	1.741613E-16	3.627227E-18
6.540000E+03	1.754936E-16	3.822877E-18
6.550000E+03	1.767652E-16	4.008215E-18
6.560000E+03	1.779633E-16	4.182469E-18
6.570000E+03	1.790706E-16	4.345320E-18
6.580000E+03	1.800760E-16	4.497034E-18
6.590000E+03	1.809647E-16	4.638009E-18
6.600000E+03	1.817257E-16	4.768931E-18
6.610000E+03	1.823526E-16	4.890622E-18
6.620000E+03	1.828324E-16	5.003529E-18
6.630000E+03	1.831646E-16	5.108318E-18
6.640000E+03	1.833417E-16	5.205369E-18
6.650000E+03	1.833604E-16	5.294982E-18
6.660000E+03	1.832188E-16	5.377428E-18
6.670000E+03	1.829193E-16	5.453078E-18
6.680000E+03	1.824573E-16	5.522002E-18
6.690000E+03	1.818383E-16	5.584559E-18
6.700000E+03	1.810690E-16	5.641140E-18
6.710000E+03	1.801516E-16	5.691891E-18
6.720000E+03	1.790893E-16	5.736946E-18
6.730000E+03	1.778947E-16	5.776681E-18
6.740000E+03	1.765754E-16	5.811163E-18
6.750000E+03	1.751342E-16	5.840212E-18
6.760000E+03	1.735852E-16	5.863961E-18
6.770000E+03	1.719347E-16	5.882133E-18
6.780000E+03	1.701920E-16	5.894537E-18
6.790000E+03	1.683694E-16	5.901137E-18
6.800000E+03	1.664744E-16	5.901755E-18
6.810000E+03	1.645198E-16	5.896544E-18
6.820000E+03	1.625137E-16	5.885648E-18
6.830000E+03	1.604698E-16	5.869549E-18
6.840000E+03	1.583964E-16	5.848676E-18
6.850000E+03	1.563074E-16	5.823727E-18
6.860000E+03	1.542138E-16	5.795272E-18
6.870000E+03	1.521237E-16	5.763788E-18
6.880000E+03	1.500497E-16	5.729939E-18
6.890000E+03	1.479983E-16	5.694124E-18
6.900000E+03	1.459823E-16	5.656996E-18
6.910000E+03	1.440035E-16	5.618780E-18
6.920000E+03	1.420697E-16	5.579887E-18
6.930000E+03	1.401852E-16	5.540583E-18
6.940000E+03	1.383533E-16	5.501106E-18
6.950000E+03	1.365767E-16	5.461625E-18
6.960000E+03	1.348573E-16	5.422293E-18
6.970000E+03	1.331968E-16	5.383262E-18
6.980000E+03	1.315964E-16	5.344641E-18
6.990000E+03	1.300549E-16	5.306460E-18
7.000000E+03	1.285776E-16	5.269048E-18
7.010000E+03	1.271630E-16	5.232441E-18
7.020000E+03	1.258112E-16	5.196791E-18
7.030000E+03	1.245250E-16	5.162360E-18
7.040000E+03	1.232995E-16	5.129098E-18
7.050000E+03	1.221392E-16	5.097336E-18
7.060000E+03	1.210413E-16	5.067116E-18
7.070000E+03	1.200051E-16	5.038524E-18
7.080000E+03	1.190299E-16	5.011636E-18
7.090000E+03	1.181168E-16	4.986617E-18
7.100000E+03	1.172626E-16	4.963401E-18
7.110000E+03	1.164686E-16	4.942104E-18
7.120000E+03	1.157314E-16	4.922636E-18
7.130000E+03	1.150499E-16	4.904949E-18
7.140000E+03	1.144252E-16	4.889067E-18
7.150000E+03	1.138560E-16	4.874903E-18
7.160000E+03	1.133389E-16	4.862231E-18
7.170000E+03	1.128747E-16	4.850999E-18
7.180000E+03	1.124598E-16	4.840963E-18
7.190000E+03	1.120947E-16	4.832039E-18
7.200000E+03	1.117776E-16	4.824049E-18
7.210000E+03	1.115067E-16	4.816823E-18
7.220000E+03	1.112796E-16	4.810169E-18
7.230000E+03	1.110940E-16	4.803901E-18
7.240000E+03	1.109452E-16	4.797740E-18
7.250000E+03	1.108348E-16	4.791671E-18
7.260000E+03	1.107576E-16	4.785396E-18
7.270000E+03	1.107105E-16	4.778723E-18
7.280000E+03	1.106924E-16	4.771543E-18
7.290000E+03	1.106975E-16	4.763574E-18
7.300000E+03	1.107246E-16	4.754761E-18
7.310000E+03	1.107699E-16	4.744964E-18
7.320000E+03	1.108295E-16	4.734086E-18
7.330000E+03	1.108995E-16	4.722072E-18
7.340000E+03	1.109783E-16	4.708984E-18
7.350000E+03	1.110597E-16	4.694724E-18
7.360000E+03	1.111441E-16	4.679524E-18
7.370000E+03	1.112300E-16	4.663514E-18
7.380000E+03	1.113086E-16	4.646553E-18
7.390000E+03	1.113830E-16	4.629029E-18
7.400000E+03	1.114495E-16	4.611035E-18
7.410000E+03	1.115069E-16	4.592789E-18
7.420000E+03	1.115518E-16	4.574422E-18
7.430000E+03	1.115835E-16	4.556144E-18
7.440000E+03	1.115968E-16	4.537957E-18
7.450000E+03	1.115844E-16	4.519751E-18
7.460000E+03	1.115466E-16	4.501661E-18
7.470000E+03	1.114769E-16	4.483494E-18
7.480000E+03	1.113738E-16	4.465237E-18
7.490000E+03	1.112319E-16	4.446619E-18
7.500000E+03	1.110534E-16	4.427638E-18
7.510000E+03	1.108387E-16	4.408149E-18
7.520000E+03	1.105841E-16	4.387728E-18
7.530000E+03	1.102940E-16	4.366207E-18
7.540000E+03	1.099683E-16	4.343183E-18
7.550000E+03	1.096105E-16	4.318289E-18
7.560000E+03	1.092273E-16	4.291254E-18
7.570000E+03	1.088206E-16	4.261635E-18
7.580000E+03	1.083950E-16	4.229110E-18
7.590000E+03	1.079555E-16	4.193453E-18
7.600000E+03	1.075066E-16	4.154589E-18
7.610000E+03	1.070528E-16	4.112602E-18
7.620000E+03	1.065979E-16	4.067758E-18
7.630000E+03	1.061454E-16	4.020486E-18
7.640000E+03	1.056982E-16	3.971327E-18
7.650000E+03	1.052582E-16	3.920892E-18
7.660000E+03	1.048272E-16	3.869755E-18
7.670000E+03	1.044057E-16	3.818344E-18
7.680000E+03	1.039966E-16	3.767042E-18
7.690000E+03	1.035949E-16	3.715795E-18
7.700000E+03	1.032055E-16	3.664693E-18
7.710000E+03	1.028233E-16	3.613345E-18
7.720000E+03	1.024533E-16	3.561675E-18
7.730000E+03	1.020926E-16	3.509319E-18
7.740000E+03	1.017433E-16	3.456131E-18
7.750000E+03	1.014022E-16	3.401857E-18
7.760000E+03	1.010681E-16	3.346370E-18
