#wls	flux	fluxerr
1.600000E+03	7.011046E-18	8.326573E-18
1.640000E+03	7.062240E-18	8.299285E-18
1.680000E+03	7.117548E-18	8.272867E-18
1.720000E+03	7.176912E-18	8.246978E-18
1.760000E+03	7.242241E-18	8.223506E-18
1.800000E+03	7.313450E-18	8.201985E-18
1.840000E+03	7.391430E-18	8.183019E-18
1.880000E+03	7.476083E-18	8.166065E-18
1.920000E+03	7.570216E-18	8.153697E-18
1.960000E+03	7.672730E-18	8.144150E-18
2.000000E+03	7.787338E-18	8.140739E-18
2.040000E+03	7.914822E-18	8.143493E-18
2.080000E+03	8.056896E-18	8.153303E-18
2.120000E+03	8.215244E-18	8.170875E-18
2.160000E+03	8.391512E-18	8.196725E-18
2.200000E+03	8.590128E-18	8.233869E-18
2.240000E+03	8.812636E-18	8.282237E-18
2.280000E+03	9.059621E-18	8.340701E-18
2.320000E+03	9.336277E-18	8.412177E-18
2.360000E+03	9.641260E-18	8.493345E-18
2.400000E+03	9.977831E-18	8.584882E-18
2.440000E+03	1.034555E-17	8.684014E-18
2.480000E+03	1.074489E-17	8.788685E-18
2.520000E+03	1.117722E-17	8.897444E-18
2.560000E+03	1.164212E-17	9.007249E-18
2.600000E+03	1.214185E-17	9.117066E-18
2.640000E+03	1.267688E-17	9.224281E-18
2.680000E+03	1.324679E-17	9.325574E-18
2.720000E+03	1.385473E-17	9.420040E-18
2.760000E+03	1.449946E-17	9.503551E-18
2.800000E+03	1.518413E-17	9.574877E-18
2.840000E+03	1.590931E-17	9.630888E-18
2.880000E+03	1.667562E-17	9.668447E-18
2.920000E+03	1.748546E-17	9.685384E-18
2.960000E+03	1.834387E-17	9.680741E-18
3.000000E+03	1.926018E-17	9.655286E-18
3.010000E+03	1.950016E-17	9.646059E-18
3.020000E+03	1.974408E-17	9.635308E-18
3.030000E+03	1.999279E-17	9.623369E-18
3.040000E+03	2.024628E-17	9.610152E-18
3.050000E+03	2.050541E-17	9.595964E-18
3.060000E+03	2.077017E-17	9.580700E-18
3.070000E+03	2.103972E-17	9.563869E-18
3.080000E+03	2.131575E-17	9.546144E-18
3.090000E+03	2.159743E-17	9.527033E-18
3.100000E+03	2.188559E-17	9.506803E-18
3.110000E+03	2.218024E-17	9.485337E-18
3.120000E+03	2.248223E-17	9.462879E-18
3.130000E+03	2.279071E-17	9.438948E-18
3.140000E+03	2.310739E-17	9.414122E-18
3.150000E+03	2.343057E-17	9.387583E-18
3.160000E+03	2.376280E-17	9.360221E-18
3.170000E+03	2.410323E-17	9.331556E-18
3.180000E+03	2.445189E-17	9.301455E-18
3.190000E+03	2.480961E-17	9.270099E-18
3.200000E+03	2.517725E-17	9.237653E-18
3.210000E+03	2.555399E-17	9.203654E-18
3.220000E+03	2.594068E-17	9.168264E-18
3.230000E+03	2.633733E-17	9.131331E-18
3.240000E+03	2.674565E-17	9.093279E-18
3.250000E+03	2.716481E-17	9.053655E-18
3.260000E+03	2.759484E-17	9.012307E-18
3.270000E+03	2.803744E-17	8.969622E-18
3.280000E+03	2.849181E-17	8.925166E-18
3.290000E+03	2.895881E-17	8.879043E-18
3.300000E+03	2.943849E-17	8.831095E-18
3.310000E+03	2.993172E-17	8.781415E-18
3.320000E+03	3.043854E-17	8.729842E-18
3.330000E+03	3.095984E-17	8.676460E-18
3.340000E+03	3.149485E-17	8.620885E-18
3.350000E+03	3.204528E-17	8.563431E-18
3.360000E+03	3.261038E-17	8.503732E-18
3.370000E+03	3.319106E-17	8.441878E-18
3.380000E+03	3.378738E-17	8.377747E-18
3.390000E+03	3.439862E-17	8.311029E-18
3.400000E+03	3.502653E-17	8.242040E-18
3.410000E+03	3.566955E-17	8.170310E-18
3.420000E+03	3.632945E-17	8.096169E-18
3.430000E+03	3.700471E-17	8.019209E-18
3.440000E+03	3.769628E-17	7.939607E-18
3.450000E+03	3.840265E-17	7.857036E-18
3.460000E+03	3.912481E-17	7.771728E-18
3.470000E+03	3.986207E-17	7.683606E-18
3.480000E+03	4.061298E-17	7.592484E-18
3.490000E+03	4.137771E-17	7.498549E-18
3.500000E+03	4.215481E-17	7.401730E-18
3.510000E+03	4.294283E-17	7.302028E-18
3.520000E+03	4.374200E-17	7.199792E-18
3.530000E+03	4.455007E-17	7.095015E-18
3.540000E+03	4.536727E-17	6.988166E-18
3.550000E+03	4.619057E-17	6.879262E-18
3.560000E+03	4.702106E-17	6.769024E-18
3.570000E+03	4.785570E-17	6.657612E-18
3.580000E+03	4.869396E-17	6.545596E-18
3.590000E+03	4.953451E-17	6.433440E-18
3.600000E+03	5.037516E-17	6.321522E-18
3.610000E+03	5.121375E-17	6.210248E-18
3.620000E+03	5.205057E-17	6.100327E-18
3.630000E+03	5.288510E-17	5.992343E-18
3.640000E+03	5.371760E-17	5.886951E-18
3.650000E+03	5.454832E-17	5.784754E-18
3.660000E+03	5.537746E-17	5.686311E-18
3.670000E+03	5.620523E-17	5.592124E-18
3.680000E+03	5.703179E-17	5.502617E-18
3.690000E+03	5.785815E-17	5.418224E-18
3.700000E+03	5.868441E-17	5.339227E-18
3.710000E+03	5.950982E-17	5.265751E-18
3.720000E+03	6.033526E-17	5.197999E-18
3.730000E+03	6.116072E-17	5.136030E-18
3.740000E+03	6.198532E-17	5.079746E-18
3.750000E+03	6.281067E-17	5.029196E-18
3.760000E+03	6.363499E-17	4.984098E-18
3.770000E+03	6.445906E-17	4.944318E-18
3.780000E+03	6.528284E-17	4.909616E-18
3.790000E+03	6.610543E-17	4.879658E-18
3.800000E+03	6.692854E-17	4.854267E-18
3.810000E+03	6.775046E-17	4.832995E-18
3.820000E+03	6.857283E-17	4.815623E-18
3.830000E+03	6.939368E-17	4.801653E-18
3.840000E+03	7.021356E-17	4.790768E-18
3.850000E+03	7.103204E-17	4.782597E-18
3.860000E+03	7.184948E-17	4.776839E-18
3.870000E+03	7.266359E-17	4.773048E-18
3.880000E+03	7.347557E-17	4.771062E-18
3.890000E+03	7.428315E-17	4.770526E-18
3.900000E+03	7.508764E-17	4.771367E-18
3.910000E+03	7.588870E-17	4.773423E-18
3.920000E+03	7.668429E-17	4.776411E-18
3.930000E+03	7.747689E-17	4.780344E-18
3.940000E+03	7.826453E-17	4.784972E-18
3.950000E+03	7.904695E-17	4.790143E-18
3.960000E+03	7.982561E-17	4.795834E-18
3.970000E+03	8.059830E-17	4.801827E-18
3.980000E+03	8.136534E-17	4.808066E-18
3.990000E+03	8.212697E-17	4.814518E-18
4.000000E+03	8.288066E-17	4.821007E-18
4.010000E+03	8.362750E-17	4.827552E-18
4.020000E+03	8.436675E-17	4.834080E-18
4.030000E+03	8.509589E-17	4.840428E-18
4.040000E+03	8.581709E-17	4.846682E-18
4.050000E+03	8.652801E-17	4.852682E-18
4.060000E+03	8.722828E-17	4.858384E-18
4.070000E+03	8.791956E-17	4.863823E-18
4.080000E+03	8.859996E-17	4.868841E-18
4.090000E+03	8.927048E-17	4.873457E-18
4.100000E+03	8.993130E-17	4.877639E-18
4.110000E+03	9.058270E-17	4.881381E-18
4.120000E+03	9.122514E-17	4.884697E-18
4.130000E+03	9.185928E-17	4.887587E-18
4.140000E+03	9.248505E-17	4.890018E-18
4.150000E+03	9.310449E-17	4.892084E-18
4.160000E+03	9.371806E-17	4.893768E-18
4.170000E+03	9.432835E-17	4.895185E-18
4.180000E+03	9.493523E-17	4.896328E-18
4.190000E+03	9.554153E-17	4.897335E-18
4.200000E+03	9.614917E-17	4.898314E-18
4.210000E+03	9.675811E-17	4.899275E-18
4.220000E+03	9.737006E-17	4.900270E-18
4.230000E+03	9.798655E-17	4.901334E-18
4.240000E+03	9.860703E-17	4.902392E-18
4.250000E+03	9.923252E-17	4.903402E-18
4.260000E+03	9.986290E-17	4.904271E-18
4.270000E+03	1.004980E-16	4.904910E-18
4.280000E+03	1.011364E-16	4.905166E-18
4.290000E+03	1.017781E-16	4.904960E-18
4.300000E+03	1.024215E-16	4.904207E-18
4.310000E+03	1.030676E-16	4.902931E-18
4.320000E+03	1.037128E-16	4.901019E-18
4.330000E+03	1.043579E-16	4.898604E-18
4.340000E+03	1.050001E-16	4.895691E-18
4.350000E+03	1.056386E-16	4.892412E-18
4.360000E+03	1.062734E-16	4.888947E-18
4.370000E+03	1.069020E-16	4.885298E-18
4.380000E+03	1.075246E-16	4.881575E-18
4.390000E+03	1.081423E-16	4.877887E-18
4.400000E+03	1.087568E-16	4.874274E-18
4.410000E+03	1.093697E-16	4.870739E-18
4.420000E+03	1.099804E-16	4.867170E-18
4.430000E+03	1.105902E-16	4.863485E-18
4.440000E+03	1.112016E-16	4.859637E-18
4.450000E+03	1.118139E-16	4.855442E-18
4.460000E+03	1.124273E-16	4.850696E-18
4.470000E+03	1.130421E-16	4.845195E-18
4.480000E+03	1.136595E-16	4.838786E-18
4.490000E+03	1.142776E-16	4.831123E-18
4.500000E+03	1.148952E-16	4.821913E-18
4.510000E+03	1.155135E-16	4.810954E-18
4.520000E+03	1.161304E-16	4.797844E-18
4.530000E+03	1.167436E-16	4.782181E-18
4.540000E+03	1.173531E-16	4.763640E-18
4.550000E+03	1.179553E-16	4.741683E-18
4.560000E+03	1.185498E-16	4.715896E-18
4.570000E+03	1.191341E-16	4.685772E-18
4.580000E+03	1.197040E-16	4.650694E-18
4.590000E+03	1.202563E-16	4.610101E-18
4.600000E+03	1.207902E-16	4.563544E-18
4.610000E+03	1.212999E-16	4.510363E-18
4.620000E+03	1.217818E-16	4.450042E-18
4.630000E+03	1.222324E-16	4.382148E-18
4.640000E+03	1.226485E-16	4.306278E-18
4.650000E+03	1.230259E-16	4.222117E-18
4.660000E+03	1.233611E-16	4.129506E-18
4.670000E+03	1.236520E-16	4.028431E-18
4.680000E+03	1.238960E-16	3.919055E-18
4.690000E+03	1.240888E-16	3.801718E-18
4.700000E+03	1.242310E-16	3.677118E-18
4.710000E+03	1.243195E-16	3.546181E-18
4.720000E+03	1.243532E-16	3.410346E-18
4.730000E+03	1.243331E-16	3.271541E-18
4.740000E+03	1.242601E-16	3.132380E-18
4.750000E+03	1.241350E-16	2.996314E-18
4.760000E+03	1.239577E-16	2.867641E-18
4.770000E+03	1.237313E-16	2.751700E-18
4.780000E+03	1.234565E-16	2.654531E-18
4.790000E+03	1.231331E-16	2.582364E-18
4.800000E+03	1.227631E-16	2.540926E-18
4.810000E+03	1.223455E-16	2.533973E-18
4.820000E+03	1.218876E-16	2.560196E-18
4.830000E+03	1.214053E-16	2.613735E-18
4.840000E+03	1.209111E-16	2.687542E-18
4.850000E+03	1.204188E-16	2.774815E-18
4.860000E+03	1.199406E-16	2.869689E-18
4.870000E+03	1.194885E-16	2.967577E-18
4.880000E+03	1.190731E-16	3.065089E-18
4.890000E+03	1.187026E-16	3.159937E-18
4.900000E+03	1.183829E-16	3.250725E-18
4.910000E+03	1.181219E-16	3.336803E-18
4.920000E+03	1.179241E-16	3.418016E-18
4.930000E+03	1.177916E-16	3.494541E-18
4.940000E+03	1.177284E-16	3.566782E-18
4.950000E+03	1.177330E-16	3.635175E-18
4.960000E+03	1.178074E-16	3.700416E-18
4.970000E+03	1.179512E-16	3.763125E-18
4.980000E+03	1.181612E-16	3.823888E-18
4.990000E+03	1.184399E-16	3.883467E-18
5.000000E+03	1.187848E-16	3.942301E-18
5.010000E+03	1.191970E-16	4.000879E-18
5.020000E+03	1.196766E-16	4.059587E-18
5.030000E+03	1.202230E-16	4.118589E-18
5.040000E+03	1.208381E-16	4.178067E-18
5.050000E+03	1.215225E-16	4.238158E-18
5.060000E+03	1.222755E-16	4.298882E-18
5.070000E+03	1.230988E-16	4.360366E-18
5.080000E+03	1.239915E-16	4.422705E-18
5.090000E+03	1.249547E-16	4.486047E-18
5.100000E+03	1.259884E-16	4.550549E-18
5.110000E+03	1.270898E-16	4.616316E-18
5.120000E+03	1.282627E-16	4.683616E-18
5.130000E+03	1.295031E-16	4.752466E-18
5.140000E+03	1.308122E-16	4.823066E-18
5.150000E+03	1.321897E-16	4.895469E-18
5.160000E+03	1.336366E-16	4.969769E-18
5.170000E+03	1.351496E-16	5.045909E-18
5.180000E+03	1.367281E-16	5.123829E-18
5.190000E+03	1.383739E-16	5.203575E-18
5.200000E+03	1.400819E-16	5.284967E-18
5.210000E+03	1.418538E-16	5.368029E-18
5.220000E+03	1.436870E-16	5.452662E-18
5.230000E+03	1.455800E-16	5.538844E-18
5.240000E+03	1.475314E-16	5.626479E-18
5.250000E+03	1.495384E-16	5.715436E-18
5.260000E+03	1.516008E-16	5.805732E-18
5.270000E+03	1.537158E-16	5.897221E-18
5.280000E+03	1.558839E-16	5.989911E-18
5.290000E+03	1.581009E-16	6.083679E-18
5.300000E+03	1.603678E-16	6.178525E-18
5.310000E+03	1.626842E-16	6.274437E-18
5.320000E+03	1.650481E-16	6.371404E-18
5.330000E+03	1.674589E-16	6.469433E-18
5.340000E+03	1.699174E-16	6.568647E-18
5.350000E+03	1.724191E-16	6.668986E-18
5.360000E+03	1.749615E-16	6.770391E-18
5.370000E+03	1.775431E-16	6.872844E-18
5.380000E+03	1.801596E-16	6.976204E-18
5.390000E+03	1.828008E-16	7.079983E-18
5.400000E+03	1.854606E-16	7.183824E-18
5.410000E+03	1.881274E-16	7.287171E-18
5.420000E+03	1.907920E-16	7.389431E-18
5.430000E+03	1.934378E-16	7.489755E-18
5.440000E+03	1.960530E-16	7.587521E-18
5.450000E+03	1.986213E-16	7.681863E-18
5.460000E+03	2.011257E-16	7.771969E-18
5.470000E+03	2.035511E-16	7.857209E-18
5.480000E+03	2.058806E-16	7.936893E-18
5.490000E+03	2.080995E-16	8.010548E-18
5.500000E+03	2.101956E-16	8.077912E-18
5.510000E+03	2.121549E-16	8.138649E-18
5.520000E+03	2.139638E-16	8.192529E-18
5.530000E+03	2.156112E-16	8.239476E-18
5.540000E+03	2.170799E-16	8.279067E-18
5.550000E+03	2.183618E-16	8.311262E-18
5.560000E+03	2.194453E-16	8.335918E-18
5.570000E+03	2.203176E-16	8.352723E-18
5.580000E+03	2.209715E-16	8.361614E-18
5.590000E+03	2.213968E-16	8.362452E-18
5.600000E+03	2.215900E-16	8.355236E-18
5.610000E+03	2.215472E-16	8.339981E-18
5.620000E+03	2.212665E-16	8.316798E-18
5.630000E+03	2.207486E-16	8.285745E-18
5.640000E+03	2.199938E-16	8.246883E-18
5.650000E+03	2.190117E-16	8.200610E-18
5.660000E+03	2.178073E-16	8.147004E-18
5.670000E+03	2.163901E-16	8.086318E-18
5.680000E+03	2.147735E-16	8.018994E-18
5.690000E+03	2.129682E-16	7.945281E-18
5.700000E+03	2.109887E-16	7.865626E-18
5.710000E+03	2.088549E-16	7.780750E-18
5.720000E+03	2.065791E-16	7.691017E-18
5.730000E+03	2.041784E-16	7.597045E-18
5.740000E+03	2.016750E-16	7.499670E-18
5.750000E+03	1.990845E-16	7.399382E-18
5.760000E+03	1.964250E-16	7.296782E-18
5.770000E+03	1.937159E-16	7.192565E-18
5.780000E+03	1.909700E-16	7.087064E-18
5.790000E+03	1.882098E-16	6.980993E-18
5.800000E+03	1.854461E-16	6.874664E-18
5.810000E+03	1.826928E-16	6.768377E-18
5.820000E+03	1.799664E-16	6.662545E-18
5.830000E+03	1.772762E-16	6.557309E-18
5.840000E+03	1.746321E-16	6.452697E-18
5.850000E+03	1.720426E-16	6.348694E-18
5.860000E+03	1.695172E-16	6.245318E-18
5.870000E+03	1.670617E-16	6.142358E-18
5.880000E+03	1.646792E-16	6.039560E-18
5.890000E+03	1.623753E-16	5.936900E-18
5.900000E+03	1.601544E-16	5.834373E-18
5.910000E+03	1.580164E-16	5.731972E-18
5.920000E+03	1.559620E-16	5.629868E-18
5.930000E+03	1.539928E-16	5.528299E-18
5.940000E+03	1.521057E-16	5.427464E-18
5.950000E+03	1.503026E-16	5.327794E-18
5.960000E+03	1.485793E-16	5.229461E-18
5.970000E+03	1.469330E-16	5.132727E-18
5.980000E+03	1.453606E-16	5.037879E-18
5.990000E+03	1.438609E-16	4.945170E-18
6.000000E+03	1.424308E-16	4.854813E-18
6.010000E+03	1.410655E-16	4.766967E-18
6.020000E+03	1.397654E-16	4.681839E-18
6.030000E+03	1.385247E-16	4.599409E-18
6.040000E+03	1.373441E-16	4.519854E-18
6.050000E+03	1.362185E-16	4.442990E-18
6.060000E+03	1.351494E-16	4.368825E-18
6.070000E+03	1.341338E-16	4.297180E-18
6.080000E+03	1.331706E-16	4.227788E-18
6.090000E+03	1.322605E-16	4.160429E-18
6.100000E+03	1.314015E-16	4.094810E-18
6.110000E+03	1.305950E-16	4.030659E-18
6.120000E+03	1.298426E-16	3.967773E-18
6.130000E+03	1.291415E-16	3.905893E-18
6.140000E+03	1.284970E-16	3.844992E-18
6.150000E+03	1.279099E-16	3.785002E-18
6.160000E+03	1.273827E-16	3.725987E-18
6.170000E+03	1.269165E-16	3.667916E-18
6.180000E+03	1.265109E-16	3.610770E-18
6.190000E+03	1.261691E-16	3.554636E-18
6.200000E+03	1.258889E-16	3.499318E-18
6.210000E+03	1.256717E-16	3.444696E-18
6.220000E+03	1.255154E-16	3.390521E-18
6.230000E+03	1.254241E-16	3.336523E-18
6.240000E+03	1.253971E-16	3.282293E-18
6.250000E+03	1.254352E-16	3.227513E-18
6.260000E+03	1.255392E-16	3.171795E-18
6.270000E+03	1.257100E-16	3.114818E-18
6.280000E+03	1.259494E-16	3.056310E-18
6.290000E+03	1.262539E-16	2.995698E-18
6.300000E+03	1.266276E-16	2.932580E-18
6.310000E+03	1.270659E-16	2.866277E-18
6.320000E+03	1.275686E-16	2.795952E-18
6.330000E+03	1.281330E-16	2.720745E-18
6.340000E+03	1.287565E-16	2.639951E-18
6.350000E+03	1.294359E-16	2.552987E-18
6.360000E+03	1.301697E-16	2.459830E-18
6.370000E+03	1.309535E-16	2.361231E-18
6.380000E+03	1.317882E-16	2.259041E-18
6.390000E+03	1.326686E-16	2.156533E-18
6.400000E+03	1.335946E-16	2.059006E-18
6.410000E+03	1.345654E-16	1.973729E-18
6.420000E+03	1.355799E-16	1.910030E-18
6.430000E+03	1.366393E-16	1.878289E-18
6.440000E+03	1.377372E-16	1.887353E-18
6.450000E+03	1.388784E-16	1.940396E-18
6.460000E+03	1.400563E-16	2.032543E-18
6.470000E+03	1.412687E-16	2.155407E-18
6.480000E+03	1.425125E-16	2.300081E-18
6.490000E+03	1.437823E-16	2.458676E-18
6.500000E+03	1.450681E-16	2.624624E-18
6.510000E+03	1.463574E-16	2.792925E-18
6.520000E+03	1.476383E-16	2.959919E-18
6.530000E+03	1.488992E-16	3.122763E-18
6.540000E+03	1.501218E-16	3.279277E-18
6.550000E+03	1.512958E-16	3.428189E-18
6.560000E+03	1.524008E-16	3.568467E-18
6.570000E+03	1.534277E-16	3.699845E-18
6.580000E+03	1.543642E-16	3.822420E-18
6.590000E+03	1.551971E-16	3.936430E-18
6.600000E+03	1.559166E-16	4.042414E-18
6.610000E+03	1.565168E-16	4.141060E-18
6.620000E+03	1.569885E-16	4.232734E-18
6.630000E+03	1.573288E-16	4.317886E-18
6.640000E+03	1.575311E-16	4.396825E-18
6.650000E+03	1.575971E-16	4.469865E-18
6.660000E+03	1.575204E-16	4.537061E-18
6.670000E+03	1.573026E-16	4.598718E-18
6.680000E+03	1.569447E-16	4.654991E-18
6.690000E+03	1.564491E-16	4.706095E-18
6.700000E+03	1.558212E-16	4.752372E-18
6.710000E+03	1.550609E-16	4.793843E-18
6.720000E+03	1.541780E-16	4.830834E-18
6.730000E+03	1.531785E-16	4.863531E-18
6.740000E+03	1.520666E-16	4.891873E-18
6.750000E+03	1.508520E-16	4.915925E-18
6.760000E+03	1.495397E-16	4.935568E-18
6.770000E+03	1.481400E-16	4.950663E-18
6.780000E+03	1.466607E-16	4.961005E-18
6.790000E+03	1.451103E-16	4.966467E-18
6.800000E+03	1.434974E-16	4.966930E-18
6.810000E+03	1.418287E-16	4.962333E-18
6.820000E+03	1.401180E-16	4.953039E-18
6.830000E+03	1.383726E-16	4.939285E-18
6.840000E+03	1.366022E-16	4.921534E-18
6.850000E+03	1.348143E-16	4.900246E-18
6.860000E+03	1.330252E-16	4.876131E-18
6.870000E+03	1.312378E-16	4.849445E-18
6.880000E+03	1.294652E-16	4.820847E-18
6.890000E+03	1.277110E-16	4.790587E-18
6.900000E+03	1.259864E-16	4.759221E-18
6.910000E+03	1.242974E-16	4.727120E-18
6.920000E+03	1.226444E-16	4.694378E-18
6.930000E+03	1.210353E-16	4.661375E-18
6.940000E+03	1.194729E-16	4.628323E-18
6.950000E+03	1.179556E-16	4.595195E-18
6.960000E+03	1.164892E-16	4.562273E-18
6.970000E+03	1.150750E-16	4.529695E-18
6.980000E+03	1.137123E-16	4.497465E-18
6.990000E+03	1.124020E-16	4.465684E-18
7.000000E+03	1.111449E-16	4.434485E-18
7.010000E+03	1.099434E-16	4.404045E-18
7.020000E+03	1.087961E-16	4.374422E-18
7.030000E+03	1.077051E-16	4.345851E-18
7.040000E+03	1.066686E-16	4.318369E-18
7.050000E+03	1.056882E-16	4.292180E-18
7.060000E+03	1.047618E-16	4.267340E-18
7.070000E+03	1.038887E-16	4.243914E-18
7.080000E+03	1.030702E-16	4.222047E-18
7.090000E+03	1.023036E-16	4.201734E-18
7.100000E+03	1.015899E-16	4.183071E-18
7.110000E+03	1.009263E-16	4.166001E-18
7.120000E+03	1.003139E-16	4.150619E-18
7.130000E+03	9.975162E-17	4.136871E-18
7.140000E+03	9.923669E-17	4.124622E-18
7.150000E+03	9.876811E-17	4.113805E-18
7.160000E+03	9.834842E-17	4.104445E-18
7.170000E+03	9.797101E-17	4.096184E-18
7.180000E+03	9.764008E-17	4.089127E-18
7.190000E+03	9.735238E-17	4.083032E-18
7.200000E+03	9.710454E-17	4.077664E-18
7.210000E+03	9.689852E-17	4.073037E-18
7.220000E+03	9.672874E-17	4.068819E-18
7.230000E+03	9.659680E-17	4.065003E-18
7.240000E+03	9.649861E-17	4.061360E-18
7.250000E+03	9.643360E-17	4.057779E-18
7.260000E+03	9.639729E-17	4.054004E-18
7.270000E+03	9.638881E-17	4.049952E-18
7.280000E+03	9.640520E-17	4.045433E-18
7.290000E+03	9.644531E-17	4.040363E-18
7.300000E+03	9.650407E-17	4.034537E-18
7.310000E+03	9.658007E-17	4.027904E-18
7.320000E+03	9.666996E-17	4.020381E-18
7.330000E+03	9.677029E-17	4.011932E-18
7.340000E+03	9.687951E-17	4.002600E-18
7.350000E+03	9.699609E-17	3.992473E-18
7.360000E+03	9.711450E-17	3.981513E-18
7.370000E+03	9.723312E-17	3.969823E-18
7.380000E+03	9.734833E-17	3.957456E-18
7.390000E+03	9.745861E-17	3.944585E-18
7.400000E+03	9.756051E-17	3.931286E-18
7.410000E+03	9.765075E-17	3.917669E-18
7.420000E+03	9.772416E-17	3.903787E-18
7.430000E+03	9.778202E-17	3.889890E-18
7.440000E+03	9.781765E-17	3.875914E-18
7.450000E+03	9.782876E-17	3.861951E-18
7.460000E+03	9.781552E-17	3.848101E-18
7.470000E+03	9.777431E-17	3.834289E-18
7.480000E+03	9.770187E-17	3.820430E-18
7.490000E+03	9.759757E-17	3.806448E-18
7.500000E+03	9.745913E-17	3.792168E-18
7.510000E+03	9.728900E-17	3.777551E-18
7.520000E+03	9.708397E-17	3.762216E-18
7.530000E+03	9.684774E-17	3.745997E-18
7.540000E+03	9.658255E-17	3.728623E-18
7.550000E+03	9.628728E-17	3.709582E-18
7.560000E+03	9.596558E-17	3.688528E-18
7.570000E+03	9.562351E-17	3.665231E-18
7.580000E+03	9.526532E-17	3.639378E-18
7.590000E+03	9.489115E-17	3.610588E-18
7.600000E+03	9.450728E-17	3.578874E-18
7.610000E+03	9.411758E-17	3.544309E-18
7.620000E+03	9.372561E-17	3.507141E-18
7.630000E+03	9.333449E-17	3.467780E-18
7.640000E+03	9.294463E-17	3.426656E-18
7.650000E+03	9.256012E-17	3.384437E-18
7.660000E+03	9.218026E-17	3.341613E-18
7.670000E+03	9.180570E-17	3.298586E-18
7.680000E+03	9.143871E-17	3.255727E-18
7.690000E+03	9.107931E-17	3.213189E-18
7.700000E+03	9.072547E-17	3.170822E-18
7.710000E+03	9.037718E-17	3.128451E-18
7.720000E+03	9.003649E-17	3.085955E-18
7.730000E+03	8.970324E-17	3.043111E-18
7.740000E+03	8.937510E-17	2.999685E-18
7.750000E+03	8.905155E-17	2.955590E-18
7.760000E+03	8.873369E-17	2.910835E-18
