#wls	flux	fluxerr
1.600000E+03	2.545917E-18	3.034972E-18
1.640000E+03	2.563443E-18	3.024463E-18
1.680000E+03	2.582208E-18	3.014045E-18
1.720000E+03	2.602757E-18	3.004263E-18
1.760000E+03	2.624636E-18	2.994489E-18
1.800000E+03	2.648918E-18	2.985839E-18
1.840000E+03	2.675160E-18	2.977675E-18
1.880000E+03	2.703951E-18	2.970517E-18
1.920000E+03	2.735375E-18	2.964294E-18
1.960000E+03	2.770055E-18	2.959504E-18
2.000000E+03	2.807561E-18	2.955489E-18
2.040000E+03	2.848540E-18	2.952726E-18
2.080000E+03	2.893115E-18	2.951111E-18
2.120000E+03	2.941973E-18	2.951090E-18
2.160000E+03	2.995273E-18	2.952529E-18
2.200000E+03	3.052609E-18	2.954730E-18
2.240000E+03	3.115292E-18	2.958644E-18
2.280000E+03	3.182358E-18	2.962999E-18
2.320000E+03	3.255167E-18	2.968701E-18
2.360000E+03	3.333946E-18	2.975535E-18
2.400000E+03	3.417719E-18	2.982206E-18
2.440000E+03	3.508541E-18	2.990070E-18
2.480000E+03	3.605449E-18	2.997796E-18
2.520000E+03	3.708695E-18	3.005108E-18
2.560000E+03	3.819184E-18	3.012218E-18
2.600000E+03	3.937869E-18	3.019287E-18
2.640000E+03	4.063766E-18	3.024943E-18
2.680000E+03	4.197841E-18	3.029307E-18
2.720000E+03	4.341110E-18	3.032444E-18
2.760000E+03	4.493947E-18	3.033891E-18
2.800000E+03	4.656024E-18	3.032696E-18
2.840000E+03	4.829851E-18	3.029726E-18
2.880000E+03	5.015885E-18	3.024377E-18
2.920000E+03	5.214586E-18	3.016020E-18
2.960000E+03	5.428678E-18	3.005255E-18
3.000000E+03	5.659490E-18	2.991704E-18
3.010000E+03	5.719656E-18	2.987668E-18
3.020000E+03	5.781834E-18	2.983869E-18
3.030000E+03	5.844483E-18	2.979488E-18
3.040000E+03	5.909170E-18	2.975306E-18
3.050000E+03	5.975130E-18	2.970908E-18
3.060000E+03	6.042372E-18	2.966278E-18
3.070000E+03	6.110908E-18	2.961400E-18
3.080000E+03	6.181543E-18	2.956639E-18
3.090000E+03	6.252698E-18	2.951214E-18
3.100000E+03	6.326782E-18	2.946243E-18
3.110000E+03	6.401404E-18	2.940574E-18
3.120000E+03	6.478184E-18	2.934939E-18
3.130000E+03	6.557142E-18	2.929310E-18
3.140000E+03	6.637479E-18	2.923300E-18
3.150000E+03	6.720023E-18	2.917249E-18
3.160000E+03	6.804794E-18	2.911131E-18
3.170000E+03	6.890980E-18	2.904569E-18
3.180000E+03	6.980254E-18	2.898239E-18
3.190000E+03	7.070970E-18	2.891418E-18
3.200000E+03	7.163975E-18	2.884428E-18
3.210000E+03	7.260128E-18	2.877578E-18
3.220000E+03	7.358607E-18	2.870496E-18
3.230000E+03	7.458576E-18	2.862831E-18
3.240000E+03	7.562603E-18	2.855535E-18
3.250000E+03	7.669005E-18	2.847920E-18
3.260000E+03	7.777795E-18	2.839960E-18
3.270000E+03	7.889850E-18	2.831939E-18
3.280000E+03	8.005190E-18	2.823818E-18
3.290000E+03	8.122963E-18	2.815259E-18
3.300000E+03	8.244053E-18	2.806534E-18
3.310000E+03	8.369357E-18	2.797901E-18
3.320000E+03	8.498020E-18	2.789020E-18
3.330000E+03	8.629167E-18	2.779570E-18
3.340000E+03	8.765473E-18	2.770373E-18
3.350000E+03	8.905183E-18	2.760815E-18
3.360000E+03	9.048304E-18	2.750863E-18
3.370000E+03	9.195745E-18	2.740753E-18
3.380000E+03	9.347522E-18	2.730441E-18
3.390000E+03	9.503646E-18	2.719884E-18
3.400000E+03	9.664128E-18	2.709041E-18
3.410000E+03	9.828975E-18	2.697873E-18
3.420000E+03	9.999109E-18	2.686590E-18
3.430000E+03	1.017362E-17	2.674899E-18
3.440000E+03	1.035343E-17	2.663006E-18
3.450000E+03	1.053761E-17	2.650632E-18
3.460000E+03	1.072801E-17	2.638211E-18
3.470000E+03	1.092371E-17	2.625466E-18
3.480000E+03	1.112375E-17	2.612141E-18
3.490000E+03	1.133094E-17	2.598869E-18
3.500000E+03	1.154338E-17	2.585175E-18
3.510000E+03	1.176104E-17	2.571036E-18
3.520000E+03	1.198484E-17	2.556642E-18
3.530000E+03	1.221571E-17	2.542167E-18
3.540000E+03	1.245169E-17	2.527194E-18
3.550000E+03	1.269466E-17	2.512105E-18
3.560000E+03	1.294361E-17	2.496699E-18
3.570000E+03	1.319943E-17	2.481165E-18
3.580000E+03	1.346206E-17	2.465504E-18
3.590000E+03	1.373046E-17	2.449554E-18
3.600000E+03	1.400647E-17	2.433687E-18
3.610000E+03	1.428905E-17	2.417757E-18
3.620000E+03	1.457905E-17	2.401968E-18
3.630000E+03	1.487538E-17	2.386204E-18
3.640000E+03	1.517890E-17	2.370685E-18
3.650000E+03	1.548848E-17	2.355328E-18
3.660000E+03	1.580594E-17	2.340512E-18
3.670000E+03	1.613013E-17	2.326174E-18
3.680000E+03	1.646185E-17	2.312554E-18
3.690000E+03	1.679994E-17	2.299615E-18
3.700000E+03	1.714516E-17	2.287608E-18
3.710000E+03	1.749631E-17	2.276520E-18
3.720000E+03	1.785514E-17	2.266733E-18
3.730000E+03	1.822039E-17	2.258237E-18
3.740000E+03	1.859181E-17	2.251153E-18
3.750000E+03	1.896910E-17	2.245599E-18
3.760000E+03	1.935297E-17	2.241799E-18
3.770000E+03	1.974309E-17	2.239843E-18
3.780000E+03	2.013814E-17	2.239695E-18
3.790000E+03	2.053975E-17	2.241635E-18
3.800000E+03	2.094556E-17	2.245481E-18
3.810000E+03	2.135718E-17	2.251459E-18
3.820000E+03	2.177319E-17	2.259447E-18
3.830000E+03	2.219415E-17	2.269509E-18
3.840000E+03	2.261862E-17	2.281473E-18
3.850000E+03	2.304612E-17	2.295249E-18
3.860000E+03	2.347714E-17	2.310821E-18
3.870000E+03	2.391115E-17	2.328047E-18
3.880000E+03	2.434759E-17	2.346772E-18
3.890000E+03	2.478491E-17	2.366730E-18
3.900000E+03	2.522347E-17	2.387834E-18
3.910000E+03	2.566363E-17	2.409986E-18
3.920000E+03	2.610276E-17	2.432808E-18
3.930000E+03	2.654118E-17	2.456202E-18
3.940000E+03	2.697913E-17	2.480066E-18
3.950000E+03	2.741398E-17	2.504042E-18
3.960000E+03	2.784595E-17	2.528049E-18
3.970000E+03	2.827431E-17	2.551926E-18
3.980000E+03	2.869927E-17	2.575615E-18
3.990000E+03	2.911822E-17	2.598818E-18
4.000000E+03	2.953045E-17	2.621430E-18
4.010000E+03	2.993716E-17	2.643528E-18
4.020000E+03	3.033586E-17	2.664879E-18
4.030000E+03	3.072596E-17	2.685439E-18
4.040000E+03	3.110788E-17	2.705268E-18
4.050000E+03	3.148114E-17	2.724360E-18
4.060000E+03	3.184359E-17	2.742584E-18
4.070000E+03	3.219587E-17	2.760061E-18
4.080000E+03	3.253783E-17	2.776853E-18
4.090000E+03	3.286855E-17	2.792966E-18
4.100000E+03	3.318810E-17	2.808497E-18
4.110000E+03	3.349756E-17	2.823625E-18
4.120000E+03	3.379554E-17	2.838321E-18
4.130000E+03	3.408252E-17	2.852708E-18
4.140000E+03	3.435910E-17	2.866906E-18
4.150000E+03	3.462680E-17	2.881098E-18
4.160000E+03	3.488403E-17	2.895189E-18
4.170000E+03	3.513255E-17	2.909347E-18
4.180000E+03	3.537344E-17	2.923657E-18
4.190000E+03	3.560706E-17	2.938126E-18
4.200000E+03	3.583463E-17	2.952812E-18
4.210000E+03	3.605595E-17	2.967633E-18
4.220000E+03	3.627315E-17	2.982683E-18
4.230000E+03	3.648762E-17	2.997982E-18
4.240000E+03	3.669930E-17	3.013418E-18
4.250000E+03	3.690892E-17	3.028934E-18
4.260000E+03	3.711864E-17	3.044590E-18
4.270000E+03	3.732918E-17	3.060322E-18
4.280000E+03	3.754122E-17	3.076066E-18
4.290000E+03	3.775541E-17	3.091761E-18
4.300000E+03	3.797240E-17	3.107347E-18
4.310000E+03	3.819415E-17	3.122881E-18
4.320000E+03	3.842049E-17	3.138255E-18
4.330000E+03	3.865189E-17	3.153420E-18
4.340000E+03	3.888876E-17	3.168331E-18
4.350000E+03	3.913276E-17	3.183055E-18
4.360000E+03	3.938280E-17	3.197443E-18
4.370000E+03	3.963970E-17	3.211507E-18
4.380000E+03	3.990418E-17	3.225261E-18
4.390000E+03	4.017489E-17	3.238555E-18
4.400000E+03	4.045361E-17	3.251499E-18
4.410000E+03	4.073877E-17	3.263933E-18
4.420000E+03	4.102998E-17	3.275800E-18
4.430000E+03	4.132796E-17	3.287130E-18
4.440000E+03	4.163200E-17	3.297845E-18
4.450000E+03	4.194128E-17	3.307854E-18
4.460000E+03	4.225543E-17	3.317105E-18
4.470000E+03	4.257328E-17	3.325486E-18
4.480000E+03	4.289355E-17	3.332875E-18
4.490000E+03	4.321663E-17	3.339284E-18
4.500000E+03	4.354090E-17	3.344570E-18
4.510000E+03	4.386461E-17	3.348584E-18
4.520000E+03	4.418710E-17	3.351267E-18
4.530000E+03	4.450695E-17	3.352506E-18
4.540000E+03	4.482262E-17	3.352193E-18
4.550000E+03	4.513248E-17	3.350221E-18
4.560000E+03	4.543479E-17	3.346489E-18
4.570000E+03	4.572836E-17	3.340956E-18
4.580000E+03	4.601070E-17	3.333502E-18
4.590000E+03	4.628115E-17	3.324163E-18
4.600000E+03	4.653719E-17	3.312862E-18
4.610000E+03	4.677633E-17	3.299551E-18
4.620000E+03	4.699856E-17	3.284383E-18
4.630000E+03	4.720090E-17	3.267325E-18
4.640000E+03	4.738232E-17	3.248505E-18
4.650000E+03	4.754131E-17	3.228040E-18
4.660000E+03	4.767652E-17	3.206079E-18
4.670000E+03	4.778739E-17	3.182842E-18
4.680000E+03	4.787240E-17	3.158499E-18
4.690000E+03	4.793085E-17	3.133289E-18
4.700000E+03	4.796290E-17	3.107513E-18
4.710000E+03	4.796779E-17	3.081418E-18
4.720000E+03	4.794621E-17	3.055344E-18
4.730000E+03	4.789797E-17	3.029567E-18
4.740000E+03	4.782319E-17	3.004372E-18
4.750000E+03	4.772398E-17	2.980152E-18
4.760000E+03	4.760042E-17	2.957144E-18
4.770000E+03	4.745460E-17	2.935679E-18
4.780000E+03	4.728822E-17	2.916019E-18
4.790000E+03	4.710325E-17	2.898395E-18
4.800000E+03	4.690239E-17	2.883021E-18
4.810000E+03	4.668739E-17	2.869989E-18
4.820000E+03	4.646180E-17	2.859434E-18
4.830000E+03	4.622872E-17	2.851399E-18
4.840000E+03	4.599019E-17	2.845814E-18
4.850000E+03	4.574988E-17	2.842672E-18
4.860000E+03	4.551090E-17	2.841910E-18
4.870000E+03	4.527518E-17	2.843386E-18
4.880000E+03	4.504565E-17	2.847017E-18
4.890000E+03	4.482506E-17	2.852722E-18
4.900000E+03	4.461552E-17	2.860395E-18
4.910000E+03	4.441945E-17	2.869967E-18
4.920000E+03	4.423859E-17	2.881349E-18
4.930000E+03	4.407502E-17	2.894493E-18
4.940000E+03	4.392911E-17	2.909263E-18
4.950000E+03	4.380353E-17	2.925692E-18
4.960000E+03	4.369878E-17	2.943690E-18
4.970000E+03	4.361570E-17	2.963205E-18
4.980000E+03	4.355544E-17	2.984221E-18
4.990000E+03	4.351853E-17	3.006693E-18
5.000000E+03	4.350486E-17	3.030545E-18
5.010000E+03	4.351568E-17	3.055805E-18
5.020000E+03	4.355068E-17	3.082401E-18
5.030000E+03	4.360995E-17	3.110300E-18
5.040000E+03	4.369398E-17	3.139505E-18
5.050000E+03	4.380225E-17	3.169957E-18
5.060000E+03	4.393564E-17	3.201701E-18
5.070000E+03	4.409258E-17	3.234615E-18
5.080000E+03	4.427436E-17	3.268792E-18
5.090000E+03	4.448031E-17	3.304187E-18
5.100000E+03	4.470975E-17	3.340761E-18
5.110000E+03	4.496343E-17	3.378584E-18
5.120000E+03	4.524013E-17	3.417587E-18
5.130000E+03	4.554058E-17	3.457850E-18
5.140000E+03	4.586399E-17	3.499343E-18
5.150000E+03	4.621005E-17	3.542075E-18
5.160000E+03	4.657843E-17	3.586054E-18
5.170000E+03	4.696873E-17	3.631286E-18
5.180000E+03	4.738051E-17	3.677773E-18
5.190000E+03	4.781375E-17	3.725551E-18
5.200000E+03	4.826738E-17	3.774572E-18
5.210000E+03	4.874071E-17	3.824814E-18
5.220000E+03	4.923294E-17	3.876245E-18
5.230000E+03	4.974316E-17	3.928818E-18
5.240000E+03	5.027032E-17	3.982467E-18
5.250000E+03	5.081319E-17	4.037110E-18
5.260000E+03	5.137094E-17	4.092681E-18
5.270000E+03	5.194094E-17	4.148969E-18
5.280000E+03	5.252252E-17	4.205905E-18
5.290000E+03	5.311265E-17	4.263224E-18
5.300000E+03	5.370974E-17	4.320766E-18
5.310000E+03	5.431146E-17	4.378302E-18
5.320000E+03	5.491530E-17	4.435582E-18
5.330000E+03	5.551855E-17	4.492332E-18
5.340000E+03	5.611835E-17	4.548259E-18
5.350000E+03	5.671109E-17	4.603008E-18
5.360000E+03	5.729360E-17	4.656254E-18
5.370000E+03	5.786379E-17	4.707765E-18
5.380000E+03	5.841653E-17	4.757062E-18
5.390000E+03	5.894960E-17	4.803912E-18
5.400000E+03	5.945960E-17	4.847992E-18
5.410000E+03	5.994252E-17	4.888947E-18
5.420000E+03	6.039501E-17	4.926488E-18
5.430000E+03	6.081380E-17	4.960357E-18
5.440000E+03	6.119577E-17	4.990325E-18
5.450000E+03	6.153797E-17	5.016199E-18
5.460000E+03	6.183764E-17	5.037830E-18
5.470000E+03	6.209228E-17	5.055106E-18
5.480000E+03	6.229902E-17	5.067911E-18
5.490000E+03	6.245656E-17	5.076271E-18
5.500000E+03	6.256270E-17	5.080148E-18
5.510000E+03	6.261683E-17	5.079644E-18
5.520000E+03	6.261748E-17	5.074791E-18
5.530000E+03	6.256422E-17	5.065696E-18
5.540000E+03	6.245763E-17	5.052538E-18
5.550000E+03	6.229745E-17	5.035411E-18
5.560000E+03	6.208572E-17	5.014571E-18
5.570000E+03	6.182173E-17	4.990030E-18
5.580000E+03	6.150888E-17	4.962107E-18
5.590000E+03	6.114843E-17	4.930921E-18
5.600000E+03	6.074259E-17	4.896649E-18
5.610000E+03	6.029445E-17	4.859513E-18
5.620000E+03	5.980556E-17	4.819599E-18
5.630000E+03	5.927949E-17	4.777140E-18
5.640000E+03	5.871997E-17	4.732373E-18
5.650000E+03	5.812913E-17	4.685397E-18
5.660000E+03	5.751153E-17	4.636506E-18
5.670000E+03	5.686952E-17	4.585813E-18
5.680000E+03	5.620774E-17	4.533618E-18
5.690000E+03	5.552863E-17	4.480043E-18
5.700000E+03	5.483627E-17	4.425345E-18
5.710000E+03	5.413414E-17	4.369739E-18
5.720000E+03	5.342514E-17	4.313393E-18
5.730000E+03	5.271261E-17	4.256517E-18
5.740000E+03	5.200029E-17	4.199353E-18
5.750000E+03	5.129076E-17	4.142057E-18
5.760000E+03	5.058745E-17	4.084855E-18
5.770000E+03	4.989215E-17	4.027842E-18
5.780000E+03	4.920795E-17	3.971223E-18
5.790000E+03	4.853724E-17	3.915148E-18
5.800000E+03	4.788218E-17	3.859754E-18
5.810000E+03	4.724428E-17	3.805124E-18
5.820000E+03	4.662575E-17	3.751405E-18
5.830000E+03	4.602721E-17	3.698618E-18
5.840000E+03	4.545087E-17	3.646917E-18
5.850000E+03	4.489735E-17	3.596336E-18
5.860000E+03	4.436712E-17	3.546899E-18
5.870000E+03	4.386127E-17	3.498691E-18
5.880000E+03	4.337987E-17	3.451719E-18
5.890000E+03	4.292361E-17	3.406049E-18
5.900000E+03	4.249221E-17	3.361675E-18
5.910000E+03	4.208520E-17	3.318582E-18
5.920000E+03	4.170316E-17	3.276844E-18
5.930000E+03	4.134490E-17	3.236398E-18
5.940000E+03	4.101031E-17	3.197265E-18
5.950000E+03	4.069832E-17	3.159392E-18
5.960000E+03	4.040814E-17	3.122749E-18
5.970000E+03	4.013925E-17	3.087320E-18
5.980000E+03	3.988987E-17	3.052991E-18
5.990000E+03	3.965972E-17	3.019754E-18
6.000000E+03	3.944689E-17	2.987477E-18
6.010000E+03	3.925101E-17	2.956135E-18
6.020000E+03	3.907017E-17	2.925584E-18
6.030000E+03	3.890326E-17	2.895732E-18
6.040000E+03	3.874996E-17	2.866541E-18
6.050000E+03	3.860853E-17	2.837863E-18
6.060000E+03	3.847846E-17	2.809634E-18
6.070000E+03	3.835896E-17	2.781764E-18
6.080000E+03	3.824939E-17	2.754171E-18
6.090000E+03	3.814886E-17	2.726751E-18
6.100000E+03	3.805776E-17	2.699489E-18
6.110000E+03	3.797511E-17	2.672273E-18
6.120000E+03	3.790158E-17	2.645104E-18
6.130000E+03	3.783648E-17	2.617894E-18
6.140000E+03	3.777999E-17	2.590613E-18
6.150000E+03	3.773277E-17	2.563269E-18
6.160000E+03	3.769446E-17	2.535803E-18
6.170000E+03	3.766476E-17	2.508165E-18
6.180000E+03	3.764382E-17	2.480340E-18
6.190000E+03	3.763251E-17	2.452366E-18
6.200000E+03	3.763135E-17	2.424262E-18
6.210000E+03	3.764158E-17	2.396096E-18
6.220000E+03	3.766442E-17	2.367940E-18
6.230000E+03	3.769993E-17	2.339798E-18
6.240000E+03	3.774884E-17	2.311728E-18
6.250000E+03	3.781183E-17	2.283790E-18
6.260000E+03	3.788912E-17	2.256036E-18
6.270000E+03	3.798048E-17	2.228504E-18
6.280000E+03	3.808634E-17	2.201297E-18
6.290000E+03	3.820704E-17	2.174533E-18
6.300000E+03	3.834171E-17	2.148293E-18
6.310000E+03	3.849089E-17	2.122772E-18
6.320000E+03	3.865429E-17	2.098153E-18
6.330000E+03	3.883114E-17	2.074633E-18
6.340000E+03	3.902173E-17	2.052507E-18
6.350000E+03	3.922469E-17	2.032023E-18
6.360000E+03	3.944015E-17	2.013545E-18
6.370000E+03	3.966731E-17	1.997422E-18
6.380000E+03	3.990491E-17	1.984003E-18
6.390000E+03	4.015274E-17	1.973704E-18
6.400000E+03	4.040930E-17	1.966873E-18
6.410000E+03	4.067378E-17	1.963875E-18
6.420000E+03	4.094440E-17	1.964983E-18
6.430000E+03	4.121969E-17	1.970424E-18
6.440000E+03	4.149889E-17	1.980370E-18
6.450000E+03	4.177899E-17	1.994785E-18
6.460000E+03	4.205856E-17	2.013594E-18
6.470000E+03	4.233517E-17	2.036573E-18
6.480000E+03	4.260673E-17	2.063422E-18
6.490000E+03	4.287061E-17	2.093742E-18
6.500000E+03	4.312408E-17	2.127073E-18
6.510000E+03	4.336570E-17	2.162981E-18
6.520000E+03	4.359359E-17	2.200986E-18
6.530000E+03	4.380632E-17	2.240622E-18
6.540000E+03	4.400111E-17	2.281353E-18
6.550000E+03	4.417662E-17	2.322725E-18
6.560000E+03	4.433111E-17	2.364280E-18
6.570000E+03	4.446244E-17	2.405558E-18
6.580000E+03	4.456859E-17	2.446126E-18
6.590000E+03	4.464809E-17	2.485606E-18
6.600000E+03	4.469915E-17	2.523630E-18
6.610000E+03	4.472054E-17	2.559889E-18
6.620000E+03	4.470978E-17	2.594029E-18
6.630000E+03	4.466645E-17	2.625841E-18
6.640000E+03	4.458884E-17	2.655070E-18
6.650000E+03	4.447644E-17	2.681553E-18
6.660000E+03	4.432845E-17	2.705136E-18
6.670000E+03	4.414436E-17	2.725700E-18
6.680000E+03	4.392341E-17	2.743129E-18
6.690000E+03	4.366666E-17	2.757430E-18
6.700000E+03	4.337403E-17	2.768550E-18
6.710000E+03	4.304581E-17	2.776467E-18
6.720000E+03	4.268413E-17	2.781277E-18
6.730000E+03	4.229007E-17	2.783016E-18
6.740000E+03	4.186603E-17	2.781805E-18
6.750000E+03	4.141381E-17	2.777733E-18
6.760000E+03	4.093605E-17	2.770942E-18
6.770000E+03	4.043611E-17	2.761631E-18
6.780000E+03	3.991666E-17	2.749954E-18
6.790000E+03	3.938148E-17	2.736149E-18
6.800000E+03	3.883354E-17	2.720398E-18
6.810000E+03	3.827677E-17	2.702959E-18
6.820000E+03	3.771420E-17	2.684029E-18
6.830000E+03	3.715011E-17	2.663895E-18
6.840000E+03	3.658650E-17	2.642688E-18
6.850000E+03	3.602776E-17	2.620714E-18
6.860000E+03	3.547597E-17	2.598118E-18
6.870000E+03	3.493424E-17	2.575124E-18
6.880000E+03	3.440502E-17	2.551911E-18
6.890000E+03	3.389048E-17	2.528648E-18
6.900000E+03	3.339215E-17	2.505460E-18
6.910000E+03	3.291208E-17	2.482518E-18
6.920000E+03	3.245168E-17	2.459953E-18
6.930000E+03	3.201172E-17	2.437852E-18
6.940000E+03	3.159354E-17	2.416351E-18
6.950000E+03	3.119750E-17	2.395517E-18
6.960000E+03	3.082489E-17	2.375496E-18
6.970000E+03	3.047501E-17	2.356281E-18
6.980000E+03	3.014884E-17	2.338003E-18
6.990000E+03	2.984652E-17	2.320727E-18
7.000000E+03	2.956772E-17	2.304490E-18
7.010000E+03	2.931240E-17	2.289351E-18
7.020000E+03	2.908078E-17	2.275394E-18
7.030000E+03	2.887236E-17	2.262645E-18
7.040000E+03	2.868691E-17	2.251156E-18
7.050000E+03	2.852421E-17	2.240977E-18
7.060000E+03	2.838399E-17	2.232156E-18
7.070000E+03	2.826562E-17	2.224712E-18
7.080000E+03	2.816950E-17	2.218742E-18
7.090000E+03	2.809464E-17	2.214233E-18
7.100000E+03	2.804106E-17	2.211248E-18
7.110000E+03	2.800808E-17	2.209794E-18
7.120000E+03	2.799535E-17	2.209898E-18
7.130000E+03	2.800284E-17	2.211606E-18
7.140000E+03	2.802980E-17	2.214904E-18
7.150000E+03	2.807578E-17	2.219792E-18
7.160000E+03	2.814030E-17	2.226259E-18
7.170000E+03	2.822247E-17	2.234251E-18
7.180000E+03	2.832205E-17	2.243755E-18
7.190000E+03	2.843840E-17	2.254711E-18
7.200000E+03	2.857044E-17	2.267018E-18
7.210000E+03	2.871740E-17	2.280584E-18
7.220000E+03	2.887845E-17	2.295299E-18
7.230000E+03	2.905302E-17	2.311071E-18
7.240000E+03	2.923943E-17	2.327709E-18
7.250000E+03	2.943703E-17	2.345101E-18
7.260000E+03	2.964437E-17	2.363069E-18
7.270000E+03	2.986105E-17	2.381522E-18
7.280000E+03	3.008481E-17	2.400224E-18
7.290000E+03	3.031519E-17	2.419086E-18
7.300000E+03	3.055059E-17	2.437938E-18
7.310000E+03	3.079015E-17	2.456675E-18
7.320000E+03	3.103183E-17	2.475109E-18
7.330000E+03	3.127513E-17	2.493182E-18
7.340000E+03	3.151800E-17	2.510720E-18
7.350000E+03	3.175996E-17	2.527685E-18
7.360000E+03	3.199896E-17	2.543917E-18
7.370000E+03	3.223454E-17	2.559393E-18
7.380000E+03	3.246470E-17	2.573968E-18
7.390000E+03	3.268904E-17	2.587633E-18
7.400000E+03	3.290602E-17	2.600288E-18
7.410000E+03	3.311410E-17	2.611838E-18
7.420000E+03	3.331307E-17	2.622291E-18
7.430000E+03	3.350195E-17	2.631596E-18
7.440000E+03	3.367897E-17	2.639637E-18
7.450000E+03	3.384371E-17	2.646403E-18
7.460000E+03	3.399542E-17	2.651852E-18
7.470000E+03	3.413387E-17	2.655979E-18
7.480000E+03	3.425765E-17	2.658682E-18
7.490000E+03	3.436672E-17	2.659964E-18
7.500000E+03	3.446033E-17	2.659766E-18
7.510000E+03	3.453911E-17	2.658135E-18
7.520000E+03	3.460206E-17	2.654991E-18
7.530000E+03	3.464918E-17	2.650327E-18
7.540000E+03	3.468100E-17	2.644183E-18
7.550000E+03	3.469727E-17	2.636537E-18
7.560000E+03	3.469828E-17	2.627414E-18
7.570000E+03	3.468438E-17	2.616849E-18
7.580000E+03	3.465645E-17	2.604920E-18
7.590000E+03	3.461451E-17	2.591647E-18
7.600000E+03	3.455953E-17	2.577126E-18
7.610000E+03	3.449115E-17	2.561359E-18
7.620000E+03	3.441083E-17	2.544488E-18
7.630000E+03	3.431867E-17	2.526558E-18
7.640000E+03	3.421568E-17	2.507683E-18
7.650000E+03	3.410196E-17	2.487911E-18
7.660000E+03	3.397806E-17	2.467324E-18
7.670000E+03	3.384495E-17	2.446032E-18
7.680000E+03	3.370271E-17	2.424079E-18
7.690000E+03	3.355226E-17	2.401565E-18
7.700000E+03	3.339366E-17	2.378526E-18
7.710000E+03	3.322780E-17	2.355053E-18
7.720000E+03	3.305469E-17	2.331167E-18
7.730000E+03	3.287559E-17	2.306978E-18
7.740000E+03	3.269000E-17	2.282468E-18
7.750000E+03	3.249824E-17	2.257675E-18
7.760000E+03	3.230144E-17	2.232692E-18
