#wls	flux	fluxerr
1.600000E+03	2.828699E-18	3.396835E-18
1.640000E+03	2.860238E-18	3.400780E-18
1.680000E+03	2.893029E-18	3.404459E-18
1.720000E+03	2.928835E-18	3.409827E-18
1.760000E+03	2.966620E-18	3.415520E-18
1.800000E+03	3.007633E-18	3.422829E-18
1.840000E+03	3.050821E-18	3.430378E-18
1.880000E+03	3.098076E-18	3.440115E-18
1.920000E+03	3.148352E-18	3.450653E-18
1.960000E+03	3.202395E-18	3.462598E-18
2.000000E+03	3.260369E-18	3.475879E-18
2.040000E+03	3.322447E-18	3.490419E-18
2.080000E+03	3.389458E-18	3.506800E-18
2.120000E+03	3.461625E-18	3.524921E-18
2.160000E+03	3.539186E-18	3.544672E-18
2.200000E+03	3.622392E-18	3.565928E-18
2.240000E+03	3.712197E-18	3.589214E-18
2.280000E+03	3.808216E-18	3.613705E-18
2.320000E+03	3.911458E-18	3.639888E-18
2.360000E+03	4.022999E-18	3.668221E-18
2.400000E+03	4.142511E-18	3.697812E-18
2.440000E+03	4.270383E-18	3.728409E-18
2.480000E+03	4.408557E-18	3.761037E-18
2.520000E+03	4.556771E-18	3.794711E-18
2.560000E+03	4.716316E-18	3.829716E-18
2.600000E+03	4.888572E-18	3.866282E-18
2.640000E+03	5.073347E-18	3.903295E-18
2.680000E+03	5.272947E-18	3.941508E-18
2.720000E+03	5.488110E-18	3.980319E-18
2.760000E+03	5.720481E-18	4.019680E-18
2.800000E+03	5.971798E-18	4.059444E-18
2.840000E+03	6.243895E-18	4.099351E-18
2.880000E+03	6.539641E-18	4.139616E-18
2.920000E+03	6.860148E-18	4.179100E-18
2.960000E+03	7.210466E-18	4.218857E-18
3.000000E+03	7.592958E-18	4.257941E-18
3.010000E+03	7.693297E-18	4.267147E-18
3.020000E+03	7.796577E-18	4.276636E-18
3.030000E+03	7.902834E-18	4.286369E-18
3.040000E+03	8.011072E-18	4.295759E-18
3.050000E+03	8.121308E-18	4.304775E-18
3.060000E+03	8.234601E-18	4.313936E-18
3.070000E+03	8.349937E-18	4.322659E-18
3.080000E+03	8.468384E-18	4.331453E-18
3.090000E+03	8.589977E-18	4.340277E-18
3.100000E+03	8.714748E-18	4.349088E-18
3.110000E+03	8.841657E-18	4.357315E-18
3.120000E+03	8.971795E-18	4.365449E-18
3.130000E+03	9.105193E-18	4.373445E-18
3.140000E+03	9.241881E-18	4.381258E-18
3.150000E+03	9.381888E-18	4.388840E-18
3.160000E+03	9.525241E-18	4.396144E-18
3.170000E+03	9.673077E-18	4.403625E-18
3.180000E+03	9.823211E-18	4.410220E-18
3.190000E+03	9.977891E-18	4.416885E-18
3.200000E+03	1.013603E-17	4.423062E-18
3.210000E+03	1.029766E-17	4.428699E-18
3.220000E+03	1.046392E-17	4.434226E-18
3.230000E+03	1.063487E-17	4.439575E-18
3.240000E+03	1.080939E-17	4.444204E-18
3.250000E+03	1.098864E-17	4.448525E-18
3.260000E+03	1.117266E-17	4.452467E-18
3.270000E+03	1.136031E-17	4.455499E-18
3.280000E+03	1.155395E-17	4.458472E-18
3.290000E+03	1.175127E-17	4.460399E-18
3.300000E+03	1.195463E-17	4.462107E-18
3.310000E+03	1.216289E-17	4.463067E-18
3.320000E+03	1.237605E-17	4.463204E-18
3.330000E+03	1.259535E-17	4.462867E-18
3.340000E+03	1.281958E-17	4.461542E-18
3.350000E+03	1.304998E-17	4.459567E-18
3.360000E+03	1.328534E-17	4.456437E-18
3.370000E+03	1.352812E-17	4.452884E-18
3.380000E+03	1.377588E-17	4.447998E-18
3.390000E+03	1.403107E-17	4.442487E-18
3.400000E+03	1.429123E-17	4.435463E-18
3.410000E+03	1.455883E-17	4.427613E-18
3.420000E+03	1.483263E-17	4.418450E-18
3.430000E+03	1.511385E-17	4.408250E-18
3.440000E+03	1.540251E-17	4.396903E-18
3.450000E+03	1.569729E-17	4.383942E-18
3.460000E+03	1.599945E-17	4.369632E-18
3.470000E+03	1.630894E-17	4.353865E-18
3.480000E+03	1.662701E-17	4.336879E-18
3.490000E+03	1.695103E-17	4.317893E-18
3.500000E+03	1.728353E-17	4.297479E-18
3.510000E+03	1.762444E-17	4.275528E-18
3.520000E+03	1.797370E-17	4.251933E-18
3.530000E+03	1.832990E-17	4.226291E-18
3.540000E+03	1.869426E-17	4.198826E-18
3.550000E+03	1.906799E-17	4.169742E-18
3.560000E+03	1.944965E-17	4.138658E-18
3.570000E+03	1.983909E-17	4.105507E-18
3.580000E+03	2.023751E-17	4.070501E-18
3.590000E+03	2.064475E-17	4.033574E-18
3.600000E+03	2.106061E-17	3.994675E-18
3.610000E+03	2.148492E-17	3.953767E-18
3.620000E+03	2.191746E-17	3.910830E-18
3.630000E+03	2.235933E-17	3.866097E-18
3.640000E+03	2.280895E-17	3.819339E-18
3.650000E+03	2.326739E-17	3.770818E-18
3.660000E+03	2.373437E-17	3.720582E-18
3.670000E+03	2.420956E-17	3.668702E-18
3.680000E+03	2.469399E-17	3.615484E-18
3.690000E+03	2.518594E-17	3.560847E-18
3.700000E+03	2.568638E-17	3.505147E-18
3.710000E+03	2.619353E-17	3.448389E-18
3.720000E+03	2.670970E-17	3.391161E-18
3.730000E+03	2.723304E-17	3.333533E-18
3.740000E+03	2.776308E-17	3.275793E-18
3.750000E+03	2.830068E-17	3.218414E-18
3.760000E+03	2.884396E-17	3.161561E-18
3.770000E+03	2.939512E-17	3.105867E-18
3.780000E+03	2.995087E-17	3.051361E-18
3.790000E+03	3.051341E-17	2.998650E-18
3.800000E+03	3.108076E-17	2.947893E-18
3.810000E+03	3.165231E-17	2.899367E-18
3.820000E+03	3.222878E-17	2.853435E-18
3.830000E+03	3.280949E-17	2.810273E-18
3.840000E+03	3.339509E-17	2.770112E-18
3.850000E+03	3.398213E-17	2.732774E-18
3.860000E+03	3.457121E-17	2.698354E-18
3.870000E+03	3.516289E-17	2.666867E-18
3.880000E+03	3.575632E-17	2.638154E-18
3.890000E+03	3.634927E-17	2.611912E-18
3.900000E+03	3.694216E-17	2.587994E-18
3.910000E+03	3.753528E-17	2.566215E-18
3.920000E+03	3.812491E-17	2.546096E-18
3.930000E+03	3.871121E-17	2.527424E-18
3.940000E+03	3.929296E-17	2.509895E-18
3.950000E+03	3.987012E-17	2.493290E-18
3.960000E+03	4.043873E-17	2.477162E-18
3.970000E+03	4.100122E-17	2.461487E-18
3.980000E+03	4.155223E-17	2.445792E-18
3.990000E+03	4.209283E-17	2.430030E-18
4.000000E+03	4.262147E-17	2.414030E-18
4.010000E+03	4.313538E-17	2.397600E-18
4.020000E+03	4.363312E-17	2.380665E-18
4.030000E+03	4.411332E-17	2.363200E-18
4.040000E+03	4.457594E-17	2.345299E-18
4.050000E+03	4.501863E-17	2.326978E-18
4.060000E+03	4.544045E-17	2.308389E-18
4.070000E+03	4.583950E-17	2.289693E-18
4.080000E+03	4.621762E-17	2.271308E-18
4.090000E+03	4.657216E-17	2.253491E-18
4.100000E+03	4.690306E-17	2.236702E-18
4.110000E+03	4.721164E-17	2.221512E-18
4.120000E+03	4.749605E-17	2.208379E-18
4.130000E+03	4.775810E-17	2.197928E-18
4.140000E+03	4.799765E-17	2.190643E-18
4.150000E+03	4.821488E-17	2.186919E-18
4.160000E+03	4.841343E-17	2.187165E-18
4.170000E+03	4.859191E-17	2.191394E-18
4.180000E+03	4.875240E-17	2.199605E-18
4.190000E+03	4.889812E-17	2.211689E-18
4.200000E+03	4.902846E-17	2.227229E-18
4.210000E+03	4.914793E-17	2.245932E-18
4.220000E+03	4.925621E-17	2.267216E-18
4.230000E+03	4.935693E-17	2.290637E-18
4.240000E+03	4.945083E-17	2.315610E-18
4.250000E+03	4.954047E-17	2.341650E-18
4.260000E+03	4.962651E-17	2.368221E-18
4.270000E+03	4.971133E-17	2.394923E-18
4.280000E+03	4.979628E-17	2.421377E-18
4.290000E+03	4.988178E-17	2.447230E-18
4.300000E+03	4.996898E-17	2.472235E-18
4.310000E+03	5.005897E-17	2.496207E-18
4.320000E+03	5.015271E-17	2.519012E-18
4.330000E+03	5.024944E-17	2.540481E-18
4.340000E+03	5.035158E-17	2.560649E-18
4.350000E+03	5.045743E-17	2.579381E-18
4.360000E+03	5.056923E-17	2.596781E-18
4.370000E+03	5.068441E-17	2.612737E-18
4.380000E+03	5.080502E-17	2.627406E-18
4.390000E+03	5.093065E-17	2.640837E-18
4.400000E+03	5.106076E-17	2.653086E-18
4.410000E+03	5.119467E-17	2.664208E-18
4.420000E+03	5.133225E-17	2.674282E-18
4.430000E+03	5.147312E-17	2.683371E-18
4.440000E+03	5.161665E-17	2.691510E-18
4.450000E+03	5.176193E-17	2.698711E-18
4.460000E+03	5.190709E-17	2.704923E-18
4.470000E+03	5.205215E-17	2.710183E-18
4.480000E+03	5.219474E-17	2.714397E-18
4.490000E+03	5.233371E-17	2.717524E-18
4.500000E+03	5.246843E-17	2.719547E-18
4.510000E+03	5.259667E-17	2.720353E-18
4.520000E+03	5.271815E-17	2.719923E-18
4.530000E+03	5.283101E-17	2.718143E-18
4.540000E+03	5.293328E-17	2.714881E-18
4.550000E+03	5.302354E-17	2.710021E-18
4.560000E+03	5.310092E-17	2.703477E-18
4.570000E+03	5.316310E-17	2.695104E-18
4.580000E+03	5.320902E-17	2.684852E-18
4.590000E+03	5.323623E-17	2.672646E-18
4.600000E+03	5.324295E-17	2.658501E-18
4.610000E+03	5.322876E-17	2.642561E-18
4.620000E+03	5.319063E-17	2.624895E-18
4.630000E+03	5.312767E-17	2.605721E-18
4.640000E+03	5.303917E-17	2.585287E-18
4.650000E+03	5.292338E-17	2.563785E-18
4.660000E+03	5.277952E-17	2.541427E-18
4.670000E+03	5.260846E-17	2.518459E-18
4.680000E+03	5.240887E-17	2.494978E-18
4.690000E+03	5.218170E-17	2.471156E-18
4.700000E+03	5.192763E-17	2.447129E-18
4.710000E+03	5.164768E-17	2.423031E-18
4.720000E+03	5.134258E-17	2.398973E-18
4.730000E+03	5.101527E-17	2.375156E-18
4.740000E+03	5.066653E-17	2.351670E-18
4.750000E+03	5.029811E-17	2.328639E-18
4.760000E+03	4.991330E-17	2.306239E-18
4.770000E+03	4.951389E-17	2.284550E-18
4.780000E+03	4.910317E-17	2.263686E-18
4.790000E+03	4.868467E-17	2.243730E-18
4.800000E+03	4.826157E-17	2.224712E-18
4.810000E+03	4.783717E-17	2.206642E-18
4.820000E+03	4.741592E-17	2.189571E-18
4.830000E+03	4.700003E-17	2.173438E-18
4.840000E+03	4.659387E-17	2.158285E-18
4.850000E+03	4.619999E-17	2.144075E-18
4.860000E+03	4.582138E-17	2.130799E-18
4.870000E+03	4.546132E-17	2.118477E-18
4.880000E+03	4.512129E-17	2.107063E-18
4.890000E+03	4.480411E-17	2.096605E-18
4.900000E+03	4.451184E-17	2.087155E-18
4.910000E+03	4.424526E-17	2.078750E-18
4.920000E+03	4.400694E-17	2.071554E-18
4.930000E+03	4.379764E-17	2.065677E-18
4.940000E+03	4.361830E-17	2.061251E-18
4.950000E+03	4.346903E-17	2.058360E-18
4.960000E+03	4.335010E-17	2.057067E-18
4.970000E+03	4.326191E-17	2.057400E-18
4.980000E+03	4.320315E-17	2.059270E-18
4.990000E+03	4.317424E-17	2.062650E-18
5.000000E+03	4.317354E-17	2.067409E-18
5.010000E+03	4.320032E-17	2.073455E-18
5.020000E+03	4.325433E-17	2.080718E-18
5.030000E+03	4.333431E-17	2.089080E-18
5.040000E+03	4.344002E-17	2.098466E-18
5.050000E+03	4.357023E-17	2.108757E-18
5.060000E+03	4.372426E-17	2.119860E-18
5.070000E+03	4.390142E-17	2.131693E-18
5.080000E+03	4.410106E-17	2.144191E-18
5.090000E+03	4.432306E-17	2.157335E-18
5.100000E+03	4.456586E-17	2.171049E-18
5.110000E+03	4.482992E-17	2.185368E-18
5.120000E+03	4.511379E-17	2.200242E-18
5.130000E+03	4.541804E-17	2.215724E-18
5.140000E+03	4.574180E-17	2.231806E-18
5.150000E+03	4.608475E-17	2.248517E-18
5.160000E+03	4.644658E-17	2.265892E-18
5.170000E+03	4.682702E-17	2.283974E-18
5.180000E+03	4.722632E-17	2.302834E-18
5.190000E+03	4.764321E-17	2.322474E-18
5.200000E+03	4.807843E-17	2.342996E-18
5.210000E+03	4.853116E-17	2.364434E-18
5.220000E+03	4.900103E-17	2.386848E-18
5.230000E+03	4.948804E-17	2.410320E-18
5.240000E+03	4.999048E-17	2.434842E-18
5.250000E+03	5.050852E-17	2.460475E-18
5.260000E+03	5.104048E-17	2.487156E-18
5.270000E+03	5.158543E-17	2.514813E-18
5.280000E+03	5.214058E-17	2.543241E-18
5.290000E+03	5.270498E-17	2.572298E-18
5.300000E+03	5.327582E-17	2.601733E-18
5.310000E+03	5.385116E-17	2.631326E-18
5.320000E+03	5.442717E-17	2.660757E-18
5.330000E+03	5.500204E-17	2.689787E-18
5.340000E+03	5.557205E-17	2.718068E-18
5.350000E+03	5.613385E-17	2.745248E-18
5.360000E+03	5.668444E-17	2.770970E-18
5.370000E+03	5.721897E-17	2.794771E-18
5.380000E+03	5.773477E-17	2.816299E-18
5.390000E+03	5.822678E-17	2.835097E-18
5.400000E+03	5.869236E-17	2.850843E-18
5.410000E+03	5.912717E-17	2.863162E-18
5.420000E+03	5.952702E-17	2.871714E-18
5.430000E+03	5.988972E-17	2.876301E-18
5.440000E+03	6.021088E-17	2.876681E-18
5.450000E+03	6.048813E-17	2.872785E-18
5.460000E+03	6.071876E-17	2.864624E-18
5.470000E+03	6.089971E-17	2.852299E-18
5.480000E+03	6.102939E-17	2.836103E-18
5.490000E+03	6.110533E-17	2.816395E-18
5.500000E+03	6.112602E-17	2.793683E-18
5.510000E+03	6.108973E-17	2.768535E-18
5.520000E+03	6.099583E-17	2.741599E-18
5.530000E+03	6.084479E-17	2.713554E-18
5.540000E+03	6.063702E-17	2.685004E-18
5.550000E+03	6.037407E-17	2.656495E-18
5.560000E+03	6.005684E-17	2.628402E-18
5.570000E+03	5.968851E-17	2.601045E-18
5.580000E+03	5.927030E-17	2.574515E-18
5.590000E+03	5.880615E-17	2.548903E-18
5.600000E+03	5.829911E-17	2.524163E-18
5.610000E+03	5.775131E-17	2.500141E-18
5.620000E+03	5.716735E-17	2.476747E-18
5.630000E+03	5.655084E-17	2.453824E-18
5.640000E+03	5.590491E-17	2.431196E-18
5.650000E+03	5.523330E-17	2.408735E-18
5.660000E+03	5.454033E-17	2.386372E-18
5.670000E+03	5.382918E-17	2.364016E-18
5.680000E+03	5.310407E-17	2.341646E-18
5.690000E+03	5.236761E-17	2.319181E-18
5.700000E+03	5.162440E-17	2.296644E-18
5.710000E+03	5.087792E-17	2.274016E-18
5.720000E+03	5.013108E-17	2.251271E-18
5.730000E+03	4.938723E-17	2.228412E-18
5.740000E+03	4.864965E-17	2.205454E-18
5.750000E+03	4.792151E-17	2.182422E-18
5.760000E+03	4.720587E-17	2.159348E-18
5.770000E+03	4.650616E-17	2.136290E-18
5.780000E+03	4.582423E-17	2.113250E-18
5.790000E+03	4.516314E-17	2.090291E-18
5.800000E+03	4.452522E-17	2.067445E-18
5.810000E+03	4.391252E-17	2.044731E-18
5.820000E+03	4.332633E-17	2.022127E-18
5.830000E+03	4.276846E-17	1.999631E-18
5.840000E+03	4.223994E-17	1.977198E-18
5.850000E+03	4.174069E-17	1.954739E-18
5.860000E+03	4.127203E-17	1.932243E-18
5.870000E+03	4.083386E-17	1.909657E-18
5.880000E+03	4.042635E-17	1.886982E-18
5.890000E+03	4.004954E-17	1.864260E-18
5.900000E+03	3.970340E-17	1.841585E-18
5.910000E+03	3.938739E-17	1.819082E-18
5.920000E+03	3.910130E-17	1.796933E-18
5.930000E+03	3.884509E-17	1.775361E-18
5.940000E+03	3.861777E-17	1.754551E-18
5.950000E+03	3.841807E-17	1.734659E-18
5.960000E+03	3.824514E-17	1.715829E-18
5.970000E+03	3.809707E-17	1.698120E-18
5.980000E+03	3.797202E-17	1.681565E-18
5.990000E+03	3.786796E-17	1.666170E-18
6.000000E+03	3.778266E-17	1.651925E-18
6.010000E+03	3.771347E-17	1.638806E-18
6.020000E+03	3.765767E-17	1.626792E-18
6.030000E+03	3.761333E-17	1.615895E-18
6.040000E+03	3.757829E-17	1.606104E-18
6.050000E+03	3.754983E-17	1.597357E-18
6.060000E+03	3.752655E-17	1.589614E-18
6.070000E+03	3.750628E-17	1.582759E-18
6.080000E+03	3.748820E-17	1.576698E-18
6.090000E+03	3.747113E-17	1.571289E-18
6.100000E+03	3.745455E-17	1.566402E-18
6.110000E+03	3.743788E-17	1.561901E-18
6.120000E+03	3.742087E-17	1.557675E-18
6.130000E+03	3.740385E-17	1.553660E-18
6.140000E+03	3.738746E-17	1.549828E-18
6.150000E+03	3.737255E-17	1.546187E-18
6.160000E+03	3.735985E-17	1.542751E-18
6.170000E+03	3.735098E-17	1.539577E-18
6.180000E+03	3.734732E-17	1.536713E-18
6.190000E+03	3.735065E-17	1.534219E-18
6.200000E+03	3.736231E-17	1.532130E-18
6.210000E+03	3.738319E-17	1.530448E-18
6.220000E+03	3.741504E-17	1.529197E-18
6.230000E+03	3.745831E-17	1.528326E-18
6.240000E+03	3.751359E-17	1.527770E-18
6.250000E+03	3.758230E-17	1.527488E-18
6.260000E+03	3.766387E-17	1.527349E-18
6.270000E+03	3.775863E-17	1.527255E-18
6.280000E+03	3.786677E-17	1.527104E-18
6.290000E+03	3.798876E-17	1.526807E-18
6.300000E+03	3.812346E-17	1.526226E-18
6.310000E+03	3.827078E-17	1.525282E-18
6.320000E+03	3.843097E-17	1.523938E-18
6.330000E+03	3.860305E-17	1.522151E-18
6.340000E+03	3.878713E-17	1.519967E-18
6.350000E+03	3.898171E-17	1.517426E-18
6.360000E+03	3.918674E-17	1.514680E-18
6.370000E+03	3.940130E-17	1.511896E-18
6.380000E+03	3.962477E-17	1.509277E-18
6.390000E+03	3.985562E-17	1.506995E-18
6.400000E+03	4.009297E-17	1.505218E-18
6.410000E+03	4.033588E-17	1.504055E-18
6.420000E+03	4.058245E-17	1.503516E-18
6.430000E+03	4.083108E-17	1.503556E-18
6.440000E+03	4.108094E-17	1.504102E-18
6.450000E+03	4.132981E-17	1.504994E-18
6.460000E+03	4.157622E-17	1.506087E-18
6.470000E+03	4.181812E-17	1.507218E-18
6.480000E+03	4.205330E-17	1.508239E-18
6.490000E+03	4.227986E-17	1.509036E-18
6.500000E+03	4.249443E-17	1.509464E-18
6.510000E+03	4.269577E-17	1.509468E-18
6.520000E+03	4.288036E-17	1.508920E-18
6.530000E+03	4.304602E-17	1.507738E-18
6.540000E+03	4.319027E-17	1.505829E-18
6.550000E+03	4.331033E-17	1.503096E-18
6.560000E+03	4.340465E-17	1.499492E-18
6.570000E+03	4.347104E-17	1.494965E-18
6.580000E+03	4.350855E-17	1.489519E-18
6.590000E+03	4.351604E-17	1.483155E-18
6.600000E+03	4.349254E-17	1.475879E-18
6.610000E+03	4.343674E-17	1.467664E-18
6.620000E+03	4.334870E-17	1.458513E-18
6.630000E+03	4.322705E-17	1.448384E-18
6.640000E+03	4.307075E-17	1.437280E-18
6.650000E+03	4.287863E-17	1.425267E-18
6.660000E+03	4.264995E-17	1.412506E-18
6.670000E+03	4.238297E-17	1.399212E-18
6.680000E+03	4.207702E-17	1.385700E-18
6.690000E+03	4.173117E-17	1.372292E-18
6.700000E+03	4.134438E-17	1.359270E-18
6.710000E+03	4.091707E-17	1.346869E-18
6.720000E+03	4.044986E-17	1.335203E-18
6.730000E+03	3.994373E-17	1.324252E-18
6.740000E+03	3.940189E-17	1.313946E-18
6.750000E+03	3.882655E-17	1.304103E-18
6.760000E+03	3.822188E-17	1.294593E-18
6.770000E+03	3.759256E-17	1.285330E-18
6.780000E+03	3.694228E-17	1.276248E-18
6.790000E+03	3.627633E-17	1.267378E-18
6.800000E+03	3.559965E-17	1.258765E-18
6.810000E+03	3.491723E-17	1.250450E-18
6.820000E+03	3.423397E-17	1.242445E-18
6.830000E+03	3.355455E-17	1.234710E-18
6.840000E+03	3.288333E-17	1.227162E-18
6.850000E+03	3.222468E-17	1.219698E-18
6.860000E+03	3.158131E-17	1.212164E-18
6.870000E+03	3.095661E-17	1.204457E-18
6.880000E+03	3.035344E-17	1.196499E-18
6.890000E+03	2.977312E-17	1.188202E-18
6.900000E+03	2.921794E-17	1.179571E-18
6.910000E+03	2.868839E-17	1.170584E-18
6.920000E+03	2.818597E-17	1.161293E-18
6.930000E+03	2.771079E-17	1.151715E-18
6.940000E+03	2.726304E-17	1.141872E-18
6.950000E+03	2.684232E-17	1.131763E-18
6.960000E+03	2.644901E-17	1.121420E-18
6.970000E+03	2.608268E-17	1.110851E-18
6.980000E+03	2.574220E-17	1.100053E-18
6.990000E+03	2.542731E-17	1.089082E-18
7.000000E+03	2.513740E-17	1.078004E-18
7.010000E+03	2.487213E-17	1.066916E-18
7.020000E+03	2.463023E-17	1.055887E-18
7.030000E+03	2.441164E-17	1.045050E-18
7.040000E+03	2.421539E-17	1.034497E-18
7.050000E+03	2.404056E-17	1.024321E-18
7.060000E+03	2.388716E-17	1.014651E-18
7.070000E+03	2.375440E-17	1.005576E-18
7.080000E+03	2.364182E-17	9.972008E-19
7.090000E+03	2.354906E-17	9.896310E-19
7.100000E+03	2.347578E-17	9.829782E-19
7.110000E+03	2.342173E-17	9.773613E-19
7.120000E+03	2.338693E-17	9.729195E-19
7.130000E+03	2.337057E-17	9.697624E-19
7.140000E+03	2.337264E-17	9.680397E-19
7.150000E+03	2.339316E-17	9.678972E-19
7.160000E+03	2.343146E-17	9.694422E-19
7.170000E+03	2.348714E-17	9.727658E-19
7.180000E+03	2.355970E-17	9.779150E-19
7.190000E+03	2.364855E-17	9.848765E-19
7.200000E+03	2.375330E-17	9.935766E-19
7.210000E+03	2.387251E-17	1.003825E-18
7.220000E+03	2.400584E-17	1.015406E-18
7.230000E+03	2.415193E-17	1.028013E-18
7.240000E+03	2.430995E-17	1.041338E-18
7.250000E+03	2.447842E-17	1.055048E-18
7.260000E+03	2.465610E-17	1.068847E-18
7.270000E+03	2.484208E-17	1.082490E-18
7.280000E+03	2.503480E-17	1.095752E-18
7.290000E+03	2.523302E-17	1.108468E-18
7.300000E+03	2.543585E-17	1.120536E-18
7.310000E+03	2.564208E-17	1.131881E-18
7.320000E+03	2.585020E-17	1.142447E-18
7.330000E+03	2.605937E-17	1.152233E-18
7.340000E+03	2.626811E-17	1.161223E-18
7.350000E+03	2.647565E-17	1.169444E-18
7.360000E+03	2.668090E-17	1.176912E-18
7.370000E+03	2.688243E-17	1.183634E-18
7.380000E+03	2.707955E-17	1.189653E-18
7.390000E+03	2.727120E-17	1.195004E-18
7.400000E+03	2.745600E-17	1.199719E-18
7.410000E+03	2.763327E-17	1.203872E-18
7.420000E+03	2.780239E-17	1.207550E-18
7.430000E+03	2.796206E-17	1.210815E-18
7.440000E+03	2.811137E-17	1.213745E-18
7.450000E+03	2.824990E-17	1.216429E-18
7.460000E+03	2.837657E-17	1.218906E-18
7.470000E+03	2.849038E-17	1.221191E-18
7.480000E+03	2.859158E-17	1.223322E-18
7.490000E+03	2.867865E-17	1.225228E-18
7.500000E+03	2.875208E-17	1.226896E-18
7.510000E+03	2.881133E-17	1.228252E-18
7.520000E+03	2.885677E-17	1.229245E-18
7.530000E+03	2.888776E-17	1.229781E-18
7.540000E+03	2.890535E-17	1.229846E-18
7.550000E+03	2.890960E-17	1.229395E-18
7.560000E+03	2.890069E-17	1.228408E-18
7.570000E+03	2.888014E-17	1.226940E-18
7.580000E+03	2.884798E-17	1.225009E-18
7.590000E+03	2.880548E-17	1.222705E-18
7.600000E+03	2.875351E-17	1.220123E-18
7.610000E+03	2.869292E-17	1.217370E-18
7.620000E+03	2.862402E-17	1.214543E-18
7.630000E+03	2.854744E-17	1.211758E-18
7.640000E+03	2.846442E-17	1.209157E-18
7.650000E+03	2.837415E-17	1.206794E-18
7.660000E+03	2.827768E-17	1.204796E-18
7.670000E+03	2.817526E-17	1.203248E-18
7.680000E+03	2.806676E-17	1.202198E-18
7.690000E+03	2.795253E-17	1.201688E-18
7.700000E+03	2.783337E-17	1.201743E-18
7.710000E+03	2.770943E-17	1.202323E-18
7.720000E+03	2.758129E-17	1.203370E-18
7.730000E+03	2.744990E-17	1.204809E-18
7.740000E+03	2.731548E-17	1.206512E-18
7.750000E+03	2.717891E-17	1.208370E-18
7.760000E+03	2.704023E-17	1.210235E-18
