#wls	flux	fluxerr
1.600000E+03	5.246075E-18	7.261816E-18
1.640000E+03	5.342531E-18	7.371143E-18
1.680000E+03	5.441181E-18	7.482176E-18
1.720000E+03	5.542015E-18	7.594851E-18
1.760000E+03	5.646970E-18	7.711768E-18
1.800000E+03	5.754123E-18	7.830237E-18
1.840000E+03	5.863440E-18	7.950161E-18
1.880000E+03	5.976928E-18	8.074212E-18
1.920000E+03	6.092541E-18	8.199560E-18
1.960000E+03	6.210209E-18	8.326071E-18
2.000000E+03	6.332010E-18	8.456481E-18
2.040000E+03	6.455758E-18	8.587812E-18
2.080000E+03	6.582457E-18	8.721363E-18
2.120000E+03	6.712033E-18	8.856989E-18
2.160000E+03	6.843245E-18	8.993015E-18
2.200000E+03	6.978271E-18	9.132272E-18
2.240000E+03	7.114661E-18	9.271514E-18
2.280000E+03	7.254627E-18	9.413604E-18
2.320000E+03	7.395603E-18	9.555184E-18
2.360000E+03	7.538586E-18	9.697543E-18
2.400000E+03	7.683363E-18	9.840398E-18
2.440000E+03	7.829692E-18	9.983443E-18
2.480000E+03	7.978610E-18	1.012800E-17
2.520000E+03	8.127242E-18	1.027044E-17
2.560000E+03	8.276553E-18	1.041202E-17
2.600000E+03	8.427551E-18	1.055404E-17
2.640000E+03	8.577177E-18	1.069272E-17
2.680000E+03	8.727755E-18	1.083103E-17
2.720000E+03	8.876105E-18	1.096508E-17
2.760000E+03	9.024566E-18	1.109786E-17
2.800000E+03	9.171280E-18	1.122716E-17
2.840000E+03	9.315751E-18	1.135249E-17
2.880000E+03	9.458924E-18	1.147511E-17
2.920000E+03	9.597362E-18	1.159098E-17
2.960000E+03	9.733449E-18	1.170313E-17
3.000000E+03	9.865169E-18	1.180927E-17
3.010000E+03	9.897491E-18	1.183497E-17
3.020000E+03	9.929402E-18	1.186015E-17
3.030000E+03	9.960895E-18	1.188479E-17
3.040000E+03	9.991958E-18	1.190889E-17
3.050000E+03	1.002258E-17	1.193243E-17
3.060000E+03	1.005427E-17	1.195721E-17
3.070000E+03	1.008399E-17	1.197963E-17
3.080000E+03	1.011325E-17	1.200147E-17
3.090000E+03	1.014355E-17	1.202453E-17
3.100000E+03	1.017336E-17	1.204700E-17
3.110000E+03	1.020118E-17	1.206707E-17
3.120000E+03	1.023000E-17	1.208834E-17
3.130000E+03	1.025833E-17	1.210899E-17
3.140000E+03	1.028613E-17	1.212902E-17
3.150000E+03	1.031341E-17	1.214843E-17
3.160000E+03	1.034016E-17	1.216721E-17
3.170000E+03	1.036636E-17	1.218535E-17
3.180000E+03	1.039202E-17	1.220283E-17
3.190000E+03	1.041712E-17	1.221967E-17
3.200000E+03	1.044164E-17	1.223585E-17
3.210000E+03	1.046713E-17	1.225315E-17
3.220000E+03	1.049050E-17	1.226799E-17
3.230000E+03	1.051481E-17	1.228394E-17
3.240000E+03	1.053699E-17	1.229742E-17
3.250000E+03	1.056010E-17	1.231199E-17
3.260000E+03	1.058260E-17	1.232587E-17
3.270000E+03	1.060294E-17	1.233726E-17
3.280000E+03	1.062418E-17	1.234973E-17
3.290000E+03	1.064480E-17	1.236149E-17
3.300000E+03	1.066477E-17	1.237253E-17
3.310000E+03	1.068409E-17	1.238284E-17
3.320000E+03	1.070275E-17	1.239244E-17
3.330000E+03	1.072229E-17	1.240307E-17
3.340000E+03	1.073963E-17	1.241120E-17
3.350000E+03	1.075629E-17	1.241858E-17
3.360000E+03	1.077381E-17	1.242700E-17
3.370000E+03	1.078911E-17	1.243290E-17
3.380000E+03	1.080525E-17	1.243981E-17
3.390000E+03	1.081916E-17	1.244421E-17
3.400000E+03	1.083390E-17	1.244961E-17
3.410000E+03	1.084641E-17	1.245250E-17
3.420000E+03	1.085973E-17	1.245638E-17
3.430000E+03	1.087234E-17	1.245949E-17
3.440000E+03	1.088423E-17	1.246184E-17
3.450000E+03	1.089540E-17	1.246342E-17
3.460000E+03	1.090583E-17	1.246423E-17
3.470000E+03	1.091554E-17	1.246427E-17
3.480000E+03	1.092452E-17	1.246354E-17
3.490000E+03	1.093276E-17	1.246204E-17
3.500000E+03	1.094026E-17	1.245976E-17
3.510000E+03	1.094853E-17	1.245844E-17
3.520000E+03	1.095455E-17	1.245462E-17
3.530000E+03	1.095982E-17	1.245003E-17
3.540000E+03	1.096585E-17	1.244637E-17
3.550000E+03	1.096963E-17	1.244024E-17
3.560000E+03	1.097416E-17	1.243504E-17
3.570000E+03	1.097794E-17	1.242906E-17
3.580000E+03	1.097947E-17	1.242063E-17
3.590000E+03	1.098174E-17	1.241312E-17
3.600000E+03	1.098326E-17	1.240484E-17
3.610000E+03	1.098255E-17	1.239413E-17
3.620000E+03	1.098257E-17	1.238433E-17
3.630000E+03	1.098184E-17	1.237377E-17
3.640000E+03	1.098036E-17	1.236246E-17
3.650000E+03	1.097813E-17	1.235040E-17
3.660000E+03	1.097516E-17	1.233760E-17
3.670000E+03	1.097145E-17	1.232405E-17
3.680000E+03	1.096700E-17	1.230977E-17
3.690000E+03	1.096180E-17	1.229475E-17
3.700000E+03	1.095733E-17	1.228064E-17
3.710000E+03	1.095067E-17	1.226417E-17
3.720000E+03	1.094329E-17	1.224698E-17
3.730000E+03	1.093518E-17	1.222909E-17
3.740000E+03	1.092779E-17	1.221210E-17
3.750000E+03	1.091825E-17	1.219280E-17
3.760000E+03	1.090800E-17	1.217281E-17
3.770000E+03	1.089847E-17	1.215373E-17
3.780000E+03	1.088681E-17	1.213238E-17
3.790000E+03	1.087588E-17	1.211193E-17
3.800000E+03	1.086284E-17	1.208924E-17
3.810000E+03	1.085053E-17	1.206747E-17
3.820000E+03	1.083613E-17	1.204348E-17
3.830000E+03	1.082247E-17	1.202041E-17
3.840000E+03	1.080674E-17	1.199515E-17
3.850000E+03	1.079175E-17	1.197081E-17
3.860000E+03	1.077472E-17	1.194432E-17
3.870000E+03	1.075843E-17	1.191875E-17
3.880000E+03	1.074151E-17	1.189259E-17
3.890000E+03	1.072259E-17	1.186431E-17
3.900000E+03	1.070441E-17	1.183697E-17
3.910000E+03	1.068563E-17	1.180905E-17
3.920000E+03	1.066488E-17	1.177908E-17
3.930000E+03	1.064490E-17	1.175005E-17
3.940000E+03	1.062433E-17	1.172048E-17
3.950000E+03	1.060185E-17	1.168890E-17
3.960000E+03	1.058014E-17	1.165828E-17
3.970000E+03	1.055787E-17	1.162715E-17
3.980000E+03	1.053505E-17	1.159551E-17
3.990000E+03	1.051037E-17	1.156194E-17
4.000000E+03	1.048649E-17	1.152934E-17
4.010000E+03	1.046209E-17	1.149628E-17
4.020000E+03	1.043719E-17	1.146275E-17
4.030000E+03	1.041049E-17	1.142737E-17
4.040000E+03	1.038460E-17	1.139297E-17
4.050000E+03	1.035823E-17	1.135815E-17
4.060000E+03	1.033012E-17	1.132152E-17
4.070000E+03	1.030284E-17	1.128590E-17
4.080000E+03	1.027511E-17	1.124989E-17
4.090000E+03	1.024570E-17	1.121213E-17
4.100000E+03	1.021712E-17	1.117539E-17
4.110000E+03	1.018813E-17	1.113829E-17
4.120000E+03	1.015750E-17	1.109950E-17
4.130000E+03	1.012773E-17	1.106174E-17
4.140000E+03	1.009635E-17	1.102232E-17
4.150000E+03	1.006585E-17	1.098395E-17
4.160000E+03	1.003376E-17	1.094395E-17
4.170000E+03	1.000256E-17	1.090501E-17
4.180000E+03	9.969822E-18	1.086448E-17
4.190000E+03	9.937971E-18	1.082501E-17
4.200000E+03	9.904618E-18	1.078400E-17
4.210000E+03	9.872164E-18	1.074406E-17
4.220000E+03	9.838243E-18	1.070261E-17
4.230000E+03	9.804058E-18	1.066096E-17
4.240000E+03	9.769619E-18	1.061913E-17
4.250000E+03	9.736100E-18	1.057838E-17
4.260000E+03	9.701182E-18	1.053620E-17
4.270000E+03	9.666045E-18	1.049386E-17
4.280000E+03	9.630698E-18	1.045138E-17
4.290000E+03	9.595153E-18	1.040877E-17
4.300000E+03	9.559421E-18	1.036604E-17
4.310000E+03	9.523512E-18	1.032320E-17
4.320000E+03	9.487437E-18	1.028027E-17
4.330000E+03	9.451206E-18	1.023724E-17
4.340000E+03	9.414829E-18	1.019413E-17
4.350000E+03	9.378318E-18	1.015096E-17
4.360000E+03	9.340589E-18	1.010654E-17
4.370000E+03	9.303844E-18	1.006327E-17
4.380000E+03	9.266993E-18	1.001996E-17
4.390000E+03	9.228974E-18	9.975456E-18
4.400000E+03	9.191949E-18	9.932102E-18
4.410000E+03	9.153786E-18	9.887592E-18
4.420000E+03	9.115569E-18	9.843095E-18
4.430000E+03	9.078356E-18	9.799752E-18
4.440000E+03	9.040051E-18	9.755301E-18
4.450000E+03	9.001718E-18	9.710888E-18
4.460000E+03	8.963367E-18	9.666524E-18
4.470000E+03	8.925006E-18	9.622216E-18
4.480000E+03	8.886643E-18	9.577972E-18
4.490000E+03	8.848287E-18	9.533800E-18
4.500000E+03	8.809945E-18	9.489707E-18
4.510000E+03	8.771626E-18	9.445703E-18
4.520000E+03	8.732343E-18	9.400721E-18
4.530000E+03	8.694098E-18	9.356920E-18
4.540000E+03	8.655898E-18	9.313227E-18
4.550000E+03	8.616774E-18	9.268599E-18
4.560000E+03	8.577722E-18	9.224106E-18
4.570000E+03	8.539713E-18	9.180794E-18
4.580000E+03	8.500817E-18	9.136585E-18
4.590000E+03	8.462013E-18	9.092530E-18
4.600000E+03	8.423306E-18	9.048634E-18
4.610000E+03	8.384703E-18	9.004905E-18
4.620000E+03	8.346210E-18	8.961346E-18
4.630000E+03	8.307833E-18	8.917963E-18
4.640000E+03	8.269576E-18	8.874762E-18
4.650000E+03	8.230526E-18	8.830760E-18
4.660000E+03	8.192533E-18	8.787942E-18
4.670000E+03	8.153769E-18	8.744345E-18
4.680000E+03	8.116060E-18	8.701927E-18
4.690000E+03	8.077600E-18	8.658752E-18
4.700000E+03	8.039302E-18	8.615796E-18
4.710000E+03	8.001170E-18	8.573064E-18
4.720000E+03	7.963208E-18	8.530559E-18
4.730000E+03	7.925421E-18	8.488285E-18
4.740000E+03	7.887811E-18	8.446244E-18
4.750000E+03	7.849518E-18	8.403513E-18
4.760000E+03	7.812281E-18	8.361954E-18
4.770000E+03	7.775232E-18	8.320637E-18
4.780000E+03	7.737525E-18	8.278656E-18
4.790000E+03	7.700023E-18	8.236933E-18
4.800000E+03	7.662728E-18	8.195471E-18
4.810000E+03	7.626479E-18	8.155164E-18
4.820000E+03	7.589602E-18	8.114223E-18
4.830000E+03	7.552116E-18	8.072667E-18
4.840000E+03	7.515677E-18	8.032265E-18
4.850000E+03	7.479456E-18	7.992132E-18
4.860000E+03	7.443457E-18	7.952269E-18
4.870000E+03	7.406876E-18	7.911817E-18
4.880000E+03	7.370529E-18	7.871648E-18
4.890000E+03	7.335212E-18	7.832612E-18
4.900000E+03	7.299332E-18	7.793006E-18
4.910000E+03	7.263690E-18	7.753683E-18
4.920000E+03	7.228287E-18	7.714646E-18
4.930000E+03	7.193124E-18	7.675894E-18
4.940000E+03	7.158200E-18	7.637427E-18
4.950000E+03	7.122751E-18	7.598427E-18
4.960000E+03	7.088315E-18	7.560535E-18
4.970000E+03	7.053363E-18	7.522119E-18
4.980000E+03	7.018663E-18	7.483998E-18
4.990000E+03	6.984963E-18	7.446969E-18
5.000000E+03	6.950760E-18	7.409429E-18
5.010000E+03	6.916809E-18	7.372182E-18
5.020000E+03	6.883110E-18	7.335227E-18
5.030000E+03	6.848929E-18	7.297782E-18
5.040000E+03	6.815735E-18	7.261411E-18
5.050000E+03	6.782791E-18	7.225329E-18
5.060000E+03	6.749378E-18	7.188769E-18
5.070000E+03	6.716221E-18	7.152503E-18
5.080000E+03	6.684033E-18	7.117289E-18
5.090000E+03	6.651385E-18	7.081606E-18
5.100000E+03	6.618991E-18	7.046213E-18
5.110000E+03	6.586852E-18	7.011110E-18
5.120000E+03	6.554965E-18	6.976294E-18
5.130000E+03	6.522639E-18	6.941029E-18
5.140000E+03	6.491258E-18	6.906788E-18
5.150000E+03	6.459444E-18	6.872102E-18
5.160000E+03	6.428564E-18	6.838428E-18
5.170000E+03	6.397255E-18	6.804314E-18
5.180000E+03	6.366200E-18	6.770485E-18
5.190000E+03	6.335395E-18	6.736939E-18
5.200000E+03	6.304840E-18	6.703673E-18
5.210000E+03	6.274534E-18	6.670686E-18
5.220000E+03	6.243816E-18	6.637277E-18
5.230000E+03	6.214004E-18	6.604844E-18
5.240000E+03	6.184435E-18	6.572683E-18
5.250000E+03	6.154462E-18	6.540105E-18
5.260000E+03	6.124734E-18	6.507801E-18
5.270000E+03	6.095252E-18	6.475770E-18
5.280000E+03	6.066012E-18	6.444010E-18
5.290000E+03	6.037012E-18	6.412516E-18
5.300000E+03	6.008252E-18	6.381288E-18
5.310000E+03	5.979729E-18	6.350323E-18
5.320000E+03	5.951440E-18	6.319618E-18
5.330000E+03	5.922765E-18	6.288513E-18
5.340000E+03	5.894943E-18	6.258325E-18
5.350000E+03	5.866738E-18	6.227738E-18
5.360000E+03	5.838765E-18	6.197410E-18
5.370000E+03	5.811024E-18	6.167335E-18
5.380000E+03	5.783511E-18	6.137513E-18
5.390000E+03	5.756225E-18	6.107940E-18
5.400000E+03	5.729163E-18	6.078613E-18
5.410000E+03	5.702324E-18	6.049531E-18
5.420000E+03	5.675114E-18	6.020064E-18
5.430000E+03	5.648716E-18	5.991466E-18
5.440000E+03	5.621949E-18	5.962484E-18
5.450000E+03	5.595401E-18	5.933743E-18
5.460000E+03	5.569071E-18	5.905239E-18
5.470000E+03	5.543531E-18	5.877581E-18
5.480000E+03	5.517625E-18	5.849541E-18
5.490000E+03	5.491360E-18	5.821128E-18
5.500000E+03	5.465876E-18	5.793549E-18
5.510000E+03	5.440598E-18	5.766194E-18
5.520000E+03	5.415524E-18	5.739061E-18
5.530000E+03	5.390093E-18	5.711557E-18
5.540000E+03	5.364867E-18	5.684275E-18
5.550000E+03	5.340396E-18	5.657800E-18
5.560000E+03	5.315571E-18	5.630953E-18
5.570000E+03	5.290943E-18	5.604322E-18
5.580000E+03	5.266512E-18	5.577904E-18
5.590000E+03	5.242274E-18	5.551696E-18
5.600000E+03	5.218227E-18	5.525695E-18
5.610000E+03	5.194370E-18	5.499900E-18
5.620000E+03	5.170166E-18	5.473742E-18
5.630000E+03	5.146683E-18	5.448353E-18
5.640000E+03	5.122855E-18	5.422602E-18
5.650000E+03	5.099738E-18	5.397608E-18
5.660000E+03	5.076276E-18	5.372254E-18
5.670000E+03	5.052995E-18	5.347095E-18
5.680000E+03	5.030412E-18	5.322680E-18
5.690000E+03	5.007486E-18	5.297904E-18
5.700000E+03	4.984734E-18	5.273317E-18
5.710000E+03	4.961643E-18	5.248376E-18
5.720000E+03	4.939237E-18	5.224162E-18
5.730000E+03	4.917000E-18	5.200131E-18
5.740000E+03	4.894929E-18	5.176279E-18
5.750000E+03	4.872521E-18	5.152074E-18
5.760000E+03	4.850780E-18	5.128578E-18
5.770000E+03	4.828702E-18	5.104729E-18
5.780000E+03	4.806787E-18	5.081056E-18
5.790000E+03	4.785526E-18	5.058077E-18
5.800000E+03	4.763929E-18	5.034746E-18
5.810000E+03	4.742489E-18	5.011585E-18
5.820000E+03	4.721204E-18	4.988590E-18
5.830000E+03	4.700072E-18	4.965760E-18
5.840000E+03	4.679091E-18	4.943093E-18
5.850000E+03	4.657781E-18	4.920081E-18
5.860000E+03	4.637099E-18	4.897736E-18
5.870000E+03	4.616563E-18	4.875547E-18
5.880000E+03	4.595697E-18	4.853013E-18
5.890000E+03	4.575448E-18	4.831134E-18
5.900000E+03	4.554871E-18	4.808910E-18
5.910000E+03	4.534436E-18	4.786839E-18
5.920000E+03	4.514605E-18	4.765409E-18
5.930000E+03	4.494447E-18	4.743636E-18
5.940000E+03	4.474425E-18	4.722010E-18
5.950000E+03	4.454539E-18	4.700529E-18
5.960000E+03	4.434785E-18	4.679192E-18
5.970000E+03	4.415164E-18	4.657995E-18
5.980000E+03	4.395671E-18	4.636938E-18
5.990000E+03	4.376307E-18	4.616018E-18
6.000000E+03	4.356621E-18	4.594762E-18
6.010000E+03	4.337510E-18	4.574114E-18
6.020000E+03	4.318522E-18	4.553598E-18
6.030000E+03	4.299212E-18	4.532746E-18
6.040000E+03	4.280467E-18	4.512490E-18
6.050000E+03	4.261401E-18	4.491900E-18
6.060000E+03	4.242892E-18	4.471898E-18
6.070000E+03	4.224063E-18	4.451562E-18
6.080000E+03	4.205352E-18	4.431352E-18
6.090000E+03	4.186756E-18	4.411265E-18
6.100000E+03	4.168273E-18	4.391301E-18
6.110000E+03	4.150331E-18	4.371907E-18
6.120000E+03	4.132070E-18	4.352180E-18
6.130000E+03	4.113919E-18	4.332571E-18
6.140000E+03	4.095454E-18	4.312633E-18
6.150000E+03	4.077519E-18	4.293255E-18
6.160000E+03	4.059689E-18	4.273990E-18
6.170000E+03	4.041963E-18	4.254836E-18
6.180000E+03	4.024339E-18	4.235792E-18
6.190000E+03	4.006403E-18	4.216421E-18
6.200000E+03	3.988982E-18	4.197593E-18
6.210000E+03	3.971249E-18	4.178439E-18
6.220000E+03	3.954025E-18	4.159822E-18
6.230000E+03	3.936490E-18	4.140880E-18
6.240000E+03	3.919457E-18	4.122467E-18
6.250000E+03	3.902115E-18	4.103730E-18
6.260000E+03	3.884868E-18	4.085096E-18
6.270000E+03	3.868114E-18	4.066981E-18
6.280000E+03	3.851052E-18	4.048544E-18
6.290000E+03	3.834082E-18	4.030204E-18
6.300000E+03	3.817203E-18	4.011961E-18
6.310000E+03	3.800413E-18	3.993813E-18
6.320000E+03	3.783711E-18	3.975759E-18
6.330000E+03	3.767096E-18	3.957798E-18
6.340000E+03	3.750568E-18	3.939928E-18
6.350000E+03	3.734124E-18	3.922148E-18
6.360000E+03	3.717765E-18	3.904457E-18
6.370000E+03	3.701488E-18	3.886855E-18
6.380000E+03	3.685293E-18	3.869339E-18
6.390000E+03	3.668801E-18	3.851510E-18
6.400000E+03	3.652769E-18	3.834166E-18
6.410000E+03	3.636816E-18	3.816906E-18
6.420000E+03	3.620567E-18	3.799335E-18
6.430000E+03	3.604771E-18	3.782240E-18
6.440000E+03	3.589052E-18	3.765226E-18
6.450000E+03	3.573039E-18	3.747903E-18
6.460000E+03	3.557472E-18	3.731048E-18
6.470000E+03	3.541612E-18	3.713886E-18
6.480000E+03	3.525829E-18	3.696804E-18
6.490000E+03	3.510485E-18	3.680183E-18
6.500000E+03	3.494850E-18	3.663257E-18
6.510000E+03	3.479290E-18	3.646408E-18
6.520000E+03	3.464162E-18	3.630012E-18
6.530000E+03	3.448746E-18	3.613313E-18
6.540000E+03	3.433402E-18	3.596690E-18
6.550000E+03	3.418129E-18	3.580140E-18
6.560000E+03	3.402927E-18	3.563664E-18
6.570000E+03	3.388147E-18	3.547628E-18
6.580000E+03	3.373084E-18	3.531294E-18
6.590000E+03	3.358089E-18	3.515032E-18
6.600000E+03	3.343162E-18	3.498839E-18
6.610000E+03	3.328303E-18	3.482716E-18
6.620000E+03	3.313512E-18	3.466663E-18
6.630000E+03	3.298444E-18	3.450318E-18
6.640000E+03	3.283787E-18	3.434402E-18
6.650000E+03	3.269196E-18	3.418553E-18
6.660000E+03	3.254670E-18	3.402770E-18
6.670000E+03	3.240210E-18	3.387053E-18
6.680000E+03	3.225477E-18	3.371051E-18
6.690000E+03	3.211146E-18	3.355466E-18
6.700000E+03	3.196879E-18	3.339945E-18
6.710000E+03	3.182675E-18	3.324488E-18
6.720000E+03	3.168203E-18	3.308749E-18
6.730000E+03	3.154126E-18	3.293419E-18
6.740000E+03	3.139783E-18	3.277810E-18
6.750000E+03	3.125831E-18	3.262606E-18
6.760000E+03	3.111616E-18	3.247124E-18
6.770000E+03	3.097788E-18	3.232044E-18
6.780000E+03	3.083699E-18	3.216688E-18
6.790000E+03	3.069994E-18	3.201730E-18
6.800000E+03	3.056030E-18	3.186498E-18
6.810000E+03	3.042447E-18	3.171661E-18
6.820000E+03	3.028607E-18	3.156551E-18
6.830000E+03	3.014829E-18	3.141503E-18
6.840000E+03	3.001427E-18	3.126845E-18
6.850000E+03	2.987771E-18	3.111917E-18
6.860000E+03	2.974177E-18	3.097050E-18
6.870000E+03	2.960644E-18	3.082243E-18
6.880000E+03	2.947172E-18	3.067496E-18
6.890000E+03	2.934069E-18	3.053128E-18
6.900000E+03	2.920717E-18	3.038498E-18
6.910000E+03	2.907426E-18	3.023927E-18
6.920000E+03	2.894195E-18	3.009414E-18
6.930000E+03	2.881024E-18	2.994959E-18
6.940000E+03	2.867912E-18	2.980562E-18
6.950000E+03	2.854861E-18	2.966223E-18
6.960000E+03	2.841869E-18	2.951941E-18
6.970000E+03	2.828936E-18	2.937716E-18
6.980000E+03	2.816063E-18	2.923548E-18
6.990000E+03	2.802952E-18	2.909130E-18
7.000000E+03	2.790198E-18	2.895077E-18
7.010000E+03	2.777502E-18	2.881079E-18
7.020000E+03	2.764865E-18	2.867138E-18
7.030000E+03	2.752287E-18	2.853252E-18
7.040000E+03	2.739477E-18	2.839122E-18
7.050000E+03	2.727016E-18	2.825349E-18
7.060000E+03	2.714613E-18	2.811631E-18
7.070000E+03	2.701983E-18	2.797671E-18
7.080000E+03	2.689697E-18	2.784064E-18
7.090000E+03	2.677185E-18	2.770217E-18
7.100000E+03	2.665016E-18	2.756721E-18
7.110000E+03	2.652904E-18	2.743278E-18
7.120000E+03	2.640569E-18	2.729599E-18
7.130000E+03	2.628294E-18	2.715978E-18
7.140000E+03	2.616357E-18	2.702699E-18
7.150000E+03	2.604199E-18	2.689189E-18
7.160000E+03	2.592377E-18	2.676019E-18
7.170000E+03	2.580337E-18	2.662619E-18
7.180000E+03	2.568356E-18	2.649275E-18
7.190000E+03	2.556434E-18	2.635986E-18
7.200000E+03	2.544842E-18	2.623033E-18
7.210000E+03	2.533037E-18	2.609854E-18
7.220000E+03	2.521290E-18	2.596730E-18
7.230000E+03	2.509602E-18	2.583662E-18
7.240000E+03	2.497973E-18	2.570649E-18
7.250000E+03	2.486402E-18	2.557691E-18
7.260000E+03	2.474890E-18	2.544788E-18
7.270000E+03	2.463436E-18	2.531940E-18
7.280000E+03	2.452041E-18	2.519146E-18
7.290000E+03	2.440704E-18	2.506408E-18
7.300000E+03	2.429425E-18	2.493724E-18
7.310000E+03	2.418204E-18	2.481095E-18
7.320000E+03	2.407042E-18	2.468520E-18
7.330000E+03	2.395938E-18	2.456000E-18
7.340000E+03	2.384635E-18	2.443273E-18
7.350000E+03	2.373648E-18	2.430863E-18
7.360000E+03	2.362720E-18	2.418508E-18
7.370000E+03	2.351596E-18	2.405949E-18
7.380000E+03	2.340785E-18	2.393705E-18
7.390000E+03	2.329780E-18	2.381259E-18
7.400000E+03	2.319086E-18	2.369125E-18
7.410000E+03	2.308201E-18	2.356792E-18
7.420000E+03	2.297624E-18	2.344769E-18
7.430000E+03	2.286859E-18	2.332550E-18
7.440000E+03	2.276400E-18	2.320638E-18
7.450000E+03	2.265754E-18	2.308532E-18
7.460000E+03	2.255169E-18	2.296483E-18
7.470000E+03	2.244887E-18	2.284739E-18
7.480000E+03	2.234421E-18	2.272804E-18
7.490000E+03	2.224016E-18	2.260927E-18
7.500000E+03	2.213672E-18	2.249109E-18
7.510000E+03	2.203389E-18	2.237348E-18
7.520000E+03	2.193166E-18	2.225645E-18
7.530000E+03	2.183004E-18	2.214001E-18
7.540000E+03	2.172903E-18	2.202416E-18
7.550000E+03	2.162864E-18	2.190889E-18
7.560000E+03	2.152885E-18	2.179421E-18
7.570000E+03	2.142969E-18	2.168013E-18
7.580000E+03	2.133113E-18	2.156663E-18
7.590000E+03	2.123088E-18	2.145140E-18
7.600000E+03	2.113357E-18	2.133911E-18
7.610000E+03	2.103688E-18	2.122743E-18
7.620000E+03	2.093853E-18	2.111404E-18
7.630000E+03	2.084310E-18	2.100357E-18
7.640000E+03	2.074602E-18	2.089143E-18
7.650000E+03	2.065185E-18	2.078220E-18
7.660000E+03	2.055605E-18	2.067132E-18
7.670000E+03	2.046315E-18	2.056333E-18
7.680000E+03	2.036865E-18	2.045371E-18
7.690000E+03	2.027481E-18	2.034475E-18
7.700000E+03	2.018383E-18	2.023865E-18
7.710000E+03	2.009129E-18	2.013097E-18
7.720000E+03	1.999941E-18	2.002395E-18
7.730000E+03	1.990819E-18	1.991759E-18
7.740000E+03	1.981764E-18	1.981189E-18
7.750000E+03	1.972775E-18	1.970685E-18
7.760000E+03	1.963854E-18	1.960249E-18
