#wls	flux	fluxerr
1.600000E+03	3.384613E-16	3.170138E-18
1.640000E+03	3.478982E-16	3.256799E-18
1.680000E+03	3.579424E-16	3.349004E-18
1.720000E+03	3.686223E-16	3.447004E-18
1.760000E+03	3.800022E-16	3.551384E-18
1.800000E+03	3.921073E-16	3.662364E-18
1.840000E+03	4.049985E-16	3.780494E-18
1.880000E+03	4.187349E-16	3.906305E-18
1.920000E+03	4.333358E-16	4.039956E-18
1.960000E+03	4.488556E-16	4.181931E-18
2.000000E+03	4.653453E-16	4.332681E-18
2.040000E+03	4.828536E-16	4.492632E-18
2.080000E+03	5.013882E-16	4.661827E-18
2.120000E+03	5.209904E-16	4.840622E-18
2.160000E+03	5.416245E-16	5.028650E-18
2.200000E+03	5.632508E-16	5.225514E-18
2.240000E+03	5.856803E-16	5.429427E-18
2.280000E+03	6.087230E-16	5.638600E-18
2.320000E+03	6.325880E-16	5.854944E-18
2.360000E+03	6.576224E-16	6.081634E-18
2.400000E+03	6.840899E-16	6.321069E-18
2.440000E+03	7.121722E-16	6.574874E-18
2.480000E+03	7.420051E-16	6.844250E-18
2.520000E+03	7.737499E-16	7.130622E-18
2.560000E+03	8.074862E-16	7.434656E-18
2.600000E+03	8.433528E-16	7.757560E-18
2.640000E+03	8.814074E-16	8.099785E-18
2.680000E+03	9.216286E-16	8.461056E-18
2.720000E+03	9.640547E-16	8.841639E-18
2.760000E+03	1.008613E-15	9.240782E-18
2.800000E+03	1.055192E-15	9.657381E-18
2.840000E+03	1.103610E-15	1.008969E-17
2.880000E+03	1.153687E-15	1.053597E-17
2.920000E+03	1.205435E-15	1.099626E-17
2.960000E+03	1.259217E-15	1.147378E-17
3.000000E+03	1.315494E-15	1.197264E-17
3.010000E+03	1.329997E-15	1.210107E-17
3.020000E+03	1.344738E-15	1.223158E-17
3.030000E+03	1.359652E-15	1.236356E-17
3.040000E+03	1.374767E-15	1.249727E-17
3.050000E+03	1.390141E-15	1.263324E-17
3.060000E+03	1.405708E-15	1.277086E-17
3.070000E+03	1.421528E-15	1.291067E-17
3.080000E+03	1.437595E-15	1.305262E-17
3.090000E+03	1.453906E-15	1.319668E-17
3.100000E+03	1.470457E-15	1.334281E-17
3.110000E+03	1.487304E-15	1.349152E-17
3.120000E+03	1.504414E-15	1.364249E-17
3.130000E+03	1.521811E-15	1.379596E-17
3.140000E+03	1.539493E-15	1.395188E-17
3.150000E+03	1.557453E-15	1.411022E-17
3.160000E+03	1.575719E-15	1.427119E-17
3.170000E+03	1.594314E-15	1.443503E-17
3.180000E+03	1.613175E-15	1.460114E-17
3.190000E+03	1.632386E-15	1.477029E-17
3.200000E+03	1.651913E-15	1.494217E-17
3.210000E+03	1.671781E-15	1.511700E-17
3.220000E+03	1.691983E-15	1.529471E-17
3.230000E+03	1.712487E-15	1.547501E-17
3.240000E+03	1.733373E-15	1.565862E-17
3.250000E+03	1.754551E-15	1.584473E-17
3.260000E+03	1.776102E-15	1.603405E-17
3.270000E+03	1.798021E-15	1.622655E-17
3.280000E+03	1.820245E-15	1.642164E-17
3.290000E+03	1.842855E-15	1.662006E-17
3.300000E+03	1.865788E-15	1.682123E-17
3.310000E+03	1.889069E-15	1.702537E-17
3.320000E+03	1.912690E-15	1.723241E-17
3.330000E+03	1.936676E-15	1.744257E-17
3.340000E+03	1.960992E-15	1.765555E-17
3.350000E+03	1.985635E-15	1.787128E-17
3.360000E+03	2.010599E-15	1.808972E-17
3.370000E+03	2.035905E-15	1.831107E-17
3.380000E+03	2.061521E-15	1.853502E-17
3.390000E+03	2.087442E-15	1.876152E-17
3.400000E+03	2.113663E-15	1.899054E-17
3.410000E+03	2.140151E-15	1.922176E-17
3.420000E+03	2.166900E-15	1.945513E-17
3.430000E+03	2.193907E-15	1.969063E-17
3.440000E+03	2.221138E-15	1.992794E-17
3.450000E+03	2.248589E-15	2.016702E-17
3.460000E+03	2.276229E-15	2.040759E-17
3.470000E+03	2.304023E-15	2.064934E-17
3.480000E+03	2.331942E-15	2.089200E-17
3.490000E+03	2.359928E-15	2.113505E-17
3.500000E+03	2.387975E-15	2.137844E-17
3.510000E+03	2.416027E-15	2.162167E-17
3.520000E+03	2.444000E-15	2.186398E-17
3.530000E+03	2.471785E-15	2.210440E-17
3.540000E+03	2.499354E-15	2.234268E-17
3.550000E+03	2.526599E-15	2.257784E-17
3.560000E+03	2.553362E-15	2.280850E-17
3.570000E+03	2.579565E-15	2.303395E-17
3.580000E+03	2.605105E-15	2.325328E-17
3.590000E+03	2.629854E-15	2.346535E-17
3.600000E+03	2.653661E-15	2.366882E-17
3.610000E+03	2.676475E-15	2.386326E-17
3.620000E+03	2.698202E-15	2.404782E-17
3.630000E+03	2.718743E-15	2.422164E-17
3.640000E+03	2.738128E-15	2.438500E-17
3.650000E+03	2.756315E-15	2.453754E-17
3.660000E+03	2.773287E-15	2.467910E-17
3.670000E+03	2.789057E-15	2.480983E-17
3.680000E+03	2.803639E-15	2.492987E-17
3.690000E+03	2.817034E-15	2.503921E-17
3.700000E+03	2.829320E-15	2.513859E-17
3.710000E+03	2.840497E-15	2.522801E-17
3.720000E+03	2.850656E-15	2.530828E-17
3.730000E+03	2.859938E-15	2.538066E-17
3.740000E+03	2.868394E-15	2.544564E-17
3.750000E+03	2.876273E-15	2.550541E-17
3.760000E+03	2.883675E-15	2.556087E-17
3.770000E+03	2.890856E-15	2.561429E-17
3.780000E+03	2.898006E-15	2.566736E-17
3.790000E+03	2.905304E-15	2.572166E-17
3.800000E+03	2.912937E-15	2.577885E-17
3.810000E+03	2.921038E-15	2.584010E-17
3.820000E+03	2.929731E-15	2.590650E-17
3.830000E+03	2.939096E-15	2.597876E-17
3.840000E+03	2.949150E-15	2.605701E-17
3.850000E+03	2.959903E-15	2.614134E-17
3.860000E+03	2.971328E-15	2.623150E-17
3.870000E+03	2.983358E-15	2.632689E-17
3.880000E+03	2.995927E-15	2.642692E-17
3.890000E+03	3.008956E-15	2.653090E-17
3.900000E+03	3.022331E-15	2.663781E-17
3.910000E+03	3.035955E-15	2.674679E-17
3.920000E+03	3.049696E-15	2.685669E-17
3.930000E+03	3.063467E-15	2.696672E-17
3.940000E+03	3.077120E-15	2.707559E-17
3.950000E+03	3.090524E-15	2.718215E-17
3.960000E+03	3.103489E-15	2.728474E-17
3.970000E+03	3.115910E-15	2.738242E-17
3.980000E+03	3.127579E-15	2.747339E-17
3.990000E+03	3.138326E-15	2.755615E-17
4.000000E+03	3.147950E-15	2.762897E-17
4.010000E+03	3.156300E-15	2.769051E-17
4.020000E+03	3.163152E-15	2.773884E-17
4.030000E+03	3.168363E-15	2.777271E-17
4.040000E+03	3.171733E-15	2.779040E-17
4.050000E+03	3.173160E-15	2.779104E-17
4.060000E+03	3.172502E-15	2.777339E-17
4.070000E+03	3.169704E-15	2.773699E-17
4.080000E+03	3.164753E-15	2.768178E-17
4.090000E+03	3.157677E-15	2.760802E-17
4.100000E+03	3.148501E-15	2.751594E-17
4.110000E+03	3.137328E-15	2.740647E-17
4.120000E+03	3.124273E-15	2.728064E-17
4.130000E+03	3.109496E-15	2.713987E-17
4.140000E+03	3.093184E-15	2.698580E-17
4.150000E+03	3.075497E-15	2.681986E-17
4.160000E+03	3.056686E-15	2.664425E-17
4.170000E+03	3.036955E-15	2.646075E-17
4.180000E+03	3.016577E-15	2.627176E-17
4.190000E+03	2.995851E-15	2.607989E-17
4.200000E+03	2.975052E-15	2.588754E-17
4.210000E+03	2.954518E-15	2.569764E-17
4.220000E+03	2.934582E-15	2.551309E-17
4.230000E+03	2.915623E-15	2.533718E-17
4.240000E+03	2.897928E-15	2.517240E-17
4.250000E+03	2.881868E-15	2.502193E-17
4.260000E+03	2.867722E-15	2.488820E-17
4.270000E+03	2.855809E-15	2.477395E-17
4.280000E+03	2.846324E-15	2.468083E-17
4.290000E+03	2.839480E-15	2.461069E-17
4.300000E+03	2.835432E-15	2.456482E-17
4.310000E+03	2.834198E-15	2.454335E-17
4.320000E+03	2.835814E-15	2.454655E-17
4.330000E+03	2.840119E-15	2.457303E-17
4.340000E+03	2.846992E-15	2.462167E-17
4.350000E+03	2.856101E-15	2.468961E-17
4.360000E+03	2.867164E-15	2.477435E-17
4.370000E+03	2.879914E-15	2.487360E-17
4.380000E+03	2.893986E-15	2.498417E-17
4.390000E+03	2.909027E-15	2.510299E-17
4.400000E+03	2.924660E-15	2.522683E-17
4.410000E+03	2.940488E-15	2.535223E-17
4.420000E+03	2.956230E-15	2.547679E-17
4.430000E+03	2.971557E-15	2.559766E-17
4.440000E+03	2.986228E-15	2.571278E-17
4.450000E+03	3.000026E-15	2.582030E-17
4.460000E+03	3.012810E-15	2.591899E-17
4.470000E+03	3.024424E-15	2.600755E-17
4.480000E+03	3.034827E-15	2.608563E-17
4.490000E+03	3.043922E-15	2.615241E-17
4.500000E+03	3.051647E-15	2.620738E-17
4.510000E+03	3.057994E-15	2.625048E-17
4.520000E+03	3.062845E-15	2.628072E-17
4.530000E+03	3.066150E-15	2.629768E-17
4.540000E+03	3.067850E-15	2.630090E-17
4.550000E+03	3.067841E-15	2.628947E-17
4.560000E+03	3.066068E-15	2.626296E-17
4.570000E+03	3.062440E-15	2.622060E-17
4.580000E+03	3.056929E-15	2.616219E-17
4.590000E+03	3.049507E-15	2.608750E-17
4.600000E+03	3.040180E-15	2.599660E-17
4.610000E+03	3.028959E-15	2.588962E-17
4.620000E+03	3.015973E-15	2.576766E-17
4.630000E+03	3.001280E-15	2.563126E-17
4.640000E+03	2.985046E-15	2.548185E-17
4.650000E+03	2.967432E-15	2.532081E-17
4.660000E+03	2.948590E-15	2.514945E-17
4.670000E+03	2.928752E-15	2.496979E-17
4.680000E+03	2.908049E-15	2.478292E-17
4.690000E+03	2.886689E-15	2.459065E-17
4.700000E+03	2.864895E-15	2.439488E-17
4.710000E+03	2.842810E-15	2.419683E-17
4.720000E+03	2.820617E-15	2.399805E-17
4.730000E+03	2.798494E-15	2.380006E-17
4.740000E+03	2.776578E-15	2.360403E-17
4.750000E+03	2.754996E-15	2.341104E-17
4.760000E+03	2.733913E-15	2.322249E-17
4.770000E+03	2.713382E-15	2.303881E-17
4.780000E+03	2.693540E-15	2.286116E-17
4.790000E+03	2.674462E-15	2.269018E-17
4.800000E+03	2.656185E-15	2.252618E-17
4.810000E+03	2.638812E-15	2.237000E-17
4.820000E+03	2.622359E-15	2.222179E-17
4.830000E+03	2.606867E-15	2.208188E-17
4.840000E+03	2.592383E-15	2.195067E-17
4.850000E+03	2.578959E-15	2.182857E-17
4.860000E+03	2.566712E-15	2.171658E-17
4.870000E+03	2.555656E-15	2.161479E-17
4.880000E+03	2.545942E-15	2.152448E-17
4.890000E+03	2.537662E-15	2.144640E-17
4.900000E+03	2.530970E-15	2.138186E-17
4.910000E+03	2.525980E-15	2.133179E-17
4.920000E+03	2.522823E-15	2.129728E-17
4.930000E+03	2.521647E-15	2.127957E-17
4.940000E+03	2.522505E-15	2.127910E-17
4.950000E+03	2.525492E-15	2.129664E-17
4.960000E+03	2.530647E-15	2.133250E-17
4.970000E+03	2.537963E-15	2.138661E-17
4.980000E+03	2.547368E-15	2.145834E-17
4.990000E+03	2.558764E-15	2.154686E-17
5.000000E+03	2.572032E-15	2.165113E-17
5.010000E+03	2.586929E-15	2.176912E-17
5.020000E+03	2.603273E-15	2.189927E-17
5.030000E+03	2.620744E-15	2.203888E-17
5.040000E+03	2.639036E-15	2.218538E-17
5.050000E+03	2.657852E-15	2.233627E-17
5.060000E+03	2.676828E-15	2.248848E-17
5.070000E+03	2.695621E-15	2.263913E-17
5.080000E+03	2.713862E-15	2.278515E-17
5.090000E+03	2.731244E-15	2.292395E-17
5.100000E+03	2.747455E-15	2.305292E-17
5.110000E+03	2.762147E-15	2.316917E-17
5.120000E+03	2.775076E-15	2.327065E-17
5.130000E+03	2.786003E-15	2.335540E-17
5.140000E+03	2.794721E-15	2.342167E-17
5.150000E+03	2.801027E-15	2.346780E-17
5.160000E+03	2.804786E-15	2.349266E-17
5.170000E+03	2.805873E-15	2.349524E-17
5.180000E+03	2.804287E-15	2.347556E-17
5.190000E+03	2.799970E-15	2.343313E-17
5.200000E+03	2.792961E-15	2.336831E-17
5.210000E+03	2.783356E-15	2.328192E-17
5.220000E+03	2.771327E-15	2.317541E-17
5.230000E+03	2.757017E-15	2.305000E-17
5.240000E+03	2.740667E-15	2.290772E-17
5.250000E+03	2.722608E-15	2.275134E-17
5.260000E+03	2.703065E-15	2.258275E-17
5.270000E+03	2.682399E-15	2.240498E-17
5.280000E+03	2.660891E-15	2.222037E-17
5.290000E+03	2.638832E-15	2.203136E-17
5.300000E+03	2.616508E-15	2.184034E-17
5.310000E+03	2.594093E-15	2.164876E-17
5.320000E+03	2.571807E-15	2.145846E-17
5.330000E+03	2.549803E-15	2.127070E-17
5.340000E+03	2.528199E-15	2.108649E-17
5.350000E+03	2.507113E-15	2.090677E-17
5.360000E+03	2.486559E-15	2.073169E-17
5.370000E+03	2.466611E-15	2.056184E-17
5.380000E+03	2.447306E-15	2.039753E-17
5.390000E+03	2.428650E-15	2.023880E-17
5.400000E+03	2.410721E-15	2.008630E-17
5.410000E+03	2.393528E-15	1.994010E-17
5.420000E+03	2.377081E-15	1.980027E-17
5.430000E+03	2.361373E-15	1.966674E-17
5.440000E+03	2.346300E-15	1.953865E-17
5.450000E+03	2.331691E-15	1.941457E-17
5.460000E+03	2.317458E-15	1.929374E-17
5.470000E+03	2.303504E-15	1.917539E-17
5.480000E+03	2.289706E-15	1.905845E-17
5.490000E+03	2.276000E-15	1.894240E-17
5.500000E+03	2.262363E-15	1.882706E-17
5.510000E+03	2.248743E-15	1.871196E-17
5.520000E+03	2.235105E-15	1.859684E-17
5.530000E+03	2.221433E-15	1.848155E-17
5.540000E+03	2.207799E-15	1.836668E-17
5.550000E+03	2.194172E-15	1.825198E-17
5.560000E+03	2.180629E-15	1.813807E-17
5.570000E+03	2.167208E-15	1.802529E-17
5.580000E+03	2.153981E-15	1.791421E-17
5.590000E+03	2.141022E-15	1.780546E-17
5.600000E+03	2.128388E-15	1.769949E-17
5.610000E+03	2.116175E-15	1.759713E-17
5.620000E+03	2.104439E-15	1.749881E-17
5.630000E+03	2.093224E-15	1.740490E-17
5.640000E+03	2.082632E-15	1.731626E-17
5.650000E+03	2.072684E-15	1.723304E-17
5.660000E+03	2.063381E-15	1.715527E-17
5.670000E+03	2.054748E-15	1.708313E-17
5.680000E+03	2.046785E-15	1.701663E-17
5.690000E+03	2.039396E-15	1.695498E-17
5.700000E+03	2.032524E-15	1.689769E-17
5.710000E+03	2.026083E-15	1.684404E-17
5.720000E+03	2.019920E-15	1.679277E-17
5.730000E+03	2.013911E-15	1.674283E-17
5.740000E+03	2.007879E-15	1.669277E-17
5.750000E+03	2.001697E-15	1.664151E-17
5.760000E+03	1.995223E-15	1.658789E-17
5.770000E+03	1.988354E-15	1.653102E-17
5.780000E+03	1.980936E-15	1.646965E-17
5.790000E+03	1.972942E-15	1.640354E-17
5.800000E+03	1.964264E-15	1.633179E-17
5.810000E+03	1.954884E-15	1.625424E-17
5.820000E+03	1.944784E-15	1.617076E-17
5.830000E+03	1.933978E-15	1.608144E-17
5.840000E+03	1.922523E-15	1.598677E-17
5.850000E+03	1.910478E-15	1.588723E-17
5.860000E+03	1.897925E-15	1.578350E-17
5.870000E+03	1.884934E-15	1.567616E-17
5.880000E+03	1.871648E-15	1.556640E-17
5.890000E+03	1.858154E-15	1.545493E-17
5.900000E+03	1.844571E-15	1.534276E-17
5.910000E+03	1.830975E-15	1.523049E-17
5.920000E+03	1.817469E-15	1.511900E-17
5.930000E+03	1.804125E-15	1.500888E-17
5.940000E+03	1.790996E-15	1.490058E-17
5.950000E+03	1.778125E-15	1.479443E-17
5.960000E+03	1.765539E-15	1.469068E-17
5.970000E+03	1.753275E-15	1.458962E-17
5.980000E+03	1.741295E-15	1.449094E-17
5.990000E+03	1.729634E-15	1.439492E-17
6.000000E+03	1.718258E-15	1.430130E-17
6.010000E+03	1.707147E-15	1.420989E-17
6.020000E+03	1.696293E-15	1.412064E-17
6.030000E+03	1.685627E-15	1.403296E-17
6.040000E+03	1.675156E-15	1.394691E-17
6.050000E+03	1.664809E-15	1.386190E-17
6.060000E+03	1.654577E-15	1.377786E-17
6.070000E+03	1.644441E-15	1.369463E-17
6.080000E+03	1.634374E-15	1.361198E-17
6.090000E+03	1.624386E-15	1.352999E-17
6.100000E+03	1.614500E-15	1.344885E-17
6.110000E+03	1.604757E-15	1.336891E-17
6.120000E+03	1.595213E-15	1.329063E-17
6.130000E+03	1.585929E-15	1.321452E-17
6.140000E+03	1.576976E-15	1.314116E-17
6.150000E+03	1.568418E-15	1.307111E-17
6.160000E+03	1.560336E-15	1.300502E-17
6.170000E+03	1.552804E-15	1.294351E-17
6.180000E+03	1.545879E-15	1.288708E-17
6.190000E+03	1.539592E-15	1.283595E-17
6.200000E+03	1.533959E-15	1.279029E-17
6.210000E+03	1.528970E-15	1.274999E-17
6.220000E+03	1.524629E-15	1.271511E-17
6.230000E+03	1.520936E-15	1.268562E-17
6.240000E+03	1.517869E-15	1.266137E-17
6.250000E+03	1.515447E-15	1.264250E-17
6.260000E+03	1.513708E-15	1.262934E-17
6.270000E+03	1.512624E-15	1.262165E-17
6.280000E+03	1.512205E-15	1.261951E-17
6.290000E+03	1.512472E-15	1.262310E-17
6.300000E+03	1.513372E-15	1.263200E-17
6.310000E+03	1.514923E-15	1.264632E-17
6.320000E+03	1.517083E-15	1.266575E-17
6.330000E+03	1.519753E-15	1.268945E-17
6.340000E+03	1.522902E-15	1.271715E-17
6.350000E+03	1.526449E-15	1.274819E-17
6.360000E+03	1.530284E-15	1.278165E-17
6.370000E+03	1.534314E-15	1.281675E-17
6.380000E+03	1.538499E-15	1.285316E-17
6.390000E+03	1.542714E-15	1.288983E-17
6.400000E+03	1.546885E-15	1.292615E-17
6.410000E+03	1.550974E-15	1.296178E-17
6.420000E+03	1.554835E-15	1.299553E-17
6.430000E+03	1.558357E-15	1.302645E-17
6.440000E+03	1.561458E-15	1.305387E-17
6.450000E+03	1.564076E-15	1.307725E-17
6.460000E+03	1.566130E-15	1.309592E-17
6.470000E+03	1.567603E-15	1.310974E-17
6.480000E+03	1.568463E-15	1.311844E-17
6.490000E+03	1.568712E-15	1.312203E-17
6.500000E+03	1.568333E-15	1.312036E-17
6.510000E+03	1.567335E-15	1.311353E-17
6.520000E+03	1.565733E-15	1.310163E-17
6.530000E+03	1.563515E-15	1.308457E-17
6.540000E+03	1.560722E-15	1.306270E-17
6.550000E+03	1.557369E-15	1.303614E-17
6.560000E+03	1.553448E-15	1.300481E-17
6.570000E+03	1.549001E-15	1.296907E-17
6.580000E+03	1.544021E-15	1.292886E-17
6.590000E+03	1.538529E-15	1.288435E-17
6.600000E+03	1.532573E-15	1.283595E-17
6.610000E+03	1.526128E-15	1.278343E-17
6.620000E+03	1.519293E-15	1.272763E-17
6.630000E+03	1.512020E-15	1.266815E-17
6.640000E+03	1.504377E-15	1.260556E-17
6.650000E+03	1.496358E-15	1.253979E-17
6.660000E+03	1.487977E-15	1.247097E-17
6.670000E+03	1.479263E-15	1.239935E-17
6.680000E+03	1.470200E-15	1.232478E-17
6.690000E+03	1.460794E-15	1.224731E-17
6.700000E+03	1.451050E-15	1.216700E-17
6.710000E+03	1.441008E-15	1.208416E-17
6.720000E+03	1.430637E-15	1.199854E-17
6.730000E+03	1.420011E-15	1.191075E-17
6.740000E+03	1.409133E-15	1.182084E-17
6.750000E+03	1.398040E-15	1.172910E-17
6.760000E+03	1.386768E-15	1.163583E-17
6.770000E+03	1.375352E-15	1.154133E-17
6.780000E+03	1.363848E-15	1.144607E-17
6.790000E+03	1.352242E-15	1.134992E-17
6.800000E+03	1.340584E-15	1.125332E-17
6.810000E+03	1.328905E-15	1.115652E-17
6.820000E+03	1.317235E-15	1.105976E-17
6.830000E+03	1.305607E-15	1.096334E-17
6.840000E+03	1.294056E-15	1.086754E-17
6.850000E+03	1.282624E-15	1.077271E-17
6.860000E+03	1.271328E-15	1.067901E-17
6.870000E+03	1.260240E-15	1.058702E-17
6.880000E+03	1.249409E-15	1.049718E-17
6.890000E+03	1.238863E-15	1.040970E-17
6.900000E+03	1.228678E-15	1.032525E-17
6.910000E+03	1.218908E-15	1.024426E-17
6.920000E+03	1.209585E-15	1.016700E-17
6.930000E+03	1.200756E-15	1.009388E-17
6.940000E+03	1.192494E-15	1.002551E-17
6.950000E+03	1.184811E-15	9.961991E-18
6.960000E+03	1.177736E-15	9.903568E-18
6.970000E+03	1.171304E-15	9.850539E-18
6.980000E+03	1.165486E-15	9.802661E-18
6.990000E+03	1.160258E-15	9.759736E-18
7.000000E+03	1.155559E-15	9.721247E-18
7.010000E+03	1.151378E-15	9.687112E-18
7.020000E+03	1.147628E-15	9.656591E-18
7.030000E+03	1.144238E-15	9.629090E-18
7.040000E+03	1.141109E-15	9.603784E-18
7.050000E+03	1.138192E-15	9.580256E-18
7.060000E+03	1.135392E-15	9.557713E-18
7.070000E+03	1.132691E-15	9.535989E-18
7.080000E+03	1.129957E-15	9.513986E-18
7.090000E+03	1.127181E-15	9.491628E-18
7.100000E+03	1.124292E-15	9.468304E-18
7.110000E+03	1.121265E-15	9.443820E-18
7.120000E+03	1.118019E-15	9.417488E-18
7.130000E+03	1.114567E-15	9.389412E-18
7.140000E+03	1.110838E-15	9.358999E-18
7.150000E+03	1.106836E-15	9.326284E-18
7.160000E+03	1.102549E-15	9.291159E-18
7.170000E+03	1.097969E-15	9.253557E-18
7.180000E+03	1.093074E-15	9.213292E-18
7.190000E+03	1.087864E-15	9.170375E-18
7.200000E+03	1.082369E-15	9.125035E-18
7.210000E+03	1.076569E-15	9.077126E-18
7.220000E+03	1.070494E-15	9.026885E-18
7.230000E+03	1.064104E-15	8.973978E-18
7.240000E+03	1.057448E-15	8.918823E-18
7.250000E+03	1.050509E-15	8.861271E-18
7.260000E+03	1.043295E-15	8.801389E-18
7.270000E+03	1.035817E-15	8.739264E-18
7.280000E+03	1.028084E-15	8.674984E-18
7.290000E+03	1.020113E-15	8.608691E-18
7.300000E+03	1.011948E-15	8.540738E-18
7.310000E+03	1.003565E-15	8.470945E-18
7.320000E+03	9.950598E-16	8.400102E-18
7.330000E+03	9.864387E-16	8.328272E-18
7.340000E+03	9.777103E-16	8.255525E-18
7.350000E+03	9.689715E-16	8.182678E-18
7.360000E+03	9.602084E-16	8.109615E-18
7.370000E+03	9.515141E-16	8.037121E-18
7.380000E+03	9.428901E-16	7.965211E-18
7.390000E+03	9.343797E-16	7.894250E-18
7.400000E+03	9.260195E-16	7.824548E-18
7.410000E+03	9.178238E-16	7.756226E-18
7.420000E+03	9.098469E-16	7.689743E-18
7.430000E+03	9.021186E-16	7.625353E-18
7.440000E+03	8.946259E-16	7.562946E-18
7.450000E+03	8.873763E-16	7.502586E-18
7.460000E+03	8.803768E-16	7.444335E-18
7.470000E+03	8.736136E-16	7.388075E-18
7.480000E+03	8.670720E-16	7.333683E-18
7.490000E+03	8.607375E-16	7.281038E-18
7.500000E+03	8.546152E-16	7.230182E-18
7.510000E+03	8.486882E-16	7.180975E-18
7.520000E+03	8.429387E-16	7.133266E-18
7.530000E+03	8.373878E-16	7.087234E-18
7.540000E+03	8.319935E-16	7.042525E-18
7.550000E+03	8.267531E-16	6.999117E-18
7.560000E+03	8.216627E-16	6.956977E-18
7.570000E+03	8.167177E-16	6.916067E-18
7.580000E+03	8.119139E-16	6.876351E-18
7.590000E+03	8.072266E-16	6.837622E-18
7.600000E+03	8.026526E-16	6.799853E-18
7.610000E+03	7.982086E-16	6.763185E-18
7.620000E+03	7.938716E-16	6.727424E-18
7.630000E+03	7.896585E-16	6.692714E-18
7.640000E+03	7.855268E-16	6.658697E-18
7.650000E+03	7.815140E-16	6.625687E-18
7.660000E+03	7.775972E-16	6.593496E-18
7.670000E+03	7.737741E-16	6.562100E-18
7.680000E+03	7.700418E-16	6.531478E-18
7.690000E+03	7.664176E-16	6.501776E-18
7.700000E+03	7.628789E-16	6.472804E-18
7.710000E+03	7.594230E-16	6.444537E-18
7.720000E+03	7.560666E-16	6.417120E-18
7.730000E+03	7.528071E-16	6.390530E-18
7.740000E+03	7.496216E-16	6.364573E-18
7.750000E+03	7.465269E-16	6.339393E-18
7.760000E+03	7.435200E-16	6.314965E-18
