#wls	flux	fluxerr
1.600000E+03	3.388126E-16	3.156358E-18
1.640000E+03	3.467295E-16	3.225215E-18
1.680000E+03	3.550558E-16	3.297534E-18
1.720000E+03	3.638625E-16	3.373945E-18
1.760000E+03	3.731381E-16	3.454311E-18
1.800000E+03	3.829101E-16	3.538854E-18
1.840000E+03	3.932452E-16	3.628151E-18
1.880000E+03	4.041267E-16	3.722013E-18
1.920000E+03	4.156169E-16	3.820970E-18
1.960000E+03	4.276946E-16	3.924786E-18
2.000000E+03	4.404577E-16	4.034310E-18
2.040000E+03	4.538792E-16	4.149245E-18
2.080000E+03	4.680100E-16	4.270005E-18
2.120000E+03	4.828973E-16	4.396963E-18
2.160000E+03	4.987036E-16	4.531536E-18
2.200000E+03	5.155057E-16	4.674347E-18
2.240000E+03	5.336516E-16	4.828469E-18
2.280000E+03	5.533589E-16	4.995765E-18
2.320000E+03	5.747551E-16	5.177265E-18
2.360000E+03	5.978391E-16	5.372832E-18
2.400000E+03	6.225619E-16	5.581891E-18
2.440000E+03	6.489041E-16	5.804137E-18
2.480000E+03	6.768751E-16	6.039517E-18
2.520000E+03	7.065485E-16	6.288545E-18
2.560000E+03	7.379835E-16	6.551598E-18
2.600000E+03	7.711491E-16	6.828246E-18
2.640000E+03	8.061126E-16	7.118924E-18
2.680000E+03	8.428136E-16	7.422934E-18
2.720000E+03	8.812143E-16	7.739778E-18
2.760000E+03	9.212267E-16	8.068520E-18
2.800000E+03	9.627144E-16	8.407807E-18
2.840000E+03	1.005565E-15	8.756509E-18
2.880000E+03	1.049588E-15	9.112811E-18
2.920000E+03	1.094852E-15	9.477193E-18
2.960000E+03	1.141636E-15	9.851920E-18
3.000000E+03	1.190442E-15	1.024113E-17
3.010000E+03	1.202999E-15	1.034102E-17
3.020000E+03	1.215713E-15	1.044206E-17
3.030000E+03	1.228609E-15	1.054446E-17
3.040000E+03	1.241682E-15	1.064818E-17
3.050000E+03	1.254926E-15	1.075316E-17
3.060000E+03	1.268398E-15	1.085988E-17
3.070000E+03	1.282027E-15	1.096774E-17
3.080000E+03	1.295870E-15	1.107720E-17
3.090000E+03	1.309920E-15	1.118822E-17
3.100000E+03	1.324201E-15	1.130099E-17
3.110000E+03	1.338704E-15	1.141543E-17
3.120000E+03	1.353453E-15	1.153174E-17
3.130000E+03	1.368439E-15	1.164983E-17
3.140000E+03	1.383656E-15	1.176965E-17
3.150000E+03	1.399126E-15	1.189137E-17
3.160000E+03	1.414869E-15	1.201517E-17
3.170000E+03	1.430877E-15	1.214097E-17
3.180000E+03	1.447140E-15	1.226868E-17
3.190000E+03	1.463681E-15	1.239849E-17
3.200000E+03	1.480518E-15	1.253053E-17
3.210000E+03	1.497643E-15	1.266475E-17
3.220000E+03	1.515044E-15	1.280103E-17
3.230000E+03	1.532714E-15	1.293930E-17
3.240000E+03	1.550700E-15	1.307996E-17
3.250000E+03	1.568991E-15	1.322291E-17
3.260000E+03	1.587578E-15	1.336805E-17
3.270000E+03	1.606450E-15	1.351529E-17
3.280000E+03	1.625624E-15	1.366478E-17
3.290000E+03	1.645064E-15	1.381619E-17
3.300000E+03	1.664841E-15	1.397013E-17
3.310000E+03	1.684890E-15	1.412603E-17
3.320000E+03	1.705201E-15	1.428380E-17
3.330000E+03	1.725817E-15	1.444381E-17
3.340000E+03	1.746702E-15	1.460574E-17
3.350000E+03	1.767845E-15	1.476949E-17
3.360000E+03	1.789237E-15	1.493498E-17
3.370000E+03	1.810868E-15	1.510212E-17
3.380000E+03	1.832730E-15	1.527085E-17
3.390000E+03	1.854784E-15	1.544083E-17
3.400000E+03	1.877077E-15	1.561244E-17
3.410000E+03	1.899523E-15	1.578497E-17
3.420000E+03	1.922112E-15	1.595833E-17
3.430000E+03	1.944864E-15	1.613269E-17
3.440000E+03	1.967723E-15	1.630757E-17
3.450000E+03	1.990632E-15	1.648250E-17
3.460000E+03	2.013611E-15	1.665765E-17
3.470000E+03	2.036610E-15	1.683259E-17
3.480000E+03	2.059573E-15	1.700688E-17
3.490000E+03	2.082478E-15	1.718032E-17
3.500000E+03	2.105274E-15	1.735250E-17
3.510000E+03	2.127869E-15	1.752267E-17
3.520000E+03	2.150244E-15	1.769066E-17
3.530000E+03	2.172308E-15	1.785575E-17
3.540000E+03	2.194001E-15	1.801744E-17
3.550000E+03	2.215193E-15	1.817468E-17
3.560000E+03	2.235830E-15	1.832704E-17
3.570000E+03	2.255817E-15	1.847374E-17
3.580000E+03	2.275036E-15	1.861386E-17
3.590000E+03	2.293448E-15	1.874707E-17
3.600000E+03	2.310970E-15	1.887272E-17
3.610000E+03	2.327524E-15	1.899020E-17
3.620000E+03	2.343109E-15	1.909952E-17
3.630000E+03	2.357722E-15	1.920069E-17
3.640000E+03	2.371415E-15	1.929414E-17
3.650000E+03	2.384174E-15	1.937979E-17
3.660000E+03	2.396058E-15	1.945813E-17
3.670000E+03	2.407107E-15	1.952952E-17
3.680000E+03	2.417433E-15	1.959488E-17
3.690000E+03	2.427044E-15	1.965430E-17
3.700000E+03	2.436083E-15	1.970894E-17
3.710000E+03	2.444592E-15	1.975917E-17
3.720000E+03	2.452678E-15	1.980586E-17
3.730000E+03	2.460457E-15	1.984995E-17
3.740000E+03	2.468011E-15	1.989213E-17
3.750000E+03	2.475426E-15	1.993308E-17
3.760000E+03	2.482829E-15	1.997383E-17
3.770000E+03	2.490278E-15	2.001485E-17
3.780000E+03	2.497908E-15	2.005723E-17
3.790000E+03	2.505747E-15	2.010118E-17
3.800000E+03	2.513911E-15	2.014764E-17
3.810000E+03	2.522426E-15	2.019681E-17
3.820000E+03	2.531367E-15	2.024927E-17
3.830000E+03	2.540766E-15	2.030530E-17
3.840000E+03	2.550605E-15	2.036471E-17
3.850000E+03	2.560933E-15	2.042790E-17
3.860000E+03	2.571718E-15	2.049461E-17
3.870000E+03	2.582916E-15	2.056448E-17
3.880000E+03	2.594515E-15	2.063739E-17
3.890000E+03	2.606428E-15	2.071267E-17
3.900000E+03	2.618645E-15	2.079022E-17
3.910000E+03	2.631067E-15	2.086925E-17
3.920000E+03	2.643652E-15	2.094943E-17
3.930000E+03	2.656313E-15	2.103007E-17
3.940000E+03	2.668966E-15	2.111051E-17
3.950000E+03	2.681563E-15	2.119035E-17
3.960000E+03	2.693993E-15	2.126876E-17
3.970000E+03	2.706210E-15	2.134534E-17
3.980000E+03	2.718110E-15	2.141931E-17
3.990000E+03	2.729589E-15	2.148984E-17
4.000000E+03	2.740558E-15	2.155625E-17
4.010000E+03	2.750913E-15	2.161775E-17
4.020000E+03	2.760506E-15	2.167317E-17
4.030000E+03	2.769230E-15	2.172171E-17
4.040000E+03	2.776969E-15	2.176248E-17
4.050000E+03	2.783591E-15	2.179445E-17
4.060000E+03	2.788949E-15	2.181653E-17
4.070000E+03	2.792977E-15	2.182820E-17
4.080000E+03	2.795577E-15	2.182875E-17
4.090000E+03	2.796676E-15	2.181764E-17
4.100000E+03	2.796235E-15	2.179459E-17
4.110000E+03	2.794237E-15	2.175952E-17
4.120000E+03	2.790701E-15	2.171259E-17
4.130000E+03	2.785714E-15	2.165452E-17
4.140000E+03	2.779329E-15	2.158577E-17
4.150000E+03	2.771651E-15	2.150716E-17
4.160000E+03	2.762803E-15	2.141969E-17
4.170000E+03	2.752982E-15	2.132491E-17
4.180000E+03	2.742343E-15	2.122403E-17
4.190000E+03	2.731121E-15	2.111889E-17
4.200000E+03	2.719548E-15	2.101130E-17
4.210000E+03	2.707905E-15	2.090343E-17
4.220000E+03	2.696485E-15	2.079755E-17
4.230000E+03	2.685635E-15	2.069633E-17
4.240000E+03	2.675668E-15	2.060216E-17
4.250000E+03	2.666938E-15	2.051776E-17
4.260000E+03	2.659748E-15	2.044543E-17
4.270000E+03	2.654426E-15	2.038767E-17
4.280000E+03	2.651259E-15	2.034664E-17
4.290000E+03	2.650489E-15	2.032416E-17
4.300000E+03	2.652332E-15	2.032184E-17
4.310000E+03	2.656968E-15	2.034101E-17
4.320000E+03	2.664486E-15	2.038232E-17
4.330000E+03	2.674949E-15	2.044618E-17
4.340000E+03	2.688344E-15	2.053246E-17
4.350000E+03	2.704548E-15	2.064016E-17
4.360000E+03	2.723470E-15	2.076855E-17
4.370000E+03	2.744898E-15	2.091597E-17
4.380000E+03	2.768614E-15	2.108073E-17
4.390000E+03	2.794379E-15	2.126096E-17
4.400000E+03	2.821888E-15	2.145432E-17
4.410000E+03	2.850788E-15	2.165810E-17
4.420000E+03	2.880752E-15	2.186981E-17
4.430000E+03	2.911366E-15	2.208628E-17
4.440000E+03	2.942249E-15	2.230462E-17
4.450000E+03	2.973039E-15	2.252209E-17
4.460000E+03	3.003360E-15	2.273585E-17
4.470000E+03	3.032835E-15	2.294307E-17
4.480000E+03	3.061123E-15	2.314118E-17
4.490000E+03	3.087864E-15	2.332748E-17
4.500000E+03	3.112707E-15	2.349935E-17
4.510000E+03	3.135395E-15	2.365489E-17
4.520000E+03	3.155610E-15	2.379173E-17
4.530000E+03	3.173085E-15	2.390791E-17
4.540000E+03	3.187582E-15	2.400166E-17
4.550000E+03	3.198914E-15	2.407164E-17
4.560000E+03	3.206966E-15	2.411702E-17
4.570000E+03	3.211637E-15	2.413709E-17
4.580000E+03	3.212895E-15	2.413167E-17
4.590000E+03	3.210751E-15	2.410087E-17
4.600000E+03	3.205288E-15	2.404538E-17
4.610000E+03	3.196616E-15	2.396605E-17
4.620000E+03	3.184861E-15	2.386387E-17
4.630000E+03	3.170230E-15	2.374044E-17
4.640000E+03	3.152949E-15	2.359748E-17
4.650000E+03	3.133274E-15	2.343693E-17
4.660000E+03	3.111420E-15	2.326042E-17
4.670000E+03	3.087703E-15	2.307036E-17
4.680000E+03	3.062371E-15	2.286859E-17
4.690000E+03	3.035739E-15	2.265750E-17
4.700000E+03	3.008117E-15	2.243941E-17
4.710000E+03	2.979747E-15	2.221612E-17
4.720000E+03	2.950933E-15	2.198991E-17
4.730000E+03	2.921938E-15	2.176273E-17
4.740000E+03	2.893003E-15	2.153638E-17
4.750000E+03	2.864350E-15	2.131251E-17
4.760000E+03	2.836175E-15	2.109256E-17
4.770000E+03	2.808599E-15	2.087743E-17
4.780000E+03	2.781780E-15	2.066827E-17
4.790000E+03	2.755849E-15	2.046605E-17
4.800000E+03	2.730904E-15	2.027148E-17
4.810000E+03	2.707031E-15	2.008519E-17
4.820000E+03	2.684332E-15	1.990791E-17
4.830000E+03	2.662859E-15	1.974003E-17
4.840000E+03	2.642716E-15	1.958229E-17
4.850000E+03	2.623992E-15	1.943533E-17
4.860000E+03	2.606758E-15	1.929968E-17
4.870000E+03	2.591146E-15	1.917628E-17
4.880000E+03	2.577273E-15	1.906600E-17
4.890000E+03	2.565271E-15	1.896977E-17
4.900000E+03	2.555270E-15	1.888856E-17
4.910000E+03	2.547381E-15	1.882315E-17
4.920000E+03	2.541785E-15	1.877488E-17
4.930000E+03	2.538560E-15	1.874428E-17
4.940000E+03	2.537839E-15	1.873235E-17
4.950000E+03	2.539721E-15	1.873977E-17
4.960000E+03	2.544253E-15	1.876688E-17
4.970000E+03	2.551494E-15	1.881410E-17
4.980000E+03	2.561448E-15	1.888144E-17
4.990000E+03	2.574080E-15	1.896861E-17
5.000000E+03	2.589250E-15	1.907459E-17
5.010000E+03	2.606895E-15	1.919888E-17
5.020000E+03	2.626760E-15	1.933960E-17
5.030000E+03	2.648654E-15	1.949534E-17
5.040000E+03	2.672293E-15	1.966399E-17
5.050000E+03	2.697305E-15	1.984283E-17
5.060000E+03	2.723360E-15	2.002940E-17
5.070000E+03	2.750097E-15	2.022107E-17
5.080000E+03	2.777066E-15	2.041452E-17
5.090000E+03	2.803887E-15	2.060698E-17
5.100000E+03	2.830154E-15	2.079545E-17
5.110000E+03	2.855473E-15	2.097706E-17
5.120000E+03	2.879461E-15	2.114901E-17
5.130000E+03	2.901790E-15	2.130890E-17
5.140000E+03	2.922185E-15	2.145471E-17
5.150000E+03	2.940359E-15	2.158438E-17
5.160000E+03	2.956086E-15	2.169623E-17
5.170000E+03	2.969176E-15	2.178889E-17
5.180000E+03	2.979489E-15	2.186135E-17
5.190000E+03	2.986893E-15	2.191266E-17
5.200000E+03	2.991352E-15	2.194256E-17
5.210000E+03	2.992856E-15	2.195098E-17
5.220000E+03	2.991397E-15	2.193789E-17
5.230000E+03	2.987039E-15	2.190375E-17
5.240000E+03	2.979920E-15	2.184960E-17
5.250000E+03	2.970153E-15	2.177625E-17
5.260000E+03	2.957876E-15	2.168472E-17
5.270000E+03	2.943314E-15	2.157668E-17
5.280000E+03	2.926678E-15	2.145366E-17
5.290000E+03	2.908196E-15	2.131733E-17
5.300000E+03	2.888085E-15	2.116930E-17
5.310000E+03	2.866599E-15	2.101142E-17
5.320000E+03	2.843985E-15	2.084549E-17
5.330000E+03	2.820506E-15	2.067343E-17
5.340000E+03	2.796410E-15	2.049708E-17
5.350000E+03	2.771887E-15	2.031781E-17
5.360000E+03	2.747158E-15	2.013723E-17
5.370000E+03	2.722356E-15	1.995632E-17
5.380000E+03	2.697607E-15	1.977600E-17
5.390000E+03	2.672985E-15	1.959679E-17
5.400000E+03	2.648585E-15	1.941939E-17
5.410000E+03	2.624420E-15	1.924388E-17
5.420000E+03	2.600512E-15	1.907041E-17
5.430000E+03	2.576847E-15	1.889889E-17
5.440000E+03	2.553415E-15	1.872921E-17
5.450000E+03	2.530184E-15	1.856115E-17
5.460000E+03	2.507136E-15	1.839456E-17
5.470000E+03	2.484161E-15	1.822862E-17
5.480000E+03	2.461245E-15	1.806323E-17
5.490000E+03	2.438343E-15	1.789806E-17
5.500000E+03	2.415464E-15	1.773315E-17
5.510000E+03	2.392637E-15	1.756871E-17
5.520000E+03	2.369871E-15	1.740481E-17
5.530000E+03	2.347257E-15	1.724210E-17
5.540000E+03	2.324822E-15	1.708078E-17
5.550000E+03	2.302594E-15	1.692105E-17
5.560000E+03	2.280627E-15	1.676330E-17
5.570000E+03	2.259000E-15	1.660810E-17
5.580000E+03	2.237745E-15	1.645568E-17
5.590000E+03	2.216911E-15	1.630641E-17
5.600000E+03	2.196544E-15	1.616061E-17
5.610000E+03	2.176685E-15	1.601860E-17
5.620000E+03	2.157373E-15	1.588064E-17
5.630000E+03	2.138640E-15	1.574697E-17
5.640000E+03	2.120497E-15	1.561768E-17
5.650000E+03	2.102986E-15	1.549307E-17
5.660000E+03	2.086104E-15	1.537311E-17
5.670000E+03	2.069882E-15	1.525804E-17
5.680000E+03	2.054295E-15	1.514767E-17
5.690000E+03	2.039327E-15	1.504189E-17
5.700000E+03	2.024968E-15	1.494061E-17
5.710000E+03	2.011154E-15	1.484337E-17
5.720000E+03	1.997842E-15	1.474986E-17
5.730000E+03	1.984934E-15	1.465934E-17
5.740000E+03	1.972350E-15	1.457122E-17
5.750000E+03	1.959997E-15	1.448483E-17
5.760000E+03	1.947821E-15	1.439974E-17
5.770000E+03	1.935666E-15	1.431483E-17
5.780000E+03	1.923499E-15	1.422982E-17
5.790000E+03	1.911166E-15	1.414359E-17
5.800000E+03	1.898650E-15	1.405599E-17
5.810000E+03	1.885859E-15	1.396636E-17
5.820000E+03	1.872714E-15	1.387409E-17
5.830000E+03	1.859217E-15	1.377919E-17
5.840000E+03	1.845324E-15	1.368132E-17
5.850000E+03	1.831049E-15	1.358061E-17
5.860000E+03	1.816357E-15	1.347676E-17
5.870000E+03	1.801331E-15	1.337041E-17
5.880000E+03	1.785962E-15	1.326146E-17
5.890000E+03	1.770327E-15	1.315049E-17
5.900000E+03	1.754423E-15	1.303747E-17
5.910000E+03	1.738332E-15	1.292301E-17
5.920000E+03	1.722094E-15	1.280740E-17
5.930000E+03	1.705741E-15	1.269087E-17
5.940000E+03	1.689287E-15	1.257353E-17
5.950000E+03	1.672798E-15	1.245586E-17
5.960000E+03	1.656297E-15	1.233803E-17
5.970000E+03	1.639784E-15	1.222004E-17
5.980000E+03	1.623315E-15	1.210231E-17
5.990000E+03	1.606883E-15	1.198478E-17
6.000000E+03	1.590519E-15	1.186767E-17
6.010000E+03	1.574254E-15	1.175123E-17
6.020000E+03	1.558083E-15	1.163541E-17
6.030000E+03	1.542044E-15	1.152050E-17
6.040000E+03	1.526179E-15	1.140681E-17
6.050000E+03	1.510536E-15	1.129469E-17
6.060000E+03	1.495131E-15	1.118428E-17
6.070000E+03	1.480023E-15	1.107601E-17
6.080000E+03	1.465298E-15	1.097052E-17
6.090000E+03	1.450985E-15	1.086804E-17
6.100000E+03	1.437178E-15	1.076927E-17
6.110000E+03	1.423918E-15	1.067453E-17
6.120000E+03	1.411323E-15	1.058470E-17
6.130000E+03	1.399430E-15	1.050007E-17
6.140000E+03	1.388299E-15	1.042109E-17
6.150000E+03	1.378015E-15	1.034840E-17
6.160000E+03	1.368601E-15	1.028220E-17
6.170000E+03	1.360067E-15	1.022256E-17
6.180000E+03	1.352463E-15	1.016986E-17
6.190000E+03	1.345795E-15	1.012416E-17
6.200000E+03	1.340031E-15	1.008523E-17
6.210000E+03	1.335166E-15	1.005303E-17
6.220000E+03	1.331133E-15	1.002708E-17
6.230000E+03	1.327912E-15	1.000721E-17
6.240000E+03	1.325455E-15	9.993099E-18
6.250000E+03	1.323699E-15	9.984259E-18
6.260000E+03	1.322601E-15	9.980376E-18
6.270000E+03	1.322096E-15	9.980961E-18
6.280000E+03	1.322159E-15	9.985842E-18
6.290000E+03	1.322748E-15	9.994694E-18
6.300000E+03	1.323817E-15	1.000718E-17
6.310000E+03	1.325286E-15	1.002270E-17
6.320000E+03	1.327164E-15	1.004133E-17
6.330000E+03	1.329365E-15	1.006241E-17
6.340000E+03	1.331876E-15	1.008586E-17
6.350000E+03	1.334624E-15	1.011112E-17
6.360000E+03	1.337554E-15	1.013777E-17
6.370000E+03	1.340624E-15	1.016551E-17
6.380000E+03	1.343797E-15	1.019404E-17
6.390000E+03	1.346990E-15	1.022275E-17
6.400000E+03	1.350165E-15	1.025134E-17
6.410000E+03	1.353265E-15	1.027937E-17
6.420000E+03	1.356212E-15	1.030627E-17
6.430000E+03	1.358935E-15	1.033148E-17
6.440000E+03	1.361410E-15	1.035482E-17
6.450000E+03	1.363555E-15	1.037565E-17
6.460000E+03	1.365335E-15	1.039372E-17
6.470000E+03	1.366728E-15	1.040885E-17
6.480000E+03	1.367696E-15	1.042074E-17
6.490000E+03	1.368231E-15	1.042934E-17
6.500000E+03	1.368325E-15	1.043456E-17
6.510000E+03	1.367937E-15	1.043610E-17
6.520000E+03	1.367092E-15	1.043415E-17
6.530000E+03	1.365799E-15	1.042876E-17
6.540000E+03	1.364071E-15	1.042003E-17
6.550000E+03	1.361878E-15	1.040772E-17
6.560000E+03	1.359257E-15	1.039212E-17
6.570000E+03	1.356222E-15	1.037333E-17
6.580000E+03	1.352770E-15	1.035132E-17
6.590000E+03	1.348909E-15	1.032614E-17
6.600000E+03	1.344673E-15	1.029806E-17
6.610000E+03	1.340053E-15	1.026699E-17
6.620000E+03	1.335059E-15	1.023302E-17
6.630000E+03	1.329702E-15	1.019622E-17
6.640000E+03	1.323999E-15	1.015672E-17
6.650000E+03	1.317966E-15	1.011464E-17
6.660000E+03	1.311602E-15	1.006996E-17
6.670000E+03	1.304951E-15	1.002303E-17
6.680000E+03	1.298036E-15	9.974017E-18
6.690000E+03	1.290882E-15	9.923113E-18
6.700000E+03	1.283496E-15	9.870365E-18
6.710000E+03	1.275949E-15	9.816319E-18
6.720000E+03	1.268225E-15	9.760850E-18
6.730000E+03	1.260357E-15	9.704210E-18
6.740000E+03	1.252415E-15	9.646943E-18
6.750000E+03	1.244389E-15	9.588964E-18
6.760000E+03	1.236329E-15	9.530653E-18
6.770000E+03	1.228242E-15	9.472079E-18
6.780000E+03	1.220201E-15	9.413794E-18
6.790000E+03	1.212189E-15	9.355679E-18
6.800000E+03	1.204254E-15	9.298088E-18
6.810000E+03	1.196420E-15	9.241213E-18
6.820000E+03	1.188706E-15	9.185214E-18
6.830000E+03	1.181137E-15	9.130269E-18
6.840000E+03	1.173729E-15	9.076517E-18
6.850000E+03	1.166483E-15	9.023958E-18
6.860000E+03	1.159455E-15	8.973032E-18
6.870000E+03	1.152620E-15	8.923541E-18
6.880000E+03	1.146034E-15	8.875932E-18
6.890000E+03	1.139690E-15	8.830146E-18
6.900000E+03	1.133580E-15	8.786116E-18
6.910000E+03	1.127754E-15	8.744254E-18
6.920000E+03	1.122205E-15	8.704484E-18
6.930000E+03	1.116936E-15	8.666843E-18
6.940000E+03	1.111954E-15	8.631396E-18
6.950000E+03	1.107281E-15	8.598304E-18
6.960000E+03	1.102875E-15	8.567243E-18
6.970000E+03	1.098772E-15	8.538507E-18
6.980000E+03	1.094942E-15	8.511853E-18
6.990000E+03	1.091374E-15	8.487206E-18
7.000000E+03	1.088051E-15	8.464435E-18
7.010000E+03	1.084976E-15	8.443568E-18
7.020000E+03	1.082106E-15	8.424269E-18
7.030000E+03	1.079416E-15	8.406338E-18
7.040000E+03	1.076899E-15	8.389740E-18
7.050000E+03	1.074503E-15	8.374058E-18
7.060000E+03	1.072221E-15	8.359240E-18
7.070000E+03	1.069997E-15	8.344855E-18
7.080000E+03	1.067798E-15	8.330648E-18
7.090000E+03	1.065616E-15	8.316546E-18
7.100000E+03	1.063418E-15	8.302301E-18
7.110000E+03	1.061151E-15	8.287498E-18
7.120000E+03	1.058829E-15	8.272246E-18
7.130000E+03	1.056361E-15	8.255832E-18
7.140000E+03	1.053785E-15	8.238557E-18
7.150000E+03	1.051036E-15	8.219902E-18
7.160000E+03	1.048114E-15	8.199876E-18
7.170000E+03	1.045022E-15	8.178496E-18
7.180000E+03	1.041703E-15	8.155319E-18
7.190000E+03	1.038166E-15	8.130410E-18
7.200000E+03	1.034423E-15	8.103868E-18
7.210000E+03	1.030426E-15	8.075306E-18
7.220000E+03	1.026214E-15	8.045034E-18
7.230000E+03	1.021788E-15	8.013059E-18
7.240000E+03	1.017128E-15	7.979224E-18
7.250000E+03	1.012241E-15	7.943573E-18
7.260000E+03	1.007132E-15	7.906159E-18
7.270000E+03	1.001856E-15	7.867398E-18
7.280000E+03	9.963612E-16	7.826893E-18
7.290000E+03	9.907245E-16	7.785240E-18
7.300000E+03	9.848997E-16	7.742078E-18
7.310000E+03	9.789665E-16	7.698034E-18
7.320000E+03	9.728809E-16	7.652758E-18
7.330000E+03	9.667060E-16	7.606748E-18
7.340000E+03	9.604400E-16	7.559990E-18
7.350000E+03	9.541024E-16	7.512636E-18
7.360000E+03	9.477157E-16	7.464864E-18
7.370000E+03	9.412548E-16	7.416476E-18
7.380000E+03	9.347828E-16	7.367967E-18
7.390000E+03	9.282543E-16	7.318983E-18
7.400000E+03	9.217276E-16	7.269982E-18
7.410000E+03	9.151755E-16	7.220750E-18
7.420000E+03	9.085925E-16	7.171244E-18
7.430000E+03	9.019911E-16	7.121562E-18
7.440000E+03	8.954246E-16	7.072125E-18
7.450000E+03	8.888823E-16	7.022851E-18
7.460000E+03	8.824346E-16	6.974296E-18
7.470000E+03	8.760470E-16	6.926187E-18
7.480000E+03	8.697668E-16	6.878901E-18
7.490000E+03	8.636188E-16	6.832634E-18
7.500000E+03	8.576060E-16	6.787412E-18
7.510000E+03	8.517307E-16	6.743254E-18
7.520000E+03	8.459937E-16	6.700169E-18
7.530000E+03	8.404160E-16	6.658323E-18
7.540000E+03	8.349765E-16	6.617552E-18
7.550000E+03	8.296943E-16	6.578008E-18
7.560000E+03	8.245675E-16	6.539678E-18
7.570000E+03	8.195740E-16	6.502389E-18
7.580000E+03	8.147125E-16	6.466130E-18
7.590000E+03	8.100022E-16	6.431057E-18
7.600000E+03	8.054424E-16	6.397165E-18
7.610000E+03	8.009914E-16	6.364124E-18
7.620000E+03	7.966893E-16	6.332255E-18
7.630000E+03	7.925151E-16	6.301393E-18
7.640000E+03	7.884680E-16	6.271531E-18
7.650000E+03	7.845271E-16	6.242506E-18
7.660000E+03	7.807320E-16	6.214634E-18
7.670000E+03	7.770614E-16	6.187747E-18
7.680000E+03	7.734941E-16	6.161677E-18
7.690000E+03	7.700694E-16	6.136739E-18
7.700000E+03	7.667455E-16	6.112601E-18
7.710000E+03	7.635410E-16	6.089413E-18
7.720000E+03	7.604548E-16	6.067167E-18
7.730000E+03	7.574849E-16	6.045850E-18
7.740000E+03	7.546299E-16	6.025450E-18
7.750000E+03	7.519082E-16	6.006117E-18
7.760000E+03	7.492775E-16	5.987515E-18
