#wls	flux	fluxerr
1.600000E+03	2.980284E-16	9.582392E-18
1.640000E+03	3.032172E-16	9.734412E-18
1.680000E+03	3.086526E-16	9.893466E-18
1.720000E+03	3.142862E-16	1.005794E-17
1.760000E+03	3.201888E-16	1.023005E-17
1.800000E+03	3.263101E-16	1.040810E-17
1.840000E+03	3.327588E-16	1.059551E-17
1.880000E+03	3.395222E-16	1.079178E-17
1.920000E+03	3.466262E-16	1.099765E-17
1.960000E+03	3.540949E-16	1.121379E-17
2.000000E+03	3.619904E-16	1.144206E-17
2.040000E+03	3.704123E-16	1.168549E-17
2.080000E+03	3.793375E-16	1.194321E-17
2.120000E+03	3.889388E-16	1.222052E-17
2.160000E+03	3.993046E-16	1.252000E-17
2.200000E+03	4.105576E-16	1.284530E-17
2.240000E+03	4.228529E-16	1.320103E-17
2.280000E+03	4.362984E-16	1.359028E-17
2.320000E+03	4.509929E-16	1.401581E-17
2.360000E+03	4.670642E-16	1.448124E-17
2.400000E+03	4.843977E-16	1.498265E-17
2.440000E+03	5.030630E-16	1.552183E-17
2.480000E+03	5.229288E-16	1.609434E-17
2.520000E+03	5.440442E-16	1.670132E-17
2.560000E+03	5.662970E-16	1.733894E-17
2.600000E+03	5.896771E-16	1.800650E-17
2.640000E+03	6.141256E-16	1.870184E-17
2.680000E+03	6.396442E-16	1.942461E-17
2.720000E+03	6.660430E-16	2.016869E-17
2.760000E+03	6.933361E-16	2.093413E-17
2.800000E+03	7.214182E-16	2.171742E-17
2.840000E+03	7.502077E-16	2.251577E-17
2.880000E+03	7.796447E-16	2.332707E-17
2.920000E+03	8.098197E-16	2.415370E-17
2.960000E+03	8.408632E-16	2.499922E-17
3.000000E+03	8.729710E-16	2.586905E-17
3.010000E+03	8.812203E-16	2.609191E-17
3.020000E+03	8.895491E-16	2.631664E-17
3.030000E+03	8.979525E-16	2.654309E-17
3.040000E+03	9.064874E-16	2.677292E-17
3.050000E+03	9.151173E-16	2.700504E-17
3.060000E+03	9.238674E-16	2.724020E-17
3.070000E+03	9.327020E-16	2.747733E-17
3.080000E+03	9.417057E-16	2.771891E-17
3.090000E+03	9.508124E-16	2.796298E-17
3.100000E+03	9.600460E-16	2.821024E-17
3.110000E+03	9.694300E-16	2.846135E-17
3.120000E+03	9.789577E-16	2.871613E-17
3.130000E+03	9.886519E-16	2.897520E-17
3.140000E+03	9.984766E-16	2.923752E-17
3.150000E+03	1.008483E-15	2.950456E-17
3.160000E+03	1.018663E-15	2.977608E-17
3.170000E+03	1.029039E-15	3.005270E-17
3.180000E+03	1.039574E-15	3.033332E-17
3.190000E+03	1.050290E-15	3.061861E-17
3.200000E+03	1.061205E-15	3.090903E-17
3.210000E+03	1.072314E-15	3.120442E-17
3.220000E+03	1.083634E-15	3.150532E-17
3.230000E+03	1.095158E-15	3.181142E-17
3.240000E+03	1.106906E-15	3.212333E-17
3.250000E+03	1.118868E-15	3.244073E-17
3.260000E+03	1.131036E-15	3.276336E-17
3.270000E+03	1.143428E-15	3.309176E-17
3.280000E+03	1.156037E-15	3.342565E-17
3.290000E+03	1.168853E-15	3.376476E-17
3.300000E+03	1.181922E-15	3.411039E-17
3.310000E+03	1.195208E-15	3.446149E-17
3.320000E+03	1.208703E-15	3.481779E-17
3.330000E+03	1.222400E-15	3.517909E-17
3.340000E+03	1.236343E-15	3.554661E-17
3.350000E+03	1.250473E-15	3.591865E-17
3.360000E+03	1.264808E-15	3.629570E-17
3.370000E+03	1.279342E-15	3.667760E-17
3.380000E+03	1.294046E-15	3.706344E-17
3.390000E+03	1.308910E-15	3.745299E-17
3.400000E+03	1.323959E-15	3.784690E-17
3.410000E+03	1.339113E-15	3.824287E-17
3.420000E+03	1.354419E-15	3.864225E-17
3.430000E+03	1.369802E-15	3.904287E-17
3.440000E+03	1.385285E-15	3.944539E-17
3.450000E+03	1.400797E-15	3.984779E-17
3.460000E+03	1.416362E-15	4.025075E-17
3.470000E+03	1.431915E-15	4.065235E-17
3.480000E+03	1.447458E-15	4.105273E-17
3.490000E+03	1.462929E-15	4.145010E-17
3.500000E+03	1.478333E-15	4.184463E-17
3.510000E+03	1.493612E-15	4.223464E-17
3.520000E+03	1.508753E-15	4.261978E-17
3.530000E+03	1.523724E-15	4.299917E-17
3.540000E+03	1.538492E-15	4.337191E-17
3.550000E+03	1.553048E-15	4.373778E-17
3.560000E+03	1.567325E-15	4.409483E-17
3.570000E+03	1.581315E-15	4.444294E-17
3.580000E+03	1.595018E-15	4.478208E-17
3.590000E+03	1.608409E-15	4.511163E-17
3.600000E+03	1.621467E-15	4.543097E-17
3.610000E+03	1.634173E-15	4.573964E-17
3.620000E+03	1.646527E-15	4.603767E-17
3.630000E+03	1.658534E-15	4.632519E-17
3.640000E+03	1.670134E-15	4.660059E-17
3.650000E+03	1.681353E-15	4.686462E-17
3.660000E+03	1.692154E-15	4.711630E-17
3.670000E+03	1.702586E-15	4.735700E-17
3.680000E+03	1.712631E-15	4.758629E-17
3.690000E+03	1.722294E-15	4.780433E-17
3.700000E+03	1.731604E-15	4.801193E-17
3.710000E+03	1.740561E-15	4.820915E-17
3.720000E+03	1.749210E-15	4.839728E-17
3.730000E+03	1.757534E-15	4.857588E-17
3.740000E+03	1.765576E-15	4.874612E-17
3.750000E+03	1.773354E-15	4.890858E-17
3.760000E+03	1.780907E-15	4.906434E-17
3.770000E+03	1.788235E-15	4.921340E-17
3.780000E+03	1.795374E-15	4.935680E-17
3.790000E+03	1.802337E-15	4.949490E-17
3.800000E+03	1.809159E-15	4.962870E-17
3.810000E+03	1.815834E-15	4.975801E-17
3.820000E+03	1.822427E-15	4.988466E-17
3.830000E+03	1.828911E-15	5.000794E-17
3.840000E+03	1.835332E-15	5.012907E-17
3.850000E+03	1.841676E-15	5.024772E-17
3.860000E+03	1.848006E-15	5.036557E-17
3.870000E+03	1.854288E-15	5.048176E-17
3.880000E+03	1.860543E-15	5.059679E-17
3.890000E+03	1.866809E-15	5.071179E-17
3.900000E+03	1.873069E-15	5.082620E-17
3.910000E+03	1.879338E-15	5.094053E-17
3.920000E+03	1.885634E-15	5.105523E-17
3.930000E+03	1.891939E-15	5.116978E-17
3.940000E+03	1.898282E-15	5.128501E-17
3.950000E+03	1.904662E-15	5.140089E-17
3.960000E+03	1.911057E-15	5.151681E-17
3.970000E+03	1.917499E-15	5.163364E-17
3.980000E+03	1.923983E-15	5.175127E-17
3.990000E+03	1.930524E-15	5.187006E-17
4.000000E+03	1.937099E-15	5.198943E-17
4.010000E+03	1.943722E-15	5.210974E-17
4.020000E+03	1.950392E-15	5.223097E-17
4.030000E+03	1.957106E-15	5.235303E-17
4.040000E+03	1.963898E-15	5.247685E-17
4.050000E+03	1.970732E-15	5.260145E-17
4.060000E+03	1.977643E-15	5.272775E-17
4.070000E+03	1.984616E-15	5.285539E-17
4.080000E+03	1.991671E-15	5.298490E-17
4.090000E+03	1.998812E-15	5.311634E-17
4.100000E+03	2.006027E-15	5.324941E-17
4.110000E+03	2.013357E-15	5.338522E-17
4.120000E+03	2.020792E-15	5.352350E-17
4.130000E+03	2.028343E-15	5.366450E-17
4.140000E+03	2.036018E-15	5.380845E-17
4.150000E+03	2.043846E-15	5.395613E-17
4.160000E+03	2.051821E-15	5.410735E-17
4.170000E+03	2.059974E-15	5.426293E-17
4.180000E+03	2.068300E-15	5.442273E-17
4.190000E+03	2.076793E-15	5.458658E-17
4.200000E+03	2.085504E-15	5.475582E-17
4.210000E+03	2.094427E-15	5.493027E-17
4.220000E+03	2.103556E-15	5.510976E-17
4.230000E+03	2.112920E-15	5.529508E-17
4.240000E+03	2.122494E-15	5.548551E-17
4.250000E+03	2.132303E-15	5.568172E-17
4.260000E+03	2.142337E-15	5.588346E-17
4.270000E+03	2.152583E-15	5.609034E-17
4.280000E+03	2.163043E-15	5.630241E-17
4.290000E+03	2.173678E-15	5.651868E-17
4.300000E+03	2.184487E-15	5.673907E-17
4.310000E+03	2.195405E-15	5.696195E-17
4.320000E+03	2.206423E-15	5.718704E-17
4.330000E+03	2.217490E-15	5.741303E-17
4.340000E+03	2.228566E-15	5.763892E-17
4.350000E+03	2.239574E-15	5.786268E-17
4.360000E+03	2.250481E-15	5.808353E-17
4.370000E+03	2.261256E-15	5.830064E-17
4.380000E+03	2.271913E-15	5.851442E-17
4.390000E+03	2.282426E-15	5.872421E-17
4.400000E+03	2.292762E-15	5.892922E-17
4.410000E+03	2.302948E-15	5.913012E-17
4.420000E+03	2.312929E-15	5.932551E-17
4.430000E+03	2.322689E-15	5.951504E-17
4.440000E+03	2.332211E-15	5.969823E-17
4.450000E+03	2.341436E-15	5.987364E-17
4.460000E+03	2.350349E-15	6.004091E-17
4.470000E+03	2.358935E-15	6.019968E-17
4.480000E+03	2.367117E-15	6.034800E-17
4.490000E+03	2.374907E-15	6.048620E-17
4.500000E+03	2.382231E-15	6.061247E-17
4.510000E+03	2.389085E-15	6.072670E-17
4.520000E+03	2.395446E-15	6.082836E-17
4.530000E+03	2.401252E-15	6.091590E-17
4.540000E+03	2.406508E-15	6.098953E-17
4.550000E+03	2.411185E-15	6.104850E-17
4.560000E+03	2.415277E-15	6.109274E-17
4.570000E+03	2.418761E-15	6.112171E-17
4.580000E+03	2.421646E-15	6.113565E-17
4.590000E+03	2.423917E-15	6.113427E-17
4.600000E+03	2.425594E-15	6.111809E-17
4.610000E+03	2.426700E-15	6.108773E-17
4.620000E+03	2.427239E-15	6.104335E-17
4.630000E+03	2.427246E-15	6.098586E-17
4.640000E+03	2.426760E-15	6.091627E-17
4.650000E+03	2.425847E-15	6.083627E-17
4.660000E+03	2.424512E-15	6.074601E-17
4.670000E+03	2.422829E-15	6.064738E-17
4.680000E+03	2.420855E-15	6.054183E-17
4.690000E+03	2.418674E-15	6.043148E-17
4.700000E+03	2.416282E-15	6.031623E-17
4.710000E+03	2.413746E-15	6.019776E-17
4.720000E+03	2.411045E-15	6.007560E-17
4.730000E+03	2.408209E-15	5.995044E-17
4.740000E+03	2.405239E-15	5.982237E-17
4.750000E+03	2.402188E-15	5.969268E-17
4.760000E+03	2.399061E-15	5.956149E-17
4.770000E+03	2.395887E-15	5.942958E-17
4.780000E+03	2.392692E-15	5.929755E-17
4.790000E+03	2.389505E-15	5.916612E-17
4.800000E+03	2.386394E-15	5.903699E-17
4.810000E+03	2.383383E-15	5.891073E-17
4.820000E+03	2.380493E-15	5.878786E-17
4.830000E+03	2.377787E-15	5.866992E-17
4.840000E+03	2.375304E-15	5.855786E-17
4.850000E+03	2.373053E-15	5.845192E-17
4.860000E+03	2.371114E-15	5.835401E-17
4.870000E+03	2.369469E-15	5.826369E-17
4.880000E+03	2.368185E-15	5.818257E-17
4.890000E+03	2.367283E-15	5.811117E-17
4.900000E+03	2.366778E-15	5.804981E-17
4.910000E+03	2.366681E-15	5.799877E-17
4.920000E+03	2.367022E-15	5.795872E-17
4.930000E+03	2.367780E-15	5.792912E-17
4.940000E+03	2.368973E-15	5.791044E-17
4.950000E+03	2.370594E-15	5.790245E-17
4.960000E+03	2.372653E-15	5.790538E-17
4.970000E+03	2.375134E-15	5.791878E-17
4.980000E+03	2.377992E-15	5.794157E-17
4.990000E+03	2.381243E-15	5.797413E-17
5.000000E+03	2.384837E-15	5.801521E-17
5.010000E+03	2.388737E-15	5.806386E-17
5.020000E+03	2.392903E-15	5.811915E-17
5.030000E+03	2.397316E-15	5.818055E-17
5.040000E+03	2.401927E-15	5.824693E-17
5.050000E+03	2.406667E-15	5.831656E-17
5.060000E+03	2.411503E-15	5.838868E-17
5.070000E+03	2.416383E-15	5.846197E-17
5.080000E+03	2.421226E-15	5.853455E-17
5.090000E+03	2.425998E-15	5.860555E-17
5.100000E+03	2.430643E-15	5.867363E-17
5.110000E+03	2.435099E-15	5.873736E-17
5.120000E+03	2.439288E-15	5.879480E-17
5.130000E+03	2.443197E-15	5.884572E-17
5.140000E+03	2.446705E-15	5.888719E-17
5.150000E+03	2.449801E-15	5.891901E-17
5.160000E+03	2.452439E-15	5.894006E-17
5.170000E+03	2.454547E-15	5.894866E-17
5.180000E+03	2.456082E-15	5.894381E-17
5.190000E+03	2.457028E-15	5.892516E-17
5.200000E+03	2.457302E-15	5.889077E-17
5.210000E+03	2.456900E-15	5.884054E-17
5.220000E+03	2.455795E-15	5.877391E-17
5.230000E+03	2.453969E-15	5.869047E-17
5.240000E+03	2.451381E-15	5.858928E-17
5.250000E+03	2.448047E-15	5.847074E-17
5.260000E+03	2.443914E-15	5.833366E-17
5.270000E+03	2.439030E-15	5.817921E-17
5.280000E+03	2.433352E-15	5.800640E-17
5.290000E+03	2.426913E-15	5.781607E-17
5.300000E+03	2.419727E-15	5.760857E-17
5.310000E+03	2.411763E-15	5.738321E-17
5.320000E+03	2.403089E-15	5.714165E-17
5.330000E+03	2.393679E-15	5.688328E-17
5.340000E+03	2.383559E-15	5.660876E-17
5.350000E+03	2.372779E-15	5.631931E-17
5.360000E+03	2.361341E-15	5.601502E-17
5.370000E+03	2.349275E-15	5.569661E-17
5.380000E+03	2.336587E-15	5.536423E-17
5.390000E+03	2.323327E-15	5.501911E-17
5.400000E+03	2.309503E-15	5.466141E-17
5.410000E+03	2.295144E-15	5.429182E-17
5.420000E+03	2.280279E-15	5.391107E-17
5.430000E+03	2.264941E-15	5.351993E-17
5.440000E+03	2.249148E-15	5.311883E-17
5.450000E+03	2.232918E-15	5.270820E-17
5.460000E+03	2.216313E-15	5.228952E-17
5.470000E+03	2.199351E-15	5.186317E-17
5.480000E+03	2.182088E-15	5.143052E-17
5.490000E+03	2.164518E-15	5.099140E-17
5.500000E+03	2.146716E-15	5.054758E-17
5.510000E+03	2.128690E-15	5.009924E-17
5.520000E+03	2.110448E-15	4.964657E-17
5.530000E+03	2.092040E-15	4.919073E-17
5.540000E+03	2.073467E-15	4.873177E-17
5.550000E+03	2.054736E-15	4.826980E-17
5.560000E+03	2.035910E-15	4.780631E-17
5.570000E+03	2.016988E-15	4.734128E-17
5.580000E+03	1.997991E-15	4.687519E-17
5.590000E+03	1.978938E-15	4.640847E-17
5.600000E+03	1.959846E-15	4.594152E-17
5.610000E+03	1.940732E-15	4.547472E-17
5.620000E+03	1.921613E-15	4.500844E-17
5.630000E+03	1.902501E-15	4.454298E-17
5.640000E+03	1.883412E-15	4.407869E-17
5.650000E+03	1.864357E-15	4.361583E-17
5.660000E+03	1.845348E-15	4.315464E-17
5.670000E+03	1.826416E-15	4.269587E-17
5.680000E+03	1.807551E-15	4.223923E-17
5.690000E+03	1.788741E-15	4.178448E-17
5.700000E+03	1.770054E-15	4.133315E-17
5.710000E+03	1.751439E-15	4.088408E-17
5.720000E+03	1.732960E-15	4.043871E-17
5.730000E+03	1.714566E-15	3.999588E-17
5.740000E+03	1.696319E-15	3.955699E-17
5.750000E+03	1.678168E-15	3.912086E-17
5.760000E+03	1.660173E-15	3.868887E-17
5.770000E+03	1.642319E-15	3.826067E-17
5.780000E+03	1.624594E-15	3.783594E-17
5.790000E+03	1.607018E-15	3.741517E-17
5.800000E+03	1.589614E-15	3.699887E-17
5.810000E+03	1.572366E-15	3.658666E-17
5.820000E+03	1.555280E-15	3.617866E-17
5.830000E+03	1.538375E-15	3.577531E-17
5.840000E+03	1.521639E-15	3.537631E-17
5.850000E+03	1.505094E-15	3.498218E-17
5.860000E+03	1.488742E-15	3.459294E-17
5.870000E+03	1.472607E-15	3.420916E-17
5.880000E+03	1.456658E-15	3.383007E-17
5.890000E+03	1.440935E-15	3.345662E-17
5.900000E+03	1.425442E-15	3.308889E-17
5.910000E+03	1.410185E-15	3.272700E-17
5.920000E+03	1.395169E-15	3.237107E-17
5.930000E+03	1.380400E-15	3.202123E-17
5.940000E+03	1.365901E-15	3.167798E-17
5.950000E+03	1.351676E-15	3.134142E-17
5.960000E+03	1.337732E-15	3.101171E-17
5.970000E+03	1.324090E-15	3.068933E-17
5.980000E+03	1.310771E-15	3.037474E-17
5.990000E+03	1.297751E-15	3.006738E-17
6.000000E+03	1.285065E-15	2.976805E-17
6.010000E+03	1.272735E-15	2.947726E-17
6.020000E+03	1.260750E-15	2.919476E-17
6.030000E+03	1.249130E-15	2.892096E-17
6.040000E+03	1.237909E-15	2.865671E-17
6.050000E+03	1.227062E-15	2.840134E-17
6.060000E+03	1.216637E-15	2.815602E-17
6.070000E+03	1.206621E-15	2.792042E-17
6.080000E+03	1.197033E-15	2.769497E-17
6.090000E+03	1.187873E-15	2.747966E-17
6.100000E+03	1.179174E-15	2.727525E-17
6.110000E+03	1.170935E-15	2.708171E-17
6.120000E+03	1.163158E-15	2.689907E-17
6.130000E+03	1.155839E-15	2.672726E-17
6.140000E+03	1.148978E-15	2.656628E-17
6.150000E+03	1.142559E-15	2.641572E-17
6.160000E+03	1.136579E-15	2.627552E-17
6.170000E+03	1.131019E-15	2.614525E-17
6.180000E+03	1.125920E-15	2.602582E-17
6.190000E+03	1.121259E-15	2.591676E-17
6.200000E+03	1.117063E-15	2.581862E-17
6.210000E+03	1.113322E-15	2.573124E-17
6.220000E+03	1.110031E-15	2.565443E-17
6.230000E+03	1.107164E-15	2.558765E-17
6.240000E+03	1.104712E-15	2.553066E-17
6.250000E+03	1.102665E-15	2.548324E-17
6.260000E+03	1.100983E-15	2.544446E-17
6.270000E+03	1.099652E-15	2.541400E-17
6.280000E+03	1.098659E-15	2.539157E-17
6.290000E+03	1.097975E-15	2.537651E-17
6.300000E+03	1.097570E-15	2.536809E-17
6.310000E+03	1.097427E-15	2.536596E-17
6.320000E+03	1.097530E-15	2.536973E-17
6.330000E+03	1.097845E-15	2.537863E-17
6.340000E+03	1.098353E-15	2.539223E-17
6.350000E+03	1.099018E-15	2.540970E-17
6.360000E+03	1.099837E-15	2.543097E-17
6.370000E+03	1.100772E-15	2.545513E-17
6.380000E+03	1.101800E-15	2.548172E-17
6.390000E+03	1.102898E-15	2.551019E-17
6.400000E+03	1.104060E-15	2.554037E-17
6.410000E+03	1.105246E-15	2.557138E-17
6.420000E+03	1.106431E-15	2.560261E-17
6.430000E+03	1.107590E-15	2.563352E-17
6.440000E+03	1.108713E-15	2.566387E-17
6.450000E+03	1.109729E-15	2.569200E-17
6.460000E+03	1.110658E-15	2.571838E-17
6.470000E+03	1.111443E-15	2.574167E-17
6.480000E+03	1.112057E-15	2.576127E-17
6.490000E+03	1.112510E-15	2.577735E-17
6.500000E+03	1.112724E-15	2.578816E-17
6.510000E+03	1.112727E-15	2.579429E-17
6.520000E+03	1.112460E-15	2.579441E-17
6.530000E+03	1.111901E-15	2.578797E-17
6.540000E+03	1.111048E-15	2.577489E-17
6.550000E+03	1.109863E-15	2.575434E-17
6.560000E+03	1.108332E-15	2.572593E-17
6.570000E+03	1.106440E-15	2.568935E-17
6.580000E+03	1.104186E-15	2.564452E-17
6.590000E+03	1.101555E-15	2.559109E-17
6.600000E+03	1.098593E-15	2.553014E-17
6.610000E+03	1.095283E-15	2.546123E-17
6.620000E+03	1.091659E-15	2.538515E-17
6.630000E+03	1.087722E-15	2.530193E-17
6.640000E+03	1.083513E-15	2.521248E-17
6.650000E+03	1.079036E-15	2.511689E-17
6.660000E+03	1.074312E-15	2.501565E-17
6.670000E+03	1.069380E-15	2.490965E-17
6.680000E+03	1.064246E-15	2.479901E-17
6.690000E+03	1.058932E-15	2.468425E-17
6.700000E+03	1.053460E-15	2.456585E-17
6.710000E+03	1.047866E-15	2.444466E-17
6.720000E+03	1.042154E-15	2.432076E-17
6.730000E+03	1.036344E-15	2.419458E-17
6.740000E+03	1.030453E-15	2.406657E-17
6.750000E+03	1.024500E-15	2.393712E-17
6.760000E+03	1.018503E-15	2.380664E-17
6.770000E+03	1.012492E-15	2.367585E-17
6.780000E+03	1.006466E-15	2.354472E-17
6.790000E+03	1.000456E-15	2.341395E-17
6.800000E+03	9.944417E-16	2.328308E-17
6.810000E+03	9.884682E-16	2.315316E-17
6.820000E+03	9.825464E-16	2.302443E-17
6.830000E+03	9.766698E-16	2.289674E-17
6.840000E+03	9.708475E-16	2.277030E-17
6.850000E+03	9.651041E-16	2.264569E-17
6.860000E+03	9.594304E-16	2.252269E-17
6.870000E+03	9.538489E-16	2.240183E-17
6.880000E+03	9.483487E-16	2.228284E-17
6.890000E+03	9.429507E-16	2.216623E-17
6.900000E+03	9.376585E-16	2.205207E-17
6.910000E+03	9.324588E-16	2.194005E-17
6.920000E+03	9.273860E-16	2.183099E-17
6.930000E+03	9.224091E-16	2.172414E-17
6.940000E+03	9.175288E-16	2.161954E-17
6.950000E+03	9.127774E-16	2.151794E-17
6.960000E+03	9.081218E-16	2.141856E-17
6.970000E+03	9.035931E-16	2.132214E-17
6.980000E+03	8.991573E-16	2.122788E-17
6.990000E+03	8.948279E-16	2.113609E-17
7.000000E+03	8.906023E-16	2.104672E-17
7.010000E+03	8.864932E-16	2.096007E-17
7.020000E+03	8.824649E-16	2.087529E-17
7.030000E+03	8.785456E-16	2.079306E-17
7.040000E+03	8.747148E-16	2.071289E-17
7.050000E+03	8.709517E-16	2.063429E-17
7.060000E+03	8.673003E-16	2.055830E-17
7.070000E+03	8.637070E-16	2.048365E-17
7.080000E+03	8.601990E-16	2.041100E-17
7.090000E+03	8.567551E-16	2.033984E-17
7.100000E+03	8.533864E-16	2.027043E-17
7.110000E+03	8.500714E-16	2.020226E-17
7.120000E+03	8.468214E-16	2.013561E-17
7.130000E+03	8.436149E-16	2.006996E-17
7.140000E+03	8.404635E-16	2.000560E-17
7.150000E+03	8.373623E-16	1.994239E-17
7.160000E+03	8.342906E-16	1.987987E-17
7.170000E+03	8.312767E-16	1.981868E-17
7.180000E+03	8.282836E-16	1.975797E-17
7.190000E+03	8.253076E-16	1.969763E-17
7.200000E+03	8.223780E-16	1.963837E-17
7.210000E+03	8.194749E-16	1.957971E-17
7.220000E+03	8.165955E-16	1.952160E-17
7.230000E+03	8.137371E-16	1.946395E-17
7.240000E+03	8.109139E-16	1.940712E-17
7.250000E+03	8.080909E-16	1.935027E-17
7.260000E+03	8.052994E-16	1.929413E-17
7.270000E+03	8.025213E-16	1.923830E-17
7.280000E+03	7.997723E-16	1.918313E-17
7.290000E+03	7.970350E-16	1.912822E-17
7.300000E+03	7.943252E-16	1.907394E-17
7.310000E+03	7.916264E-16	1.901989E-17
7.320000E+03	7.889548E-16	1.896648E-17
7.330000E+03	7.863110E-16	1.891370E-17
7.340000E+03	7.837120E-16	1.886198E-17
7.350000E+03	7.811416E-16	1.881093E-17
7.360000E+03	7.786007E-16	1.876056E-17
7.370000E+03	7.761236E-16	1.871171E-17
7.380000E+03	7.736949E-16	1.866400E-17
7.390000E+03	7.713324E-16	1.861788E-17
7.400000E+03	7.690375E-16	1.857337E-17
7.410000E+03	7.668456E-16	1.853134E-17
7.420000E+03	7.647580E-16	1.849182E-17
7.430000E+03	7.627595E-16	1.845445E-17
7.440000E+03	7.608685E-16	1.841967E-17
7.450000E+03	7.590695E-16	1.838713E-17
7.460000E+03	7.573299E-16	1.835602E-17
7.470000E+03	7.556679E-16	1.832681E-17
7.480000E+03	7.540678E-16	1.829910E-17
7.490000E+03	7.525134E-16	1.827252E-17
7.500000E+03	7.510060E-16	1.824709E-17
7.510000E+03	7.495462E-16	1.822283E-17
7.520000E+03	7.481354E-16	1.819978E-17
7.530000E+03	7.467565E-16	1.817753E-17
7.540000E+03	7.454281E-16	1.815653E-17
7.550000E+03	7.441332E-16	1.813637E-17
7.560000E+03	7.428725E-16	1.811707E-17
7.570000E+03	7.416813E-16	1.809949E-17
7.580000E+03	7.405079E-16	1.808238E-17
7.590000E+03	7.393876E-16	1.806661E-17
7.600000E+03	7.383031E-16	1.805174E-17
7.610000E+03	7.372726E-16	1.803823E-17
7.620000E+03	7.362787E-16	1.802566E-17
7.630000E+03	7.353393E-16	1.801447E-17
7.640000E+03	7.344372E-16	1.800424E-17
7.650000E+03	7.335899E-16	1.799541E-17
7.660000E+03	7.327804E-16	1.798755E-17
7.670000E+03	7.320264E-16	1.798112E-17
7.680000E+03	7.313282E-16	1.797611E-17
7.690000E+03	7.306683E-16	1.797211E-17
7.700000E+03	7.300464E-16	1.796911E-17
7.710000E+03	7.294991E-16	1.796801E-17
7.720000E+03	7.289904E-16	1.796794E-17
7.730000E+03	7.285204E-16	1.796889E-17
7.740000E+03	7.281257E-16	1.797178E-17
7.750000E+03	7.277700E-16	1.797572E-17
7.760000E+03	7.274718E-16	1.798116E-17
