#wls	flux	fluxerr
1.600000E+03	3.296642E-16	6.540174E-18
1.640000E+03	3.365374E-16	6.664329E-18
1.680000E+03	3.437431E-16	6.794262E-18
1.720000E+03	3.512716E-16	6.929720E-18
1.760000E+03	3.592357E-16	7.072863E-18
1.800000E+03	3.675403E-16	7.221745E-18
1.840000E+03	3.762954E-16	7.378456E-18
1.880000E+03	3.854853E-16	7.542603E-18
1.920000E+03	3.951750E-16	7.715370E-18
1.960000E+03	4.053446E-16	7.896274E-18
2.000000E+03	4.160543E-16	8.086387E-18
2.040000E+03	4.273613E-16	8.286711E-18
2.080000E+03	4.392786E-16	8.497377E-18
2.120000E+03	4.519381E-16	8.720806E-18
2.160000E+03	4.655071E-16	8.960068E-18
2.200000E+03	4.801057E-16	9.217289E-18
2.240000E+03	4.959271E-16	9.495970E-18
2.280000E+03	5.132755E-16	9.801677E-18
2.320000E+03	5.322012E-16	1.013508E-17
2.360000E+03	5.527842E-16	1.049737E-17
2.400000E+03	5.749747E-16	1.088729E-17
2.440000E+03	5.987521E-16	1.130409E-17
2.480000E+03	6.240855E-16	1.174686E-17
2.520000E+03	6.509328E-16	1.221446E-17
2.560000E+03	6.793163E-16	1.270695E-17
2.600000E+03	7.092436E-16	1.322410E-17
2.640000E+03	7.405950E-16	1.376333E-17
2.680000E+03	7.734243E-16	1.432525E-17
2.720000E+03	8.076201E-16	1.490745E-17
2.760000E+03	8.430946E-16	1.550793E-17
2.800000E+03	8.796750E-16	1.612316E-17
2.840000E+03	9.173184E-16	1.675206E-17
2.880000E+03	9.559649E-16	1.739319E-17
2.920000E+03	9.957394E-16	1.804851E-17
2.960000E+03	1.036902E-15	1.872238E-17
3.000000E+03	1.079766E-15	1.942003E-17
3.010000E+03	1.090785E-15	1.959878E-17
3.020000E+03	1.101923E-15	1.977919E-17
3.030000E+03	1.113206E-15	1.996174E-17
3.040000E+03	1.124627E-15	2.014630E-17
3.050000E+03	1.136212E-15	2.033330E-17
3.060000E+03	1.147954E-15	2.052263E-17
3.070000E+03	1.159846E-15	2.071414E-17
3.080000E+03	1.171911E-15	2.090824E-17
3.090000E+03	1.184144E-15	2.110481E-17
3.100000E+03	1.196596E-15	2.130477E-17
3.110000E+03	1.209200E-15	2.150690E-17
3.120000E+03	1.222038E-15	2.171266E-17
3.130000E+03	1.235042E-15	2.192082E-17
3.140000E+03	1.248293E-15	2.213281E-17
3.150000E+03	1.261722E-15	2.234739E-17
3.160000E+03	1.275380E-15	2.256545E-17
3.170000E+03	1.289288E-15	2.278735E-17
3.180000E+03	1.303407E-15	2.301236E-17
3.190000E+03	1.317785E-15	2.324135E-17
3.200000E+03	1.332383E-15	2.347361E-17
3.210000E+03	1.347221E-15	2.370946E-17
3.220000E+03	1.362316E-15	2.394921E-17
3.230000E+03	1.377659E-15	2.419265E-17
3.240000E+03	1.393266E-15	2.444007E-17
3.250000E+03	1.409128E-15	2.469130E-17
3.260000E+03	1.425234E-15	2.494610E-17
3.270000E+03	1.441601E-15	2.520478E-17
3.280000E+03	1.458216E-15	2.546709E-17
3.290000E+03	1.475070E-15	2.573287E-17
3.300000E+03	1.492181E-15	2.600238E-17
3.310000E+03	1.509535E-15	2.627540E-17
3.320000E+03	1.527150E-15	2.655222E-17
3.330000E+03	1.544962E-15	2.683169E-17
3.340000E+03	1.563013E-15	2.711453E-17
3.350000E+03	1.581241E-15	2.739967E-17
3.360000E+03	1.599716E-15	2.768830E-17
3.370000E+03	1.618348E-15	2.797886E-17
3.380000E+03	1.637132E-15	2.827122E-17
3.390000E+03	1.656109E-15	2.856611E-17
3.400000E+03	1.675196E-15	2.886207E-17
3.410000E+03	1.694386E-15	2.915899E-17
3.420000E+03	1.713676E-15	2.945678E-17
3.430000E+03	1.733034E-15	2.975491E-17
3.440000E+03	1.752432E-15	3.005290E-17
3.450000E+03	1.771821E-15	3.034988E-17
3.460000E+03	1.791199E-15	3.064584E-17
3.470000E+03	1.810495E-15	3.093956E-17
3.480000E+03	1.829736E-15	3.123150E-17
3.490000E+03	1.848808E-15	3.151972E-17
3.500000E+03	1.867739E-15	3.180473E-17
3.510000E+03	1.886448E-15	3.208512E-17
3.520000E+03	1.904896E-15	3.236028E-17
3.530000E+03	1.923031E-15	3.262931E-17
3.540000E+03	1.940844E-15	3.289211E-17
3.550000E+03	1.958240E-15	3.314708E-17
3.560000E+03	1.975200E-15	3.339391E-17
3.570000E+03	1.991678E-15	3.363187E-17
3.580000E+03	2.007661E-15	3.386075E-17
3.590000E+03	2.023090E-15	3.407961E-17
3.600000E+03	2.037956E-15	3.428834E-17
3.610000E+03	2.052230E-15	3.448646E-17
3.620000E+03	2.065910E-15	3.467399E-17
3.630000E+03	2.078995E-15	3.485094E-17
3.640000E+03	2.091466E-15	3.501706E-17
3.650000E+03	2.103328E-15	3.517244E-17
3.660000E+03	2.114608E-15	3.531760E-17
3.670000E+03	2.125317E-15	3.545275E-17
3.680000E+03	2.135528E-15	3.557912E-17
3.690000E+03	2.145208E-15	3.569623E-17
3.700000E+03	2.154454E-15	3.580572E-17
3.710000E+03	2.163277E-15	3.590777E-17
3.720000E+03	2.171747E-15	3.600362E-17
3.730000E+03	2.179918E-15	3.609414E-17
3.740000E+03	2.187815E-15	3.617981E-17
3.750000E+03	2.195505E-15	3.626172E-17
3.760000E+03	2.203031E-15	3.634062E-17
3.770000E+03	2.210451E-15	3.641747E-17
3.780000E+03	2.217800E-15	3.649286E-17
3.790000E+03	2.225129E-15	3.656762E-17
3.800000E+03	2.232462E-15	3.664216E-17
3.810000E+03	2.239858E-15	3.671747E-17
3.820000E+03	2.247333E-15	3.679378E-17
3.830000E+03	2.254915E-15	3.687157E-17
3.840000E+03	2.262626E-15	3.695117E-17
3.850000E+03	2.270445E-15	3.703226E-17
3.860000E+03	2.278441E-15	3.711596E-17
3.870000E+03	2.286562E-15	3.720141E-17
3.880000E+03	2.294809E-15	3.728862E-17
3.890000E+03	2.303217E-15	3.737816E-17
3.900000E+03	2.311720E-15	3.746895E-17
3.910000E+03	2.320344E-15	3.756142E-17
3.920000E+03	2.329033E-15	3.765465E-17
3.930000E+03	2.337769E-15	3.774835E-17
3.940000E+03	2.346547E-15	3.784247E-17
3.950000E+03	2.355305E-15	3.793597E-17
3.960000E+03	2.364013E-15	3.802840E-17
3.970000E+03	2.372642E-15	3.811931E-17
3.980000E+03	2.381121E-15	3.820756E-17
3.990000E+03	2.389458E-15	3.829329E-17
4.000000E+03	2.397561E-15	3.837505E-17
4.010000E+03	2.405416E-15	3.845264E-17
4.020000E+03	2.412974E-15	3.852527E-17
4.030000E+03	2.420183E-15	3.859217E-17
4.040000E+03	2.427019E-15	3.865297E-17
4.050000E+03	2.433419E-15	3.870670E-17
4.060000E+03	2.439367E-15	3.875314E-17
4.070000E+03	2.444833E-15	3.879183E-17
4.080000E+03	2.449814E-15	3.882277E-17
4.090000E+03	2.454278E-15	3.884550E-17
4.100000E+03	2.458242E-15	3.886031E-17
4.110000E+03	2.461712E-15	3.886734E-17
4.120000E+03	2.464707E-15	3.886692E-17
4.130000E+03	2.467260E-15	3.885960E-17
4.140000E+03	2.469412E-15	3.884606E-17
4.150000E+03	2.471216E-15	3.882717E-17
4.160000E+03	2.472761E-15	3.880433E-17
4.170000E+03	2.474102E-15	3.877846E-17
4.180000E+03	2.475346E-15	3.875123E-17
4.190000E+03	2.476570E-15	3.872385E-17
4.200000E+03	2.477917E-15	3.869857E-17
4.210000E+03	2.479453E-15	3.867642E-17
4.220000E+03	2.481352E-15	3.866010E-17
4.230000E+03	2.483685E-15	3.865071E-17
4.240000E+03	2.486583E-15	3.865027E-17
4.250000E+03	2.490192E-15	3.866102E-17
4.260000E+03	2.494588E-15	3.868411E-17
4.270000E+03	2.499882E-15	3.872121E-17
4.280000E+03	2.506184E-15	3.877402E-17
4.290000E+03	2.513575E-15	3.884369E-17
4.300000E+03	2.522114E-15	3.893112E-17
4.310000E+03	2.531860E-15	3.903716E-17
4.320000E+03	2.542873E-15	3.916269E-17
4.330000E+03	2.555151E-15	3.930762E-17
4.340000E+03	2.568755E-15	3.947281E-17
4.350000E+03	2.583642E-15	3.965758E-17
4.360000E+03	2.599843E-15	3.986233E-17
4.370000E+03	2.617184E-15	4.008434E-17
4.380000E+03	2.635538E-15	4.032164E-17
4.390000E+03	2.654764E-15	4.057203E-17
4.400000E+03	2.674662E-15	4.083243E-17
4.410000E+03	2.695128E-15	4.110120E-17
4.420000E+03	2.715931E-15	4.137484E-17
4.430000E+03	2.736914E-15	4.165093E-17
4.440000E+03	2.757888E-15	4.192659E-17
4.450000E+03	2.778674E-15	4.219911E-17
4.460000E+03	2.799064E-15	4.246537E-17
4.470000E+03	2.818867E-15	4.272246E-17
4.480000E+03	2.837914E-15	4.296790E-17
4.490000E+03	2.855993E-15	4.319850E-17
4.500000E+03	2.872915E-15	4.341147E-17
4.510000E+03	2.888506E-15	4.360420E-17
4.520000E+03	2.902644E-15	4.377497E-17
4.530000E+03	2.915153E-15	4.392115E-17
4.540000E+03	2.925922E-15	4.404117E-17
4.550000E+03	2.934835E-15	4.413335E-17
4.560000E+03	2.941821E-15	4.419671E-17
4.570000E+03	2.946807E-15	4.423024E-17
4.580000E+03	2.949772E-15	4.423371E-17
4.590000E+03	2.950691E-15	4.420683E-17
4.600000E+03	2.949595E-15	4.415013E-17
4.610000E+03	2.946508E-15	4.406409E-17
4.620000E+03	2.941534E-15	4.395030E-17
4.630000E+03	2.934694E-15	4.380916E-17
4.640000E+03	2.926158E-15	4.364329E-17
4.650000E+03	2.916010E-15	4.345401E-17
4.660000E+03	2.904428E-15	4.324400E-17
4.670000E+03	2.891526E-15	4.301501E-17
4.680000E+03	2.877526E-15	4.277040E-17
4.690000E+03	2.862536E-15	4.251180E-17
4.700000E+03	2.846737E-15	4.224195E-17
4.710000E+03	2.830268E-15	4.196289E-17
4.720000E+03	2.813289E-15	4.167705E-17
4.730000E+03	2.795961E-15	4.138680E-17
4.740000E+03	2.778413E-15	4.109408E-17
4.750000E+03	2.760797E-15	4.080110E-17
4.760000E+03	2.743281E-15	4.051037E-17
4.770000E+03	2.725980E-15	4.022356E-17
4.780000E+03	2.709048E-15	3.994293E-17
4.790000E+03	2.692586E-15	3.966994E-17
4.800000E+03	2.676708E-15	3.940627E-17
4.810000E+03	2.661528E-15	3.915355E-17
4.820000E+03	2.647149E-15	3.891328E-17
4.830000E+03	2.633692E-15	3.868720E-17
4.840000E+03	2.621227E-15	3.847630E-17
4.850000E+03	2.609839E-15	3.828180E-17
4.860000E+03	2.599611E-15	3.810487E-17
4.870000E+03	2.590643E-15	3.794694E-17
4.880000E+03	2.582982E-15	3.780867E-17
4.890000E+03	2.576716E-15	3.769128E-17
4.900000E+03	2.571879E-15	3.759524E-17
4.910000E+03	2.568520E-15	3.752121E-17
4.920000E+03	2.566702E-15	3.747009E-17
4.930000E+03	2.566456E-15	3.744227E-17
4.940000E+03	2.567797E-15	3.743793E-17
4.950000E+03	2.570732E-15	3.745714E-17
4.960000E+03	2.575249E-15	3.749966E-17
4.970000E+03	2.581296E-15	3.756472E-17
4.980000E+03	2.588877E-15	3.765232E-17
4.990000E+03	2.597930E-15	3.776155E-17
5.000000E+03	2.608325E-15	3.789045E-17
5.010000E+03	2.619984E-15	3.803790E-17
5.020000E+03	2.632814E-15	3.820250E-17
5.030000E+03	2.646675E-15	3.838220E-17
5.040000E+03	2.661364E-15	3.857405E-17
5.050000E+03	2.676757E-15	3.877625E-17
5.060000E+03	2.692649E-15	3.898580E-17
5.070000E+03	2.708868E-15	3.920023E-17
5.080000E+03	2.725184E-15	3.941621E-17
5.090000E+03	2.741389E-15	3.963073E-17
5.100000E+03	2.757297E-15	3.984113E-17
5.110000E+03	2.772648E-15	4.004366E-17
5.120000E+03	2.787287E-15	4.023612E-17
5.130000E+03	2.800992E-15	4.041531E-17
5.140000E+03	2.813574E-15	4.057855E-17
5.150000E+03	2.824860E-15	4.072336E-17
5.160000E+03	2.834664E-15	4.084710E-17
5.170000E+03	2.842902E-15	4.094860E-17
5.180000E+03	2.849397E-15	4.102534E-17
5.190000E+03	2.854078E-15	4.107636E-17
5.200000E+03	2.856840E-15	4.110014E-17
5.210000E+03	2.857630E-15	4.109599E-17
5.220000E+03	2.856441E-15	4.106386E-17
5.230000E+03	2.853240E-15	4.100325E-17
5.240000E+03	2.848040E-15	4.091446E-17
5.250000E+03	2.840878E-15	4.079797E-17
5.260000E+03	2.831810E-15	4.065469E-17
5.270000E+03	2.820885E-15	4.048529E-17
5.280000E+03	2.808224E-15	4.029156E-17
5.290000E+03	2.793910E-15	4.007470E-17
5.300000E+03	2.778067E-15	3.983650E-17
5.310000E+03	2.760858E-15	3.957934E-17
5.320000E+03	2.742375E-15	3.930451E-17
5.330000E+03	2.722800E-15	3.901465E-17
5.340000E+03	2.702266E-15	3.871167E-17
5.350000E+03	2.680963E-15	3.839828E-17
5.360000E+03	2.659055E-15	3.807685E-17
5.370000E+03	2.636657E-15	3.774899E-17
5.380000E+03	2.613955E-15	3.741738E-17
5.390000E+03	2.591103E-15	3.708418E-17
5.400000E+03	2.568220E-15	3.675109E-17
5.410000E+03	2.545408E-15	3.641954E-17
5.420000E+03	2.522824E-15	3.609177E-17
5.430000E+03	2.500459E-15	3.576763E-17
5.440000E+03	2.478344E-15	3.544753E-17
5.450000E+03	2.456413E-15	3.513051E-17
5.460000E+03	2.434642E-15	3.481623E-17
5.470000E+03	2.413000E-15	3.450422E-17
5.480000E+03	2.391461E-15	3.419407E-17
5.490000E+03	2.370002E-15	3.388545E-17
5.500000E+03	2.348629E-15	3.357843E-17
5.510000E+03	2.327311E-15	3.327255E-17
5.520000E+03	2.306046E-15	3.296779E-17
5.530000E+03	2.284818E-15	3.266386E-17
5.540000E+03	2.263685E-15	3.236160E-17
5.550000E+03	2.242640E-15	3.206090E-17
5.560000E+03	2.221682E-15	3.176173E-17
5.570000E+03	2.200833E-15	3.146439E-17
5.580000E+03	2.180144E-15	3.116959E-17
5.590000E+03	2.159617E-15	3.087734E-17
5.600000E+03	2.139278E-15	3.058801E-17
5.610000E+03	2.119151E-15	3.030194E-17
5.620000E+03	2.099260E-15	3.001944E-17
5.630000E+03	2.079623E-15	2.974077E-17
5.640000E+03	2.060258E-15	2.946618E-17
5.650000E+03	2.041176E-15	2.919580E-17
5.660000E+03	2.022365E-15	2.892948E-17
5.670000E+03	2.003850E-15	2.866754E-17
5.680000E+03	1.985608E-15	2.840965E-17
5.690000E+03	1.967657E-15	2.815605E-17
5.700000E+03	1.949983E-15	2.790655E-17
5.710000E+03	1.932551E-15	2.766064E-17
5.720000E+03	1.915364E-15	2.741834E-17
5.730000E+03	1.898398E-15	2.717930E-17
5.740000E+03	1.881606E-15	2.694286E-17
5.750000E+03	1.864980E-15	2.670890E-17
5.760000E+03	1.848492E-15	2.647697E-17
5.770000E+03	1.832090E-15	2.624637E-17
5.780000E+03	1.815765E-15	2.601693E-17
5.790000E+03	1.799509E-15	2.578854E-17
5.800000E+03	1.783256E-15	2.556025E-17
5.810000E+03	1.767000E-15	2.533198E-17
5.820000E+03	1.750742E-15	2.510371E-17
5.830000E+03	1.734445E-15	2.487491E-17
5.840000E+03	1.718098E-15	2.464542E-17
5.850000E+03	1.701709E-15	2.441536E-17
5.860000E+03	1.685275E-15	2.418467E-17
5.870000E+03	1.668795E-15	2.395333E-17
5.880000E+03	1.652272E-15	2.372137E-17
5.890000E+03	1.635712E-15	2.348887E-17
5.900000E+03	1.619143E-15	2.325625E-17
5.910000E+03	1.602576E-15	2.302363E-17
5.920000E+03	1.586004E-15	2.279094E-17
5.930000E+03	1.569481E-15	2.255892E-17
5.940000E+03	1.553003E-15	2.232752E-17
5.950000E+03	1.536624E-15	2.209751E-17
5.960000E+03	1.520324E-15	2.186861E-17
5.970000E+03	1.504158E-15	2.164160E-17
5.980000E+03	1.488145E-15	2.141673E-17
5.990000E+03	1.472303E-15	2.119430E-17
6.000000E+03	1.456669E-15	2.097482E-17
6.010000E+03	1.441265E-15	2.075859E-17
6.020000E+03	1.426129E-15	2.054617E-17
6.030000E+03	1.411281E-15	2.033785E-17
6.040000E+03	1.396744E-15	2.013395E-17
6.050000E+03	1.382575E-15	1.993532E-17
6.060000E+03	1.368797E-15	1.974227E-17
6.070000E+03	1.355432E-15	1.955513E-17
6.080000E+03	1.342520E-15	1.937446E-17
6.090000E+03	1.330101E-15	1.920087E-17
6.100000E+03	1.318214E-15	1.903490E-17
6.110000E+03	1.306896E-15	1.887711E-17
6.120000E+03	1.296165E-15	1.872776E-17
6.130000E+03	1.286073E-15	1.858760E-17
6.140000E+03	1.276668E-15	1.845732E-17
6.150000E+03	1.267960E-15	1.833710E-17
6.160000E+03	1.260009E-15	1.822780E-17
6.170000E+03	1.252821E-15	1.812952E-17
6.180000E+03	1.246362E-15	1.804177E-17
6.190000E+03	1.240599E-15	1.796409E-17
6.200000E+03	1.235541E-15	1.789663E-17
6.210000E+03	1.231131E-15	1.783853E-17
6.220000E+03	1.227372E-15	1.778989E-17
6.230000E+03	1.224233E-15	1.775024E-17
6.240000E+03	1.221676E-15	1.771905E-17
6.250000E+03	1.219698E-15	1.769628E-17
6.260000E+03	1.218240E-15	1.768109E-17
6.270000E+03	1.217294E-15	1.767336E-17
6.280000E+03	1.216814E-15	1.767242E-17
6.290000E+03	1.216787E-15	1.767812E-17
6.300000E+03	1.217165E-15	1.768974E-17
6.310000E+03	1.217896E-15	1.770655E-17
6.320000E+03	1.218947E-15	1.772807E-17
6.330000E+03	1.220299E-15	1.775402E-17
6.340000E+03	1.221882E-15	1.778339E-17
6.350000E+03	1.223658E-15	1.781564E-17
6.360000E+03	1.225570E-15	1.784993E-17
6.370000E+03	1.227563E-15	1.788547E-17
6.380000E+03	1.229598E-15	1.792169E-17
6.390000E+03	1.231580E-15	1.795722E-17
6.400000E+03	1.233491E-15	1.799177E-17
6.410000E+03	1.235271E-15	1.802449E-17
6.420000E+03	1.236940E-15	1.805566E-17
6.430000E+03	1.238446E-15	1.808450E-17
6.440000E+03	1.239808E-15	1.811133E-17
6.450000E+03	1.240962E-15	1.813516E-17
6.460000E+03	1.241934E-15	1.815639E-17
6.470000E+03	1.242642E-15	1.817382E-17
6.480000E+03	1.243119E-15	1.818792E-17
6.490000E+03	1.243311E-15	1.819788E-17
6.500000E+03	1.243217E-15	1.820370E-17
6.510000E+03	1.242805E-15	1.820490E-17
6.520000E+03	1.242064E-15	1.820130E-17
6.530000E+03	1.240988E-15	1.819281E-17
6.540000E+03	1.239570E-15	1.817933E-17
6.550000E+03	1.237808E-15	1.816081E-17
6.560000E+03	1.235685E-15	1.813699E-17
6.570000E+03	1.233202E-15	1.810788E-17
6.580000E+03	1.230364E-15	1.807356E-17
6.590000E+03	1.227160E-15	1.803385E-17
6.600000E+03	1.223640E-15	1.798947E-17
6.610000E+03	1.219757E-15	1.793972E-17
6.620000E+03	1.215563E-15	1.788538E-17
6.630000E+03	1.211058E-15	1.782641E-17
6.640000E+03	1.206257E-15	1.776305E-17
6.650000E+03	1.201158E-15	1.769526E-17
6.660000E+03	1.195825E-15	1.762395E-17
6.670000E+03	1.190236E-15	1.754884E-17
6.680000E+03	1.184418E-15	1.747027E-17
6.690000E+03	1.178411E-15	1.738886E-17
6.700000E+03	1.172240E-15	1.730495E-17
6.710000E+03	1.165910E-15	1.721863E-17
6.720000E+03	1.159466E-15	1.713054E-17
6.730000E+03	1.152912E-15	1.704076E-17
6.740000E+03	1.146272E-15	1.694963E-17
6.750000E+03	1.139589E-15	1.685779E-17
6.760000E+03	1.132867E-15	1.676528E-17
6.770000E+03	1.126129E-15	1.667247E-17
6.780000E+03	1.119414E-15	1.657991E-17
6.790000E+03	1.112746E-15	1.648794E-17
6.800000E+03	1.106101E-15	1.639625E-17
6.810000E+03	1.099537E-15	1.630568E-17
6.820000E+03	1.093073E-15	1.621649E-17
6.830000E+03	1.086701E-15	1.612860E-17
6.840000E+03	1.080457E-15	1.604252E-17
6.850000E+03	1.074331E-15	1.595813E-17
6.860000E+03	1.068357E-15	1.587590E-17
6.870000E+03	1.062523E-15	1.579568E-17
6.880000E+03	1.056856E-15	1.571788E-17
6.890000E+03	1.051364E-15	1.564258E-17
6.900000E+03	1.046031E-15	1.556960E-17
6.910000E+03	1.040881E-15	1.549926E-17
6.920000E+03	1.035915E-15	1.543161E-17
6.930000E+03	1.031136E-15	1.536666E-17
6.940000E+03	1.026521E-15	1.530410E-17
6.950000E+03	1.022108E-15	1.524449E-17
6.960000E+03	1.017854E-15	1.518720E-17
6.970000E+03	1.013793E-15	1.513272E-17
6.980000E+03	1.009879E-15	1.508039E-17
6.990000E+03	1.006142E-15	1.503065E-17
7.000000E+03	1.002555E-15	1.498310E-17
7.010000E+03	9.990869E-16	1.493728E-17
7.020000E+03	9.957648E-16	1.489360E-17
7.030000E+03	9.925766E-16	1.485187E-17
7.040000E+03	9.894688E-16	1.481131E-17
7.050000E+03	9.864665E-16	1.477228E-17
7.060000E+03	9.835541E-16	1.473456E-17
7.070000E+03	9.806984E-16	1.469766E-17
7.080000E+03	9.778819E-16	1.466130E-17
7.090000E+03	9.751289E-16	1.462586E-17
7.100000E+03	9.723840E-16	1.459050E-17
7.110000E+03	9.696328E-16	1.455502E-17
7.120000E+03	9.668999E-16	1.451978E-17
7.130000E+03	9.641507E-16	1.448426E-17
7.140000E+03	9.613529E-16	1.444797E-17
7.150000E+03	9.585326E-16	1.441132E-17
7.160000E+03	9.556590E-16	1.437383E-17
7.170000E+03	9.527412E-16	1.433564E-17
7.180000E+03	9.497510E-16	1.429633E-17
7.190000E+03	9.466801E-16	1.425578E-17
7.200000E+03	9.435418E-16	1.421418E-17
7.210000E+03	9.403310E-16	1.417145E-17
7.220000E+03	9.370438E-16	1.412754E-17
7.230000E+03	9.336783E-16	1.408241E-17
7.240000E+03	9.302138E-16	1.403576E-17
7.250000E+03	9.266899E-16	1.398818E-17
7.260000E+03	9.230887E-16	1.393940E-17
7.270000E+03	9.194328E-16	1.388976E-17
7.280000E+03	9.156871E-16	1.383872E-17
7.290000E+03	9.118959E-16	1.378697E-17
7.300000E+03	9.080654E-16	1.373459E-17
7.310000E+03	9.041629E-16	1.368109E-17
7.320000E+03	9.002355E-16	1.362718E-17
7.330000E+03	8.962716E-16	1.357269E-17
7.340000E+03	8.922602E-16	1.351745E-17
7.350000E+03	8.882296E-16	1.346188E-17
7.360000E+03	8.841694E-16	1.340584E-17
7.370000E+03	8.800691E-16	1.334916E-17
7.380000E+03	8.759375E-16	1.329197E-17
7.390000E+03	8.717641E-16	1.323412E-17
7.400000E+03	8.675574E-16	1.317574E-17
7.410000E+03	8.632863E-16	1.311635E-17
7.420000E+03	8.589392E-16	1.305579E-17
7.430000E+03	8.545429E-16	1.299444E-17
7.440000E+03	8.500845E-16	1.293212E-17
7.450000E+03	8.455896E-16	1.286923E-17
7.460000E+03	8.411225E-16	1.280673E-17
7.470000E+03	8.366682E-16	1.274439E-17
7.480000E+03	8.322503E-16	1.268260E-17
7.490000E+03	8.279115E-16	1.262198E-17
7.500000E+03	8.236544E-16	1.256259E-17
7.510000E+03	8.194619E-16	1.250416E-17
7.520000E+03	8.153941E-16	1.244763E-17
7.530000E+03	8.114135E-16	1.239241E-17
7.540000E+03	8.075403E-16	1.233882E-17
7.550000E+03	8.037749E-16	1.228687E-17
7.560000E+03	8.001180E-16	1.223657E-17
7.570000E+03	7.965692E-16	1.218792E-17
7.580000E+03	7.931482E-16	1.214122E-17
7.590000E+03	7.898154E-16	1.209588E-17
7.600000E+03	7.866096E-16	1.205248E-17
7.610000E+03	7.834914E-16	1.201043E-17
7.620000E+03	7.804993E-16	1.197033E-17
7.630000E+03	7.775940E-16	1.193157E-17
7.640000E+03	7.747944E-16	1.189444E-17
7.650000E+03	7.721001E-16	1.185895E-17
7.660000E+03	7.694910E-16	1.182479E-17
7.670000E+03	7.669865E-16	1.179225E-17
7.680000E+03	7.645859E-16	1.176134E-17
7.690000E+03	7.622891E-16	1.173205E-17
7.700000E+03	7.600759E-16	1.170408E-17
7.710000E+03	7.579456E-16	1.167741E-17
7.720000E+03	7.559179E-16	1.165237E-17
7.730000E+03	7.539923E-16	1.162893E-17
7.740000E+03	7.521683E-16	1.160711E-17
7.750000E+03	7.504455E-16	1.158688E-17
7.760000E+03	7.488037E-16	1.156796E-17
