#wls	flux	fluxerr
1.600000E+03	3.102350E-16	8.885087E-18
1.640000E+03	3.159918E-16	9.035293E-18
1.680000E+03	3.219977E-16	9.191714E-18
1.720000E+03	3.282435E-16	9.354031E-18
1.760000E+03	3.348006E-16	9.524211E-18
1.800000E+03	3.416582E-16	9.701871E-18
1.840000E+03	3.488443E-16	9.887728E-18
1.880000E+03	3.563859E-16	1.008247E-17
1.920000E+03	3.642676E-16	1.028556E-17
1.960000E+03	3.726349E-16	1.050101E-17
2.000000E+03	3.813864E-16	1.072586E-17
2.040000E+03	3.907039E-16	1.096509E-17
2.080000E+03	4.006022E-16	1.121899E-17
2.120000E+03	4.111741E-16	1.148999E-17
2.160000E+03	4.225480E-16	1.178152E-17
2.200000E+03	4.348864E-16	1.209787E-17
2.240000E+03	4.483437E-16	1.244311E-17
2.280000E+03	4.630660E-16	1.282100E-17
2.320000E+03	4.792285E-16	1.323606E-17
2.360000E+03	4.967977E-16	1.368700E-17
2.400000E+03	5.158489E-16	1.417552E-17
2.440000E+03	5.362514E-16	1.469765E-17
2.480000E+03	5.580215E-16	1.525344E-17
2.520000E+03	5.811249E-16	1.584156E-17
2.560000E+03	6.055163E-16	1.646039E-17
2.600000E+03	6.311763E-16	1.710900E-17
2.640000E+03	6.579983E-16	1.778409E-17
2.680000E+03	6.860110E-16	1.848605E-17
2.720000E+03	7.150465E-16	1.920997E-17
2.760000E+03	7.450703E-16	1.995454E-17
2.800000E+03	7.759979E-16	2.071714E-17
2.840000E+03	8.076971E-16	2.149389E-17
2.880000E+03	8.401945E-16	2.228517E-17
2.920000E+03	8.735616E-16	2.309253E-17
2.960000E+03	9.079744E-16	2.392026E-17
3.000000E+03	9.436689E-16	2.477413E-17
3.010000E+03	9.528580E-16	2.499334E-17
3.020000E+03	9.621140E-16	2.521379E-17
3.030000E+03	9.714635E-16	2.543618E-17
3.040000E+03	9.809631E-16	2.566198E-17
3.050000E+03	9.905755E-16	2.589021E-17
3.060000E+03	1.000295E-15	2.612068E-17
3.070000E+03	1.010176E-15	2.635486E-17
3.080000E+03	1.020152E-15	2.659093E-17
3.090000E+03	1.030307E-15	2.683112E-17
3.100000E+03	1.040604E-15	2.707443E-17
3.110000E+03	1.051035E-15	2.732068E-17
3.120000E+03	1.061654E-15	2.757118E-17
3.130000E+03	1.072423E-15	2.782499E-17
3.140000E+03	1.083394E-15	2.808345E-17
3.150000E+03	1.094529E-15	2.834553E-17
3.160000E+03	1.105820E-15	2.861102E-17
3.170000E+03	1.117346E-15	2.888193E-17
3.180000E+03	1.129040E-15	2.915657E-17
3.190000E+03	1.140953E-15	2.943617E-17
3.200000E+03	1.153075E-15	2.972048E-17
3.210000E+03	1.165396E-15	3.000925E-17
3.220000E+03	1.177937E-15	3.030295E-17
3.230000E+03	1.190686E-15	3.060131E-17
3.240000E+03	1.203692E-15	3.090554E-17
3.250000E+03	1.216890E-15	3.121395E-17
3.260000E+03	1.230323E-15	3.152765E-17
3.270000E+03	1.243984E-15	3.184640E-17
3.280000E+03	1.257889E-15	3.217065E-17
3.290000E+03	1.272003E-15	3.249940E-17
3.300000E+03	1.286343E-15	3.283315E-17
3.310000E+03	1.300899E-15	3.317158E-17
3.320000E+03	1.315690E-15	3.351515E-17
3.330000E+03	1.330705E-15	3.386361E-17
3.340000E+03	1.345911E-15	3.421605E-17
3.350000E+03	1.361326E-15	3.457292E-17
3.360000E+03	1.376917E-15	3.493337E-17
3.370000E+03	1.392700E-15	3.529781E-17
3.380000E+03	1.408645E-15	3.566543E-17
3.390000E+03	1.424747E-15	3.603612E-17
3.400000E+03	1.440974E-15	3.640903E-17
3.410000E+03	1.457324E-15	3.678413E-17
3.420000E+03	1.473768E-15	3.716064E-17
3.430000E+03	1.490305E-15	3.753854E-17
3.440000E+03	1.506861E-15	3.791599E-17
3.450000E+03	1.523460E-15	3.829355E-17
3.460000E+03	1.540058E-15	3.867011E-17
3.470000E+03	1.556609E-15	3.904456E-17
3.480000E+03	1.573120E-15	3.941704E-17
3.490000E+03	1.589527E-15	3.978593E-17
3.500000E+03	1.605791E-15	4.015032E-17
3.510000E+03	1.621924E-15	4.051047E-17
3.520000E+03	1.637846E-15	4.086444E-17
3.530000E+03	1.653572E-15	4.121257E-17
3.540000E+03	1.669027E-15	4.155305E-17
3.550000E+03	1.684228E-15	4.188631E-17
3.560000E+03	1.699107E-15	4.221067E-17
3.570000E+03	1.713664E-15	4.252615E-17
3.580000E+03	1.727876E-15	4.283225E-17
3.590000E+03	1.741749E-15	4.312909E-17
3.600000E+03	1.755262E-15	4.341622E-17
3.610000E+03	1.768379E-15	4.369278E-17
3.620000E+03	1.781129E-15	4.395949E-17
3.630000E+03	1.793457E-15	4.421505E-17
3.640000E+03	1.805372E-15	4.445970E-17
3.650000E+03	1.816845E-15	4.469276E-17
3.660000E+03	1.827906E-15	4.491502E-17
3.670000E+03	1.838527E-15	4.512583E-17
3.680000E+03	1.848720E-15	4.532550E-17
3.690000E+03	1.858517E-15	4.551488E-17
3.700000E+03	1.867910E-15	4.569379E-17
3.710000E+03	1.876949E-15	4.586350E-17
3.720000E+03	1.885626E-15	4.602380E-17
3.730000E+03	1.893987E-15	4.617593E-17
3.740000E+03	1.902063E-15	4.632058E-17
3.750000E+03	1.909858E-15	4.645795E-17
3.760000E+03	1.917416E-15	4.658909E-17
3.770000E+03	1.924761E-15	4.671461E-17
3.780000E+03	1.931930E-15	4.683544E-17
3.790000E+03	1.938943E-15	4.695207E-17
3.800000E+03	1.945834E-15	4.706538E-17
3.810000E+03	1.952599E-15	4.717522E-17
3.820000E+03	1.959306E-15	4.728328E-17
3.830000E+03	1.965925E-15	4.738885E-17
3.840000E+03	1.972521E-15	4.749349E-17
3.850000E+03	1.979080E-15	4.759688E-17
3.860000E+03	1.985640E-15	4.769995E-17
3.870000E+03	1.992183E-15	4.780225E-17
3.880000E+03	1.998747E-15	4.790469E-17
3.890000E+03	2.005325E-15	4.800715E-17
3.900000E+03	2.011912E-15	4.810948E-17
3.910000E+03	2.018541E-15	4.821244E-17
3.920000E+03	2.025199E-15	4.831579E-17
3.930000E+03	2.031878E-15	4.841931E-17
3.940000E+03	2.038587E-15	4.852318E-17
3.950000E+03	2.045330E-15	4.862756E-17
3.960000E+03	2.052094E-15	4.873212E-17
3.970000E+03	2.058869E-15	4.883661E-17
3.980000E+03	2.065639E-15	4.894067E-17
3.990000E+03	2.072430E-15	4.904491E-17
4.000000E+03	2.079226E-15	4.914898E-17
4.010000E+03	2.086020E-15	4.925268E-17
4.020000E+03	2.092797E-15	4.935571E-17
4.030000E+03	2.099549E-15	4.945786E-17
4.040000E+03	2.106304E-15	4.955979E-17
4.050000E+03	2.113019E-15	4.966052E-17
4.060000E+03	2.119745E-15	4.976122E-17
4.070000E+03	2.126425E-15	4.986061E-17
4.080000E+03	2.133114E-15	4.995994E-17
4.090000E+03	2.139798E-15	5.005890E-17
4.100000E+03	2.146481E-15	5.015761E-17
4.110000E+03	2.153173E-15	5.025631E-17
4.120000E+03	2.159885E-15	5.035524E-17
4.130000E+03	2.166649E-15	5.045517E-17
4.140000E+03	2.173484E-15	5.055652E-17
4.150000E+03	2.180390E-15	5.065931E-17
4.160000E+03	2.187389E-15	5.076405E-17
4.170000E+03	2.194522E-15	5.087170E-17
4.180000E+03	2.201815E-15	5.098284E-17
4.190000E+03	2.209294E-15	5.109810E-17
4.200000E+03	2.216968E-15	5.121764E-17
4.210000E+03	2.224863E-15	5.134208E-17
4.220000E+03	2.233025E-15	5.147244E-17
4.230000E+03	2.241479E-15	5.160933E-17
4.240000E+03	2.250210E-15	5.175236E-17
4.250000E+03	2.259297E-15	5.190334E-17
4.260000E+03	2.268701E-15	5.206135E-17
4.270000E+03	2.278455E-15	5.222716E-17
4.280000E+03	2.288588E-15	5.240136E-17
4.290000E+03	2.299068E-15	5.258326E-17
4.300000E+03	2.309914E-15	5.277325E-17
4.310000E+03	2.321103E-15	5.297079E-17
4.320000E+03	2.332624E-15	5.317561E-17
4.330000E+03	2.344458E-15	5.338729E-17
4.340000E+03	2.356547E-15	5.360445E-17
4.350000E+03	2.368837E-15	5.382592E-17
4.360000E+03	2.381298E-15	5.405094E-17
4.370000E+03	2.393921E-15	5.427938E-17
4.380000E+03	2.406654E-15	5.451002E-17
4.390000E+03	2.419455E-15	5.474193E-17
4.400000E+03	2.432300E-15	5.497457E-17
4.410000E+03	2.445098E-15	5.520588E-17
4.420000E+03	2.457816E-15	5.543512E-17
4.430000E+03	2.470377E-15	5.566059E-17
4.440000E+03	2.482703E-15	5.588051E-17
4.450000E+03	2.494754E-15	5.609403E-17
4.460000E+03	2.506428E-15	5.629888E-17
4.470000E+03	2.517686E-15	5.649419E-17
4.480000E+03	2.528425E-15	5.667770E-17
4.490000E+03	2.538590E-15	5.684821E-17
4.500000E+03	2.548146E-15	5.700499E-17
4.510000E+03	2.557003E-15	5.714604E-17
4.520000E+03	2.565134E-15	5.727085E-17
4.530000E+03	2.572458E-15	5.737762E-17
4.540000E+03	2.578939E-15	5.746565E-17
4.550000E+03	2.584556E-15	5.753447E-17
4.560000E+03	2.589286E-15	5.758368E-17
4.570000E+03	2.593100E-15	5.761266E-17
4.580000E+03	2.595998E-15	5.762148E-17
4.590000E+03	2.597965E-15	5.760987E-17
4.600000E+03	2.599018E-15	5.757825E-17
4.610000E+03	2.599207E-15	5.752781E-17
4.620000E+03	2.598545E-15	5.745887E-17
4.630000E+03	2.597056E-15	5.737200E-17
4.640000E+03	2.594811E-15	5.726886E-17
4.650000E+03	2.591853E-15	5.715039E-17
4.660000E+03	2.588268E-15	5.701858E-17
4.670000E+03	2.584088E-15	5.687412E-17
4.680000E+03	2.579413E-15	5.671928E-17
4.690000E+03	2.574306E-15	5.655545E-17
4.700000E+03	2.568833E-15	5.638412E-17
4.710000E+03	2.563016E-15	5.620579E-17
4.720000E+03	2.556975E-15	5.602307E-17
4.730000E+03	2.550737E-15	5.583661E-17
4.740000E+03	2.544352E-15	5.564750E-17
4.750000E+03	2.537853E-15	5.545645E-17
4.760000E+03	2.531360E-15	5.526608E-17
4.770000E+03	2.524855E-15	5.507603E-17
4.780000E+03	2.518435E-15	5.488838E-17
4.790000E+03	2.512149E-15	5.470419E-17
4.800000E+03	2.506064E-15	5.452495E-17
4.810000E+03	2.500225E-15	5.435157E-17
4.820000E+03	2.494695E-15	5.418543E-17
4.830000E+03	2.489531E-15	5.402777E-17
4.840000E+03	2.484766E-15	5.387923E-17
4.850000E+03	2.480474E-15	5.374143E-17
4.860000E+03	2.476721E-15	5.361577E-17
4.870000E+03	2.473504E-15	5.350214E-17
4.880000E+03	2.470879E-15	5.340175E-17
4.890000E+03	2.468899E-15	5.331567E-17
4.900000E+03	2.467563E-15	5.324387E-17
4.910000E+03	2.466888E-15	5.318670E-17
4.920000E+03	2.466931E-15	5.314533E-17
4.930000E+03	2.467671E-15	5.311928E-17
4.940000E+03	2.469082E-15	5.310795E-17
4.950000E+03	2.471223E-15	5.311260E-17
4.960000E+03	2.474030E-15	5.313179E-17
4.970000E+03	2.477499E-15	5.316542E-17
4.980000E+03	2.481600E-15	5.321282E-17
4.990000E+03	2.486291E-15	5.327306E-17
5.000000E+03	2.491551E-15	5.334566E-17
5.010000E+03	2.497299E-15	5.342890E-17
5.020000E+03	2.503503E-15	5.352201E-17
5.030000E+03	2.510069E-15	5.362302E-17
5.040000E+03	2.516949E-15	5.373089E-17
5.050000E+03	2.524067E-15	5.384395E-17
5.060000E+03	2.531318E-15	5.395999E-17
5.070000E+03	2.538638E-15	5.407766E-17
5.080000E+03	2.545966E-15	5.419563E-17
5.090000E+03	2.553163E-15	5.431096E-17
5.100000E+03	2.560161E-15	5.442222E-17
5.110000E+03	2.566871E-15	5.452755E-17
5.120000E+03	2.573180E-15	5.462453E-17
5.130000E+03	2.579047E-15	5.471236E-17
5.140000E+03	2.584341E-15	5.478828E-17
5.150000E+03	2.589007E-15	5.485113E-17
5.160000E+03	2.592945E-15	5.489883E-17
5.170000E+03	2.596112E-15	5.493051E-17
5.180000E+03	2.598421E-15	5.494439E-17
5.190000E+03	2.599843E-15	5.493990E-17
5.200000E+03	2.600308E-15	5.491555E-17
5.210000E+03	2.599753E-15	5.487010E-17
5.220000E+03	2.598200E-15	5.480403E-17
5.230000E+03	2.595605E-15	5.471649E-17
5.240000E+03	2.591935E-15	5.460679E-17
5.250000E+03	2.587211E-15	5.447545E-17
5.260000E+03	2.581419E-15	5.432218E-17
5.270000E+03	2.574600E-15	5.414791E-17
5.280000E+03	2.566729E-15	5.395215E-17
5.290000E+03	2.557865E-15	5.373617E-17
5.300000E+03	2.548045E-15	5.350078E-17
5.310000E+03	2.537317E-15	5.324702E-17
5.320000E+03	2.525680E-15	5.297491E-17
5.330000E+03	2.513239E-15	5.268668E-17
5.340000E+03	2.500025E-15	5.238300E-17
5.350000E+03	2.486075E-15	5.206466E-17
5.360000E+03	2.471472E-15	5.173340E-17
5.370000E+03	2.456227E-15	5.138952E-17
5.380000E+03	2.440448E-15	5.103524E-17
5.390000E+03	2.424142E-15	5.067072E-17
5.400000E+03	2.407364E-15	5.029710E-17
5.410000E+03	2.390189E-15	4.991594E-17
5.420000E+03	2.372614E-15	4.952720E-17
5.430000E+03	2.354685E-15	4.913181E-17
5.440000E+03	2.336474E-15	4.873126E-17
5.450000E+03	2.317998E-15	4.832594E-17
5.460000E+03	2.299321E-15	4.791712E-17
5.470000E+03	2.280454E-15	4.750505E-17
5.480000E+03	2.261404E-15	4.708988E-17
5.490000E+03	2.242202E-15	4.667220E-17
5.500000E+03	2.222849E-15	4.625205E-17
5.510000E+03	2.203414E-15	4.583087E-17
5.520000E+03	2.183874E-15	4.540812E-17
5.530000E+03	2.164248E-15	4.498424E-17
5.540000E+03	2.144578E-15	4.456006E-17
5.550000E+03	2.124839E-15	4.413504E-17
5.560000E+03	2.105112E-15	4.371087E-17
5.570000E+03	2.085349E-15	4.328654E-17
5.580000E+03	2.065589E-15	4.286282E-17
5.590000E+03	2.045845E-15	4.244002E-17
5.600000E+03	2.026135E-15	4.201843E-17
5.610000E+03	2.006469E-15	4.159831E-17
5.620000E+03	1.986883E-15	4.118035E-17
5.630000E+03	1.967346E-15	4.076394E-17
5.640000E+03	1.947892E-15	4.034972E-17
5.650000E+03	1.928527E-15	3.993783E-17
5.660000E+03	1.909244E-15	3.952810E-17
5.670000E+03	1.890086E-15	3.912143E-17
5.680000E+03	1.871040E-15	3.871753E-17
5.690000E+03	1.852113E-15	3.831652E-17
5.700000E+03	1.833307E-15	3.791843E-17
5.710000E+03	1.814623E-15	3.752329E-17
5.720000E+03	1.796065E-15	3.713115E-17
5.730000E+03	1.777631E-15	3.674197E-17
5.740000E+03	1.759322E-15	3.635576E-17
5.750000E+03	1.741157E-15	3.597291E-17
5.760000E+03	1.723115E-15	3.559294E-17
5.770000E+03	1.705192E-15	3.521581E-17
5.780000E+03	1.687409E-15	3.484191E-17
5.790000E+03	1.669743E-15	3.447074E-17
5.800000E+03	1.652229E-15	3.410307E-17
5.810000E+03	1.634832E-15	3.373811E-17
5.820000E+03	1.617548E-15	3.337580E-17
5.830000E+03	1.600415E-15	3.301692E-17
5.840000E+03	1.583415E-15	3.266109E-17
5.850000E+03	1.566567E-15	3.230867E-17
5.860000E+03	1.549856E-15	3.195934E-17
5.870000E+03	1.533284E-15	3.161318E-17
5.880000E+03	1.516890E-15	3.127094E-17
5.890000E+03	1.500644E-15	3.093201E-17
5.900000E+03	1.484585E-15	3.059720E-17
5.910000E+03	1.468721E-15	3.026664E-17
5.920000E+03	1.453039E-15	2.994008E-17
5.930000E+03	1.437564E-15	2.961803E-17
5.940000E+03	1.422322E-15	2.930098E-17
5.950000E+03	1.407302E-15	2.898876E-17
5.960000E+03	1.392548E-15	2.868220E-17
5.970000E+03	1.378050E-15	2.838115E-17
5.980000E+03	1.363820E-15	2.808581E-17
5.990000E+03	1.349897E-15	2.779701E-17
6.000000E+03	1.336292E-15	2.751492E-17
6.010000E+03	1.323013E-15	2.723975E-17
6.020000E+03	1.310086E-15	2.697200E-17
6.030000E+03	1.297534E-15	2.671217E-17
6.040000E+03	1.285368E-15	2.646045E-17
6.050000E+03	1.273593E-15	2.621694E-17
6.060000E+03	1.262250E-15	2.598251E-17
6.070000E+03	1.251346E-15	2.575726E-17
6.080000E+03	1.240902E-15	2.554164E-17
6.090000E+03	1.230924E-15	2.533577E-17
6.100000E+03	1.221449E-15	2.514041E-17
6.110000E+03	1.212463E-15	2.495527E-17
6.120000E+03	1.203972E-15	2.478044E-17
6.130000E+03	1.196007E-15	2.461660E-17
6.140000E+03	1.188555E-15	2.446347E-17
6.150000E+03	1.181584E-15	2.432038E-17
6.160000E+03	1.175095E-15	2.418734E-17
6.170000E+03	1.169100E-15	2.406462E-17
6.180000E+03	1.163579E-15	2.395180E-17
6.190000E+03	1.158591E-15	2.385008E-17
6.200000E+03	1.154099E-15	2.375872E-17
6.210000E+03	1.150110E-15	2.367786E-17
6.220000E+03	1.146632E-15	2.360765E-17
6.230000E+03	1.143639E-15	2.354759E-17
6.240000E+03	1.141121E-15	2.349745E-17
6.250000E+03	1.139065E-15	2.345696E-17
6.260000E+03	1.137426E-15	2.342522E-17
6.270000E+03	1.136191E-15	2.340194E-17
6.280000E+03	1.135341E-15	2.338677E-17
6.290000E+03	1.134862E-15	2.337938E-17
6.300000E+03	1.134687E-15	2.337843E-17
6.310000E+03	1.134828E-15	2.338415E-17
6.320000E+03	1.135233E-15	2.339548E-17
6.330000E+03	1.135864E-15	2.341163E-17
6.340000E+03	1.136715E-15	2.343249E-17
6.350000E+03	1.137729E-15	2.345690E-17
6.360000E+03	1.138882E-15	2.348437E-17
6.370000E+03	1.140133E-15	2.351403E-17
6.380000E+03	1.141473E-15	2.354572E-17
6.390000E+03	1.142857E-15	2.357852E-17
6.400000E+03	1.144277E-15	2.361225E-17
6.410000E+03	1.145687E-15	2.364598E-17
6.420000E+03	1.147062E-15	2.367919E-17
6.430000E+03	1.148372E-15	2.371126E-17
6.440000E+03	1.149608E-15	2.374200E-17
6.450000E+03	1.150725E-15	2.377049E-17
6.460000E+03	1.151712E-15	2.379649E-17
6.470000E+03	1.152543E-15	2.381945E-17
6.480000E+03	1.153190E-15	2.383881E-17
6.490000E+03	1.153646E-15	2.385440E-17
6.500000E+03	1.153850E-15	2.386496E-17
6.510000E+03	1.153814E-15	2.387070E-17
6.520000E+03	1.153477E-15	2.387038E-17
6.530000E+03	1.152852E-15	2.386427E-17
6.540000E+03	1.151902E-15	2.385157E-17
6.550000E+03	1.150592E-15	2.383156E-17
6.560000E+03	1.148921E-15	2.380421E-17
6.570000E+03	1.146879E-15	2.376930E-17
6.580000E+03	1.144442E-15	2.372631E-17
6.590000E+03	1.141638E-15	2.367580E-17
6.600000E+03	1.138445E-15	2.361732E-17
6.610000E+03	1.134917E-15	2.355200E-17
6.620000E+03	1.131039E-15	2.347947E-17
6.630000E+03	1.126868E-15	2.340094E-17
6.640000E+03	1.122393E-15	2.331616E-17
6.650000E+03	1.117656E-15	2.322598E-17
6.660000E+03	1.112663E-15	2.313051E-17
6.670000E+03	1.107455E-15	2.303062E-17
6.680000E+03	1.102039E-15	2.292645E-17
6.690000E+03	1.096440E-15	2.281846E-17
6.700000E+03	1.090696E-15	2.270749E-17
6.710000E+03	1.084815E-15	2.259365E-17
6.720000E+03	1.078817E-15	2.247740E-17
6.730000E+03	1.072740E-15	2.235949E-17
6.740000E+03	1.066588E-15	2.224000E-17
6.750000E+03	1.060379E-15	2.211932E-17
6.760000E+03	1.054134E-15	2.199786E-17
6.770000E+03	1.047868E-15	2.187593E-17
6.780000E+03	1.041614E-15	2.175425E-17
6.790000E+03	1.035373E-15	2.163279E-17
6.800000E+03	1.029175E-15	2.151221E-17
6.810000E+03	1.022998E-15	2.139203E-17
6.820000E+03	1.016890E-15	2.127325E-17
6.830000E+03	1.010860E-15	2.115606E-17
6.840000E+03	1.004887E-15	2.104002E-17
6.850000E+03	9.990276E-16	2.092632E-17
6.860000E+03	9.932401E-16	2.081408E-17
6.870000E+03	9.875821E-16	2.070451E-17
6.880000E+03	9.820079E-16	2.059666E-17
6.890000E+03	9.765735E-16	2.049169E-17
6.900000E+03	9.712482E-16	2.038896E-17
6.910000E+03	9.660347E-16	2.028854E-17
6.920000E+03	9.609517E-16	2.019081E-17
6.930000E+03	9.559999E-16	2.009579E-17
6.940000E+03	9.511792E-16	2.000349E-17
6.950000E+03	9.464885E-16	1.991387E-17
6.960000E+03	9.419092E-16	1.982656E-17
6.970000E+03	9.374726E-16	1.974221E-17
6.980000E+03	9.331414E-16	1.966004E-17
6.990000E+03	9.289287E-16	1.958032E-17
7.000000E+03	9.248301E-16	1.950297E-17
7.010000E+03	9.208573E-16	1.942823E-17
7.020000E+03	9.169708E-16	1.935528E-17
7.030000E+03	9.131986E-16	1.928470E-17
7.040000E+03	9.095171E-16	1.921601E-17
7.050000E+03	9.059197E-16	1.914905E-17
7.060000E+03	9.023995E-16	1.908369E-17
7.070000E+03	8.989661E-16	1.902014E-17
7.080000E+03	8.955955E-16	1.895788E-17
7.090000E+03	8.922970E-16	1.889711E-17
7.100000E+03	8.890467E-16	1.883734E-17
7.110000E+03	8.858541E-16	1.877875E-17
7.120000E+03	8.827122E-16	1.872121E-17
7.130000E+03	8.795969E-16	1.866421E-17
7.140000E+03	8.765189E-16	1.860796E-17
7.150000E+03	8.734716E-16	1.855234E-17
7.160000E+03	8.704492E-16	1.849722E-17
7.170000E+03	8.674631E-16	1.844284E-17
7.180000E+03	8.644739E-16	1.838836E-17
7.190000E+03	8.614939E-16	1.833405E-17
7.200000E+03	8.585363E-16	1.828019E-17
7.210000E+03	8.555800E-16	1.822633E-17
7.220000E+03	8.526219E-16	1.817240E-17
7.230000E+03	8.496764E-16	1.811871E-17
7.240000E+03	8.467243E-16	1.806485E-17
7.250000E+03	8.437811E-16	1.801116E-17
7.260000E+03	8.408283E-16	1.795723E-17
7.270000E+03	8.378827E-16	1.790343E-17
7.280000E+03	8.349443E-16	1.784975E-17
7.290000E+03	8.320132E-16	1.779620E-17
7.300000E+03	8.290725E-16	1.774242E-17
7.310000E+03	8.261586E-16	1.768918E-17
7.320000E+03	8.232376E-16	1.763577E-17
7.330000E+03	8.203288E-16	1.758259E-17
7.340000E+03	8.174341E-16	1.752969E-17
7.350000E+03	8.145558E-16	1.747712E-17
7.360000E+03	8.116964E-16	1.742493E-17
7.370000E+03	8.088582E-16	1.737317E-17
7.380000E+03	8.060438E-16	1.732190E-17
7.390000E+03	8.032739E-16	1.727157E-17
7.400000E+03	8.005155E-16	1.722147E-17
7.410000E+03	7.978069E-16	1.717242E-17
7.420000E+03	7.951509E-16	1.712448E-17
7.430000E+03	7.925501E-16	1.707772E-17
7.440000E+03	7.899891E-16	1.703181E-17
7.450000E+03	7.874706E-16	1.698680E-17
7.460000E+03	7.849964E-16	1.694274E-17
7.470000E+03	7.825691E-16	1.689969E-17
7.480000E+03	7.801904E-16	1.685768E-17
7.490000E+03	7.778623E-16	1.681676E-17
7.500000E+03	7.755863E-16	1.677697E-17
7.510000E+03	7.733640E-16	1.673834E-17
7.520000E+03	7.711787E-16	1.670051E-17
7.530000E+03	7.690677E-16	1.666430E-17
7.540000E+03	7.669959E-16	1.662895E-17
7.550000E+03	7.649822E-16	1.659487E-17
7.560000E+03	7.630276E-16	1.656208E-17
7.570000E+03	7.611508E-16	1.653100E-17
7.580000E+03	7.593160E-16	1.650085E-17
7.590000E+03	7.575420E-16	1.647204E-17
7.600000E+03	7.558475E-16	1.644499E-17
7.610000E+03	7.541960E-16	1.641889E-17
7.620000E+03	7.526248E-16	1.639458E-17
7.630000E+03	7.510970E-16	1.637124E-17
7.640000E+03	7.496500E-16	1.634970E-17
7.650000E+03	7.482653E-16	1.632956E-17
7.660000E+03	7.469431E-16	1.631082E-17
7.670000E+03	7.456834E-16	1.629350E-17
7.680000E+03	7.444679E-16	1.627719E-17
7.690000E+03	7.433523E-16	1.626311E-17
7.700000E+03	7.422811E-16	1.625006E-17
7.710000E+03	7.412726E-16	1.623844E-17
7.720000E+03	7.403458E-16	1.622867E-17
7.730000E+03	7.394634E-16	1.621994E-17
7.740000E+03	7.386630E-16	1.621308E-17
7.750000E+03	7.379445E-16	1.620809E-17
7.760000E+03	7.372706E-16	1.620415E-17
