#wls	flux	fluxerr
1.600000E+03	2.826896E-16	9.025462E-18
1.640000E+03	2.869993E-16	9.151747E-18
1.680000E+03	2.914775E-16	9.282782E-18
1.720000E+03	2.961167E-16	9.418292E-18
1.760000E+03	3.009488E-16	9.559249E-18
1.800000E+03	3.060045E-16	9.706583E-18
1.840000E+03	3.112742E-16	9.859944E-18
1.880000E+03	3.168265E-16	1.002145E-17
1.920000E+03	3.226493E-16	1.019066E-17
1.960000E+03	3.288088E-16	1.036960E-17
2.000000E+03	3.353694E-16	1.056022E-17
2.040000E+03	3.423934E-16	1.076440E-17
2.080000E+03	3.499005E-16	1.098267E-17
2.120000E+03	3.580267E-16	1.121917E-17
2.160000E+03	3.667852E-16	1.147419E-17
2.200000E+03	3.763823E-16	1.175404E-17
2.240000E+03	3.868209E-16	1.205864E-17
2.280000E+03	3.982553E-16	1.239260E-17
2.320000E+03	4.107146E-16	1.275662E-17
2.360000E+03	4.242980E-16	1.315355E-17
2.400000E+03	4.389418E-16	1.358115E-17
2.440000E+03	4.546900E-16	1.404055E-17
2.480000E+03	4.714639E-16	1.452906E-17
2.520000E+03	4.892153E-16	1.504492E-17
2.560000E+03	5.079626E-16	1.558846E-17
2.600000E+03	5.276031E-16	1.615625E-17
2.640000E+03	5.481363E-16	1.674803E-17
2.680000E+03	5.694791E-16	1.736101E-17
2.720000E+03	5.916110E-16	1.799431E-17
2.760000E+03	6.143955E-16	1.864354E-17
2.800000E+03	6.377944E-16	1.930732E-17
2.840000E+03	6.617588E-16	1.998396E-17
2.880000E+03	6.861966E-16	2.067045E-17
2.920000E+03	7.110415E-16	2.136462E-17
2.960000E+03	7.364119E-16	2.206983E-17
3.000000E+03	7.624987E-16	2.279159E-17
3.010000E+03	7.691568E-16	2.297531E-17
3.020000E+03	7.758936E-16	2.316106E-17
3.030000E+03	7.827051E-16	2.334870E-17
3.040000E+03	7.895874E-16	2.353813E-17
3.050000E+03	7.965363E-16	2.372920E-17
3.060000E+03	8.035785E-16	2.392271E-17
3.070000E+03	8.107095E-16	2.411851E-17
3.080000E+03	8.179552E-16	2.431737E-17
3.090000E+03	8.252806E-16	2.451824E-17
3.100000E+03	8.327113E-16	2.472188E-17
3.110000E+03	8.402719E-16	2.492900E-17
3.120000E+03	8.479279E-16	2.513858E-17
3.130000E+03	8.557037E-16	2.535132E-17
3.140000E+03	8.636235E-16	2.556794E-17
3.150000E+03	8.716525E-16	2.578740E-17
3.160000E+03	8.798430E-16	2.601123E-17
3.170000E+03	8.881892E-16	2.623925E-17
3.180000E+03	8.966567E-16	2.647044E-17
3.190000E+03	9.052966E-16	2.670629E-17
3.200000E+03	9.141025E-16	2.694660E-17
3.210000E+03	9.230682E-16	2.719117E-17
3.220000E+03	9.321876E-16	2.743982E-17
3.230000E+03	9.415097E-16	2.769398E-17
3.240000E+03	9.510275E-16	2.795342E-17
3.250000E+03	9.607072E-16	2.821714E-17
3.260000E+03	9.705965E-16	2.848652E-17
3.270000E+03	9.806884E-16	2.876136E-17
3.280000E+03	9.909761E-16	2.904141E-17
3.290000E+03	1.001453E-15	2.932650E-17
3.300000E+03	1.012165E-15	2.961794E-17
3.310000E+03	1.023079E-15	2.991474E-17
3.320000E+03	1.034214E-15	3.021745E-17
3.330000E+03	1.045564E-15	3.052587E-17
3.340000E+03	1.057147E-15	3.084052E-17
3.350000E+03	1.068932E-15	3.116046E-17
3.360000E+03	1.080937E-15	3.148624E-17
3.370000E+03	1.093132E-15	3.181692E-17
3.380000E+03	1.105561E-15	3.215380E-17
3.390000E+03	1.118193E-15	3.249595E-17
3.400000E+03	1.131024E-15	3.284324E-17
3.410000E+03	1.144026E-15	3.319481E-17
3.420000E+03	1.157216E-15	3.355122E-17
3.430000E+03	1.170570E-15	3.391168E-17
3.440000E+03	1.184060E-15	3.427541E-17
3.450000E+03	1.197685E-15	3.464233E-17
3.460000E+03	1.211443E-15	3.501241E-17
3.470000E+03	1.225263E-15	3.538361E-17
3.480000E+03	1.239149E-15	3.575596E-17
3.490000E+03	1.253077E-15	3.612884E-17
3.500000E+03	1.267006E-15	3.650103E-17
3.510000E+03	1.280918E-15	3.687200E-17
3.520000E+03	1.294750E-15	3.723997E-17
3.530000E+03	1.308511E-15	3.760516E-17
3.540000E+03	1.322141E-15	3.796589E-17
3.550000E+03	1.335627E-15	3.832180E-17
3.560000E+03	1.348937E-15	3.867194E-17
3.570000E+03	1.362019E-15	3.901485E-17
3.580000E+03	1.374862E-15	3.935024E-17
3.590000E+03	1.387439E-15	3.967735E-17
3.600000E+03	1.399701E-15	3.999480E-17
3.610000E+03	1.411644E-15	4.030249E-17
3.620000E+03	1.423243E-15	4.059974E-17
3.630000E+03	1.434496E-15	4.088651E-17
3.640000E+03	1.445418E-15	4.116327E-17
3.650000E+03	1.456011E-15	4.143007E-17
3.660000E+03	1.466269E-15	4.168676E-17
3.670000E+03	1.476232E-15	4.193455E-17
3.680000E+03	1.485920E-15	4.217396E-17
3.690000E+03	1.495327E-15	4.240490E-17
3.700000E+03	1.504471E-15	4.262788E-17
3.710000E+03	1.513371E-15	4.284345E-17
3.720000E+03	1.522060E-15	4.305259E-17
3.730000E+03	1.530538E-15	4.325525E-17
3.740000E+03	1.538816E-15	4.345184E-17
3.750000E+03	1.546932E-15	4.364340E-17
3.760000E+03	1.554898E-15	4.383028E-17
3.770000E+03	1.562710E-15	4.401237E-17
3.780000E+03	1.570396E-15	4.419052E-17
3.790000E+03	1.577971E-15	4.436513E-17
3.800000E+03	1.585465E-15	4.453703E-17
3.810000E+03	1.592851E-15	4.470550E-17
3.820000E+03	1.600174E-15	4.487182E-17
3.830000E+03	1.607445E-15	4.503626E-17
3.840000E+03	1.614651E-15	4.519853E-17
3.850000E+03	1.621841E-15	4.535994E-17
3.860000E+03	1.628999E-15	4.552008E-17
3.870000E+03	1.636115E-15	4.567865E-17
3.880000E+03	1.643247E-15	4.583733E-17
3.890000E+03	1.650366E-15	4.599524E-17
3.900000E+03	1.657511E-15	4.615352E-17
3.910000E+03	1.664650E-15	4.631125E-17
3.920000E+03	1.671822E-15	4.646953E-17
3.930000E+03	1.679012E-15	4.662794E-17
3.940000E+03	1.686258E-15	4.678755E-17
3.950000E+03	1.693525E-15	4.694739E-17
3.960000E+03	1.700837E-15	4.710807E-17
3.970000E+03	1.708209E-15	4.727007E-17
3.980000E+03	1.715645E-15	4.743349E-17
3.990000E+03	1.723128E-15	4.759782E-17
4.000000E+03	1.730679E-15	4.776367E-17
4.010000E+03	1.738316E-15	4.793152E-17
4.020000E+03	1.746023E-15	4.810094E-17
4.030000E+03	1.753804E-15	4.827202E-17
4.040000E+03	1.761677E-15	4.844528E-17
4.050000E+03	1.769648E-15	4.862084E-17
4.060000E+03	1.777718E-15	4.879878E-17
4.070000E+03	1.785893E-15	4.897919E-17
4.080000E+03	1.794191E-15	4.916264E-17
4.090000E+03	1.802603E-15	4.934880E-17
4.100000E+03	1.811132E-15	4.953781E-17
4.110000E+03	1.819803E-15	4.973030E-17
4.120000E+03	1.828603E-15	4.992593E-17
4.130000E+03	1.837556E-15	5.012536E-17
4.140000E+03	1.846652E-15	5.032829E-17
4.150000E+03	1.855915E-15	5.053539E-17
4.160000E+03	1.865335E-15	5.074637E-17
4.170000E+03	1.874920E-15	5.096142E-17
4.180000E+03	1.884676E-15	5.118072E-17
4.190000E+03	1.894612E-15	5.140450E-17
4.200000E+03	1.904733E-15	5.163290E-17
4.210000E+03	1.915012E-15	5.186516E-17
4.220000E+03	1.925472E-15	5.210190E-17
4.230000E+03	1.936082E-15	5.234228E-17
4.240000E+03	1.946849E-15	5.258649E-17
4.250000E+03	1.957756E-15	5.283405E-17
4.260000E+03	1.968808E-15	5.308510E-17
4.270000E+03	1.979950E-15	5.333815E-17
4.280000E+03	1.991165E-15	5.359273E-17
4.290000E+03	2.002431E-15	5.384828E-17
4.300000E+03	2.013727E-15	5.410424E-17
4.310000E+03	2.024973E-15	5.435841E-17
4.320000E+03	2.036161E-15	5.461065E-17
4.330000E+03	2.047222E-15	5.485910E-17
4.340000E+03	2.058126E-15	5.510294E-17
4.350000E+03	2.068799E-15	5.534026E-17
4.360000E+03	2.079201E-15	5.556998E-17
4.370000E+03	2.089305E-15	5.579144E-17
4.380000E+03	2.099118E-15	5.600482E-17
4.390000E+03	2.108603E-15	5.620916E-17
4.400000E+03	2.117815E-15	5.640600E-17
4.410000E+03	2.126734E-15	5.659477E-17
4.420000E+03	2.135378E-15	5.677601E-17
4.430000E+03	2.143763E-15	5.695015E-17
4.440000E+03	2.151904E-15	5.711762E-17
4.450000E+03	2.159763E-15	5.727742E-17
4.460000E+03	2.167376E-15	5.743053E-17
4.470000E+03	2.174744E-15	5.757699E-17
4.480000E+03	2.181828E-15	5.771579E-17
4.490000E+03	2.188654E-15	5.784761E-17
4.500000E+03	2.195205E-15	5.797207E-17
4.510000E+03	2.201450E-15	5.808832E-17
4.520000E+03	2.207400E-15	5.819670E-17
4.530000E+03	2.213046E-15	5.829699E-17
4.540000E+03	2.218366E-15	5.838862E-17
4.550000E+03	2.223357E-15	5.847152E-17
4.560000E+03	2.228000E-15	5.854526E-17
4.570000E+03	2.232302E-15	5.861002E-17
4.580000E+03	2.236230E-15	5.866495E-17
4.590000E+03	2.239817E-15	5.871094E-17
4.600000E+03	2.243018E-15	5.874683E-17
4.610000E+03	2.245890E-15	5.877416E-17
4.620000E+03	2.248377E-15	5.879145E-17
4.630000E+03	2.250544E-15	5.880048E-17
4.640000E+03	2.252359E-15	5.880036E-17
4.650000E+03	2.253876E-15	5.879260E-17
4.660000E+03	2.255069E-15	5.877647E-17
4.670000E+03	2.255996E-15	5.875356E-17
4.680000E+03	2.256678E-15	5.872439E-17
4.690000E+03	2.257119E-15	5.868910E-17
4.700000E+03	2.257343E-15	5.864832E-17
4.710000E+03	2.257356E-15	5.860223E-17
4.720000E+03	2.257147E-15	5.855053E-17
4.730000E+03	2.256744E-15	5.849399E-17
4.740000E+03	2.256116E-15	5.843183E-17
4.750000E+03	2.255316E-15	5.836539E-17
4.760000E+03	2.254315E-15	5.829398E-17
4.770000E+03	2.253165E-15	5.821893E-17
4.780000E+03	2.251900E-15	5.814110E-17
4.790000E+03	2.250530E-15	5.806082E-17
4.800000E+03	2.249110E-15	5.797944E-17
4.810000E+03	2.247667E-15	5.789774E-17
4.820000E+03	2.246254E-15	5.781702E-17
4.830000E+03	2.244876E-15	5.773743E-17
4.840000E+03	2.243582E-15	5.766022E-17
4.850000E+03	2.242394E-15	5.758599E-17
4.860000E+03	2.241378E-15	5.751637E-17
4.870000E+03	2.240511E-15	5.745080E-17
4.880000E+03	2.239871E-15	5.739127E-17
4.890000E+03	2.239434E-15	5.733711E-17
4.900000E+03	2.239250E-15	5.728966E-17
4.910000E+03	2.239310E-15	5.724860E-17
4.920000E+03	2.239658E-15	5.721512E-17
4.930000E+03	2.240259E-15	5.718825E-17
4.940000E+03	2.241173E-15	5.716955E-17
4.950000E+03	2.242335E-15	5.715731E-17
4.960000E+03	2.243800E-15	5.715294E-17
4.970000E+03	2.245540E-15	5.715571E-17
4.980000E+03	2.247562E-15	5.716577E-17
4.990000E+03	2.249807E-15	5.718164E-17
5.000000E+03	2.252301E-15	5.720396E-17
5.010000E+03	2.255021E-15	5.723213E-17
5.020000E+03	2.257925E-15	5.726506E-17
5.030000E+03	2.261006E-15	5.730259E-17
5.040000E+03	2.264214E-15	5.734342E-17
5.050000E+03	2.267542E-15	5.738740E-17
5.060000E+03	2.270954E-15	5.743363E-17
5.070000E+03	2.274421E-15	5.748131E-17
5.080000E+03	2.277882E-15	5.752897E-17
5.090000E+03	2.281326E-15	5.757630E-17
5.100000E+03	2.284714E-15	5.762232E-17
5.110000E+03	2.287989E-15	5.766561E-17
5.120000E+03	2.291133E-15	5.770574E-17
5.130000E+03	2.294067E-15	5.774071E-17
5.140000E+03	2.296820E-15	5.777126E-17
5.150000E+03	2.299288E-15	5.779483E-17
5.160000E+03	2.301484E-15	5.781171E-17
5.170000E+03	2.303350E-15	5.782050E-17
5.180000E+03	2.304831E-15	5.781985E-17
5.190000E+03	2.305946E-15	5.781021E-17
5.200000E+03	2.306618E-15	5.778972E-17
5.210000E+03	2.306823E-15	5.775777E-17
5.220000E+03	2.306560E-15	5.771440E-17
5.230000E+03	2.305785E-15	5.765853E-17
5.240000E+03	2.304481E-15	5.758973E-17
5.250000E+03	2.302632E-15	5.750764E-17
5.260000E+03	2.300223E-15	5.741194E-17
5.270000E+03	2.297223E-15	5.730184E-17
5.280000E+03	2.293645E-15	5.717774E-17
5.290000E+03	2.289460E-15	5.703894E-17
5.300000E+03	2.284665E-15	5.688538E-17
5.310000E+03	2.279237E-15	5.671652E-17
5.320000E+03	2.273197E-15	5.653292E-17
5.330000E+03	2.266549E-15	5.633470E-17
5.340000E+03	2.259249E-15	5.612082E-17
5.350000E+03	2.251329E-15	5.589206E-17
5.360000E+03	2.242793E-15	5.564858E-17
5.370000E+03	2.233627E-15	5.539007E-17
5.380000E+03	2.223864E-15	5.511732E-17
5.390000E+03	2.213471E-15	5.482956E-17
5.400000E+03	2.202481E-15	5.452764E-17
5.410000E+03	2.190889E-15	5.421143E-17
5.420000E+03	2.178732E-15	5.388189E-17
5.430000E+03	2.165992E-15	5.353854E-17
5.440000E+03	2.152739E-15	5.318316E-17
5.450000E+03	2.138961E-15	5.281546E-17
5.460000E+03	2.124714E-15	5.243685E-17
5.470000E+03	2.110010E-15	5.204759E-17
5.480000E+03	2.094882E-15	5.164856E-17
5.490000E+03	2.079342E-15	5.124001E-17
5.500000E+03	2.063424E-15	5.082282E-17
5.510000E+03	2.047179E-15	5.039823E-17
5.520000E+03	2.030595E-15	4.996598E-17
5.530000E+03	2.013725E-15	4.952732E-17
5.540000E+03	1.996595E-15	4.908297E-17
5.550000E+03	1.979234E-15	4.863355E-17
5.560000E+03	1.961665E-15	4.817971E-17
5.570000E+03	1.943935E-15	4.772255E-17
5.580000E+03	1.926045E-15	4.726213E-17
5.590000E+03	1.908000E-15	4.679851E-17
5.600000E+03	1.889878E-15	4.633367E-17
5.610000E+03	1.871643E-15	4.586669E-17
5.620000E+03	1.853371E-15	4.539939E-17
5.630000E+03	1.835040E-15	4.493130E-17
5.640000E+03	1.816668E-15	4.446282E-17
5.650000E+03	1.798293E-15	4.399485E-17
5.660000E+03	1.779927E-15	4.352770E-17
5.670000E+03	1.761587E-15	4.306177E-17
5.680000E+03	1.743285E-15	4.259735E-17
5.690000E+03	1.725034E-15	4.213477E-17
5.700000E+03	1.706847E-15	4.167429E-17
5.710000E+03	1.688736E-15	4.121625E-17
5.720000E+03	1.670712E-15	4.076086E-17
5.730000E+03	1.652802E-15	4.030880E-17
5.740000E+03	1.635017E-15	3.986031E-17
5.750000E+03	1.617348E-15	3.941516E-17
5.760000E+03	1.599804E-15	3.897359E-17
5.770000E+03	1.582428E-15	3.853661E-17
5.780000E+03	1.565193E-15	3.810357E-17
5.790000E+03	1.548142E-15	3.767549E-17
5.800000E+03	1.531248E-15	3.725170E-17
5.810000E+03	1.514550E-15	3.683317E-17
5.820000E+03	1.498039E-15	3.641964E-17
5.830000E+03	1.481740E-15	3.601170E-17
5.840000E+03	1.465656E-15	3.560944E-17
5.850000E+03	1.449779E-15	3.521263E-17
5.860000E+03	1.434130E-15	3.482180E-17
5.870000E+03	1.418731E-15	3.443746E-17
5.880000E+03	1.403555E-15	3.405895E-17
5.890000E+03	1.388657E-15	3.368755E-17
5.900000E+03	1.374009E-15	3.332265E-17
5.910000E+03	1.359617E-15	3.296430E-17
5.920000E+03	1.345516E-15	3.261342E-17
5.930000E+03	1.331698E-15	3.226974E-17
5.940000E+03	1.318165E-15	3.193333E-17
5.950000E+03	1.304937E-15	3.160468E-17
5.960000E+03	1.292005E-15	3.128352E-17
5.970000E+03	1.279386E-15	3.097029E-17
5.980000E+03	1.267101E-15	3.066546E-17
5.990000E+03	1.255123E-15	3.036837E-17
6.000000E+03	1.243485E-15	3.007984E-17
6.010000E+03	1.232175E-15	2.979955E-17
6.020000E+03	1.221225E-15	2.952828E-17
6.030000E+03	1.210595E-15	2.926502E-17
6.040000E+03	1.200330E-15	2.901086E-17
6.050000E+03	1.190417E-15	2.876550E-17
6.060000E+03	1.180858E-15	2.852898E-17
6.070000E+03	1.171654E-15	2.830129E-17
6.080000E+03	1.162804E-15	2.808242E-17
6.090000E+03	1.154325E-15	2.787276E-17
6.100000E+03	1.146213E-15	2.767222E-17
6.110000E+03	1.138484E-15	2.748116E-17
6.120000E+03	1.131120E-15	2.729917E-17
6.130000E+03	1.124148E-15	2.712689E-17
6.140000E+03	1.117594E-15	2.696490E-17
6.150000E+03	1.111467E-15	2.681345E-17
6.160000E+03	1.105818E-15	2.667376E-17
6.170000E+03	1.100685E-15	2.654676E-17
6.180000E+03	1.096021E-15	2.643127E-17
6.190000E+03	1.091807E-15	2.632684E-17
6.200000E+03	1.087993E-15	2.623229E-17
6.210000E+03	1.084546E-15	2.614680E-17
6.220000E+03	1.081431E-15	2.606953E-17
6.230000E+03	1.078652E-15	2.600055E-17
6.240000E+03	1.076174E-15	2.593905E-17
6.250000E+03	1.074001E-15	2.588510E-17
6.260000E+03	1.072107E-15	2.583810E-17
6.270000E+03	1.070496E-15	2.579812E-17
6.280000E+03	1.069140E-15	2.576452E-17
6.290000E+03	1.068029E-15	2.573703E-17
6.300000E+03	1.067147E-15	2.571526E-17
6.310000E+03	1.066495E-15	2.569926E-17
6.320000E+03	1.066058E-15	2.568866E-17
6.330000E+03	1.065805E-15	2.568273E-17
6.340000E+03	1.065735E-15	2.568141E-17
6.350000E+03	1.065828E-15	2.568427E-17
6.360000E+03	1.066070E-15	2.569093E-17
6.370000E+03	1.066438E-15	2.570087E-17
6.380000E+03	1.066931E-15	2.571407E-17
6.390000E+03	1.067512E-15	2.572962E-17
6.400000E+03	1.068162E-15	2.574708E-17
6.410000E+03	1.068859E-15	2.576592E-17
6.420000E+03	1.069598E-15	2.578602E-17
6.430000E+03	1.070324E-15	2.580608E-17
6.440000E+03	1.071033E-15	2.582596E-17
6.450000E+03	1.071699E-15	2.584507E-17
6.460000E+03	1.072301E-15	2.586290E-17
6.470000E+03	1.072787E-15	2.587816E-17
6.480000E+03	1.073162E-15	2.589098E-17
6.490000E+03	1.073373E-15	2.590009E-17
6.500000E+03	1.073397E-15	2.590493E-17
6.510000E+03	1.073228E-15	2.590532E-17
6.520000E+03	1.072814E-15	2.590004E-17
6.530000E+03	1.072151E-15	2.588895E-17
6.540000E+03	1.071219E-15	2.587157E-17
6.550000E+03	1.069973E-15	2.584681E-17
6.560000E+03	1.068427E-15	2.581500E-17
6.570000E+03	1.066542E-15	2.577521E-17
6.580000E+03	1.064344E-15	2.572800E-17
6.590000E+03	1.061804E-15	2.567271E-17
6.600000E+03	1.058944E-15	2.560983E-17
6.610000E+03	1.055775E-15	2.553965E-17
6.620000E+03	1.052313E-15	2.546250E-17
6.630000E+03	1.048571E-15	2.537873E-17
6.640000E+03	1.044549E-15	2.528832E-17
6.650000E+03	1.040283E-15	2.519210E-17
6.660000E+03	1.035805E-15	2.509086E-17
6.670000E+03	1.031103E-15	2.498429E-17
6.680000E+03	1.026210E-15	2.487321E-17
6.690000E+03	1.021146E-15	2.475805E-17
6.700000E+03	1.015929E-15	2.463926E-17
6.710000E+03	1.010592E-15	2.451764E-17
6.720000E+03	1.005122E-15	2.439285E-17
6.730000E+03	9.995675E-16	2.426605E-17
6.740000E+03	9.939281E-16	2.413726E-17
6.750000E+03	9.882356E-16	2.400721E-17
6.760000E+03	9.824892E-16	2.387590E-17
6.770000E+03	9.767032E-16	2.374365E-17
6.780000E+03	9.709063E-16	2.361116E-17
6.790000E+03	9.651110E-16	2.347874E-17
6.800000E+03	9.593136E-16	2.334628E-17
6.810000E+03	9.535404E-16	2.321443E-17
6.820000E+03	9.477859E-16	2.308304E-17
6.830000E+03	9.420903E-16	2.295308E-17
6.840000E+03	9.364313E-16	2.282402E-17
6.850000E+03	9.308316E-16	2.269641E-17
6.860000E+03	9.252830E-16	2.257004E-17
6.870000E+03	9.198220E-16	2.244580E-17
6.880000E+03	9.144386E-16	2.232344E-17
6.890000E+03	9.091224E-16	2.220272E-17
6.900000E+03	9.039076E-16	2.208445E-17
6.910000E+03	8.987672E-16	2.196799E-17
6.920000E+03	8.937341E-16	2.185414E-17
6.930000E+03	8.887799E-16	2.174220E-17
6.940000E+03	8.839365E-16	2.163295E-17
6.950000E+03	8.791895E-16	2.152605E-17
6.960000E+03	8.745242E-16	2.142112E-17
6.970000E+03	8.699857E-16	2.131928E-17
6.980000E+03	8.655282E-16	2.121940E-17
6.990000E+03	8.611659E-16	2.112184E-17
7.000000E+03	8.569121E-16	2.102691E-17
7.010000E+03	8.527353E-16	2.093386E-17
7.020000E+03	8.486632E-16	2.084335E-17
7.030000E+03	8.446785E-16	2.075496E-17
7.040000E+03	8.407935E-16	2.066900E-17
7.050000E+03	8.369904E-16	2.058504E-17
7.060000E+03	8.332659E-16	2.050298E-17
7.070000E+03	8.296169E-16	2.042276E-17
7.080000E+03	8.260400E-16	2.034429E-17
7.090000E+03	8.225467E-16	2.026786E-17
7.100000E+03	8.191334E-16	2.019338E-17
7.110000E+03	8.157815E-16	2.012039E-17
7.120000E+03	8.124873E-16	2.004880E-17
7.130000E+03	8.092471E-16	1.997852E-17
7.140000E+03	8.060874E-16	1.991021E-17
7.150000E+03	8.029597E-16	1.984266E-17
7.160000E+03	7.998904E-16	1.977654E-17
7.170000E+03	7.968762E-16	1.971175E-17
7.180000E+03	7.939139E-16	1.964823E-17
7.190000E+03	7.909851E-16	1.958551E-17
7.200000E+03	7.881021E-16	1.952391E-17
7.210000E+03	7.852620E-16	1.946335E-17
7.220000E+03	7.824621E-16	1.940376E-17
7.230000E+03	7.796846E-16	1.934471E-17
7.240000E+03	7.769579E-16	1.928690E-17
7.250000E+03	7.742643E-16	1.922989E-17
7.260000E+03	7.716175E-16	1.917401E-17
7.270000E+03	7.690002E-16	1.911885E-17
7.280000E+03	7.664110E-16	1.906437E-17
7.290000E+03	7.638791E-16	1.901130E-17
7.300000E+03	7.613728E-16	1.895884E-17
7.310000E+03	7.589216E-16	1.890774E-17
7.320000E+03	7.565096E-16	1.885759E-17
7.330000E+03	7.541514E-16	1.880877E-17
7.340000E+03	7.518622E-16	1.876166E-17
7.350000E+03	7.496262E-16	1.871585E-17
7.360000E+03	7.474744E-16	1.867214E-17
7.370000E+03	7.453914E-16	1.863013E-17
7.380000E+03	7.433926E-16	1.859022E-17
7.390000E+03	7.414943E-16	1.855282E-17
7.400000E+03	7.396970E-16	1.851793E-17
7.410000E+03	7.380168E-16	1.848598E-17
7.420000E+03	7.364547E-16	1.845699E-17
7.430000E+03	7.350270E-16	1.843138E-17
7.440000E+03	7.337030E-16	1.840837E-17
7.450000E+03	7.324837E-16	1.838800E-17
7.460000E+03	7.313697E-16	1.837029E-17
7.470000E+03	7.303459E-16	1.835487E-17
7.480000E+03	7.293972E-16	1.834135E-17
7.490000E+03	7.285083E-16	1.832936E-17
7.500000E+03	7.276796E-16	1.831891E-17
7.510000E+03	7.269116E-16	1.831001E-17
7.520000E+03	7.262053E-16	1.830270E-17
7.530000E+03	7.255286E-16	1.829617E-17
7.540000E+03	7.248982E-16	1.829084E-17
7.550000E+03	7.243146E-16	1.828672E-17
7.560000E+03	7.237618E-16	1.828342E-17
7.570000E+03	7.232402E-16	1.828095E-17
7.580000E+03	7.227501E-16	1.827931E-17
7.590000E+03	7.223082E-16	1.827894E-17
7.600000E+03	7.218820E-16	1.827900E-17
7.610000E+03	7.214881E-16	1.827993E-17
7.620000E+03	7.211103E-16	1.828132E-17
7.630000E+03	7.207819E-16	1.828400E-17
7.640000E+03	7.204699E-16	1.828716E-17
7.650000E+03	7.201911E-16	1.829120E-17
7.660000E+03	7.199290E-16	1.829573E-17
7.670000E+03	7.197006E-16	1.830117E-17
7.680000E+03	7.195059E-16	1.830753E-17
7.690000E+03	7.193453E-16	1.831481E-17
7.700000E+03	7.192021E-16	1.832260E-17
7.710000E+03	7.190933E-16	1.833133E-17
7.720000E+03	7.190189E-16	1.834100E-17
7.730000E+03	7.189795E-16	1.835164E-17
7.740000E+03	7.189751E-16	1.836324E-17
7.750000E+03	7.189888E-16	1.837537E-17
7.760000E+03	7.190550E-16	1.838892E-17
