#wls	flux	fluxerr
1.600000E+03	2.855542E-16	9.959516E-18
1.640000E+03	2.902560E-16	1.010904E-17
1.680000E+03	2.950842E-16	1.026213E-17
1.720000E+03	3.001481E-16	1.042254E-17
1.760000E+03	3.054002E-16	1.058858E-17
1.800000E+03	3.109097E-16	1.076256E-17
1.840000E+03	3.166662E-16	1.094407E-17
1.880000E+03	3.226973E-16	1.113399E-17
1.920000E+03	3.290294E-16	1.133315E-17
1.960000E+03	3.357270E-16	1.154368E-17
2.000000E+03	3.428520E-16	1.176761E-17
2.040000E+03	3.503860E-16	1.200419E-17
2.080000E+03	3.585043E-16	1.225930E-17
2.120000E+03	3.671821E-16	1.253195E-17
2.160000E+03	3.765872E-16	1.282769E-17
2.200000E+03	3.868423E-16	1.315050E-17
2.240000E+03	3.980253E-16	1.350280E-17
2.280000E+03	4.102461E-16	1.388806E-17
2.320000E+03	4.236062E-16	1.430943E-17
2.360000E+03	4.381603E-16	1.476842E-17
2.400000E+03	4.539160E-16	1.526497E-17
2.440000E+03	4.708343E-16	1.579740E-17
2.480000E+03	4.888687E-16	1.636381E-17
2.520000E+03	5.080010E-16	1.696324E-17
2.560000E+03	5.282035E-16	1.759440E-17
2.600000E+03	5.493661E-16	1.825327E-17
2.640000E+03	5.715505E-16	1.894155E-17
2.680000E+03	5.945914E-16	1.965341E-17
2.720000E+03	6.184931E-16	2.038864E-17
2.760000E+03	6.431772E-16	2.114435E-17
2.800000E+03	6.685561E-16	2.191732E-17
2.840000E+03	6.945332E-16	2.270407E-17
2.880000E+03	7.211018E-16	2.350412E-17
2.920000E+03	7.482414E-16	2.431650E-17
2.960000E+03	7.760763E-16	2.514494E-17
3.000000E+03	8.047990E-16	2.599535E-17
3.010000E+03	8.121584E-16	2.621263E-17
3.020000E+03	8.195812E-16	2.643151E-17
3.030000E+03	8.270940E-16	2.665283E-17
3.040000E+03	8.347223E-16	2.687741E-17
3.050000E+03	8.424010E-16	2.710314E-17
3.060000E+03	8.502162E-16	2.733279E-17
3.070000E+03	8.581326E-16	2.756521E-17
3.080000E+03	8.661452E-16	2.780022E-17
3.090000E+03	8.742493E-16	2.803768E-17
3.100000E+03	8.824984E-16	2.827928E-17
3.110000E+03	8.908870E-16	2.852483E-17
3.120000E+03	8.993803E-16	2.877321E-17
3.130000E+03	9.080305E-16	2.902607E-17
3.140000E+03	9.168316E-16	2.928322E-17
3.150000E+03	9.257773E-16	2.954444E-17
3.160000E+03	9.348618E-16	2.980952E-17
3.170000E+03	9.441353E-16	3.008005E-17
3.180000E+03	9.535348E-16	3.035401E-17
3.190000E+03	9.631378E-16	3.063386E-17
3.200000E+03	9.729096E-16	3.091846E-17
3.210000E+03	9.828709E-16	3.120847E-17
3.220000E+03	9.930418E-16	3.150451E-17
3.230000E+03	1.003388E-15	3.180545E-17
3.240000E+03	1.013929E-15	3.211193E-17
3.250000E+03	1.024658E-15	3.242370E-17
3.260000E+03	1.035622E-15	3.274219E-17
3.270000E+03	1.046786E-15	3.306631E-17
3.280000E+03	1.058167E-15	3.339661E-17
3.290000E+03	1.069762E-15	3.373290E-17
3.300000E+03	1.081586E-15	3.407568E-17
3.310000E+03	1.093632E-15	3.442474E-17
3.320000E+03	1.105894E-15	3.477978E-17
3.330000E+03	1.118364E-15	3.514061E-17
3.340000E+03	1.131062E-15	3.550778E-17
3.350000E+03	1.143979E-15	3.588103E-17
3.360000E+03	1.157110E-15	3.626015E-17
3.370000E+03	1.170424E-15	3.664417E-17
3.380000E+03	1.183964E-15	3.703442E-17
3.390000E+03	1.197675E-15	3.742916E-17
3.400000E+03	1.211555E-15	3.782828E-17
3.410000E+03	1.225623E-15	3.823237E-17
3.420000E+03	1.239827E-15	3.863984E-17
3.430000E+03	1.254165E-15	3.905052E-17
3.440000E+03	1.268635E-15	3.946442E-17
3.450000E+03	1.283188E-15	3.987999E-17
3.460000E+03	1.297804E-15	4.029654E-17
3.470000E+03	1.312481E-15	4.071407E-17
3.480000E+03	1.327177E-15	4.113123E-17
3.490000E+03	1.341852E-15	4.154677E-17
3.500000E+03	1.356484E-15	4.196006E-17
3.510000E+03	1.371060E-15	4.237067E-17
3.520000E+03	1.385543E-15	4.277742E-17
3.530000E+03	1.399895E-15	4.317923E-17
3.540000E+03	1.414084E-15	4.357507E-17
3.550000E+03	1.428099E-15	4.396461E-17
3.560000E+03	1.441867E-15	4.434564E-17
3.570000E+03	1.455400E-15	4.471856E-17
3.580000E+03	1.468652E-15	4.508195E-17
3.590000E+03	1.481615E-15	4.543560E-17
3.600000E+03	1.494266E-15	4.577883E-17
3.610000E+03	1.506581E-15	4.611094E-17
3.620000E+03	1.518557E-15	4.643188E-17
3.630000E+03	1.530172E-15	4.674098E-17
3.640000E+03	1.541427E-15	4.703830E-17
3.650000E+03	1.552301E-15	4.732325E-17
3.660000E+03	1.562832E-15	4.759705E-17
3.670000E+03	1.572984E-15	4.785856E-17
3.680000E+03	1.582795E-15	4.810906E-17
3.690000E+03	1.592286E-15	4.834914E-17
3.700000E+03	1.601435E-15	4.857824E-17
3.710000E+03	1.610283E-15	4.879755E-17
3.720000E+03	1.618848E-15	4.900771E-17
3.730000E+03	1.627128E-15	4.920868E-17
3.740000E+03	1.635162E-15	4.940162E-17
3.750000E+03	1.642963E-15	4.958700E-17
3.760000E+03	1.650549E-15	4.976535E-17
3.770000E+03	1.657933E-15	4.993712E-17
3.780000E+03	1.665133E-15	5.010282E-17
3.790000E+03	1.672177E-15	5.026333E-17
3.800000E+03	1.679078E-15	5.041909E-17
3.810000E+03	1.685867E-15	5.057102E-17
3.820000E+03	1.692516E-15	5.071829E-17
3.830000E+03	1.699091E-15	5.086288E-17
3.840000E+03	1.705581E-15	5.100450E-17
3.850000E+03	1.711994E-15	5.114337E-17
3.860000E+03	1.718355E-15	5.128028E-17
3.870000E+03	1.724688E-15	5.141593E-17
3.880000E+03	1.730979E-15	5.154992E-17
3.890000E+03	1.737251E-15	5.168294E-17
3.900000E+03	1.743527E-15	5.181565E-17
3.910000E+03	1.749790E-15	5.194758E-17
3.920000E+03	1.756062E-15	5.207937E-17
3.930000E+03	1.762343E-15	5.221104E-17
3.940000E+03	1.768655E-15	5.234323E-17
3.950000E+03	1.774996E-15	5.247589E-17
3.960000E+03	1.781387E-15	5.260966E-17
3.970000E+03	1.787811E-15	5.274397E-17
3.980000E+03	1.794267E-15	5.287885E-17
3.990000E+03	1.800810E-15	5.301592E-17
4.000000E+03	1.807387E-15	5.315359E-17
4.010000E+03	1.814035E-15	5.329298E-17
4.020000E+03	1.820755E-15	5.343409E-17
4.030000E+03	1.827566E-15	5.357746E-17
4.040000E+03	1.834451E-15	5.372264E-17
4.050000E+03	1.841414E-15	5.386971E-17
4.060000E+03	1.848474E-15	5.401922E-17
4.070000E+03	1.855652E-15	5.417179E-17
4.080000E+03	1.862917E-15	5.432652E-17
4.090000E+03	1.870308E-15	5.448450E-17
4.100000E+03	1.877812E-15	5.464541E-17
4.110000E+03	1.885452E-15	5.480987E-17
4.120000E+03	1.893216E-15	5.497754E-17
4.130000E+03	1.901130E-15	5.514915E-17
4.140000E+03	1.909199E-15	5.532485E-17
4.150000E+03	1.917429E-15	5.550481E-17
4.160000E+03	1.925811E-15	5.568878E-17
4.170000E+03	1.934372E-15	5.587748E-17
4.180000E+03	1.943098E-15	5.607054E-17
4.190000E+03	1.952017E-15	5.626874E-17
4.200000E+03	1.961101E-15	5.647125E-17
4.210000E+03	1.970373E-15	5.667876E-17
4.220000E+03	1.979823E-15	5.689094E-17
4.230000E+03	1.989456E-15	5.710795E-17
4.240000E+03	1.999259E-15	5.732939E-17
4.250000E+03	2.009218E-15	5.755484E-17
4.260000E+03	2.019335E-15	5.778441E-17
4.270000E+03	2.029577E-15	5.801708E-17
4.280000E+03	2.039925E-15	5.825232E-17
4.290000E+03	2.050357E-15	5.848955E-17
4.300000E+03	2.060816E-15	5.872709E-17
4.310000E+03	2.071294E-15	5.896475E-17
4.320000E+03	2.081747E-15	5.920127E-17
4.330000E+03	2.092089E-15	5.943423E-17
4.340000E+03	2.102305E-15	5.966323E-17
4.350000E+03	2.112339E-15	5.988669E-17
4.360000E+03	2.122134E-15	6.010300E-17
4.370000E+03	2.131661E-15	6.031141E-17
4.380000E+03	2.140942E-15	6.051257E-17
4.390000E+03	2.149958E-15	6.070593E-17
4.400000E+03	2.158707E-15	6.089150E-17
4.410000E+03	2.167221E-15	6.107023E-17
4.420000E+03	2.175479E-15	6.124151E-17
4.430000E+03	2.183494E-15	6.140573E-17
4.440000E+03	2.191241E-15	6.156225E-17
4.450000E+03	2.198736E-15	6.171151E-17
4.460000E+03	2.205976E-15	6.185343E-17
4.470000E+03	2.212939E-15	6.198745E-17
4.480000E+03	2.219604E-15	6.211301E-17
4.490000E+03	2.225953E-15	6.222959E-17
4.500000E+03	2.232009E-15	6.233790E-17
4.510000E+03	2.237718E-15	6.243645E-17
4.520000E+03	2.243089E-15	6.252551E-17
4.530000E+03	2.248072E-15	6.260371E-17
4.540000E+03	2.252703E-15	6.267208E-17
4.550000E+03	2.256958E-15	6.273000E-17
4.560000E+03	2.260799E-15	6.277643E-17
4.570000E+03	2.264229E-15	6.281151E-17
4.580000E+03	2.267279E-15	6.283609E-17
4.590000E+03	2.269897E-15	6.284881E-17
4.600000E+03	2.272142E-15	6.285129E-17
4.610000E+03	2.273971E-15	6.284239E-17
4.620000E+03	2.275408E-15	6.282282E-17
4.630000E+03	2.276500E-15	6.279390E-17
4.640000E+03	2.277238E-15	6.275539E-17
4.650000E+03	2.277656E-15	6.270825E-17
4.660000E+03	2.277789E-15	6.265352E-17
4.670000E+03	2.277702E-15	6.259294E-17
4.680000E+03	2.277397E-15	6.252659E-17
4.690000E+03	2.276958E-15	6.245685E-17
4.700000E+03	2.276436E-15	6.238506E-17
4.710000E+03	2.275798E-15	6.231036E-17
4.720000E+03	2.275034E-15	6.223247E-17
4.730000E+03	2.274134E-15	6.215112E-17
4.740000E+03	2.273089E-15	6.206610E-17
4.750000E+03	2.271912E-15	6.197775E-17
4.760000E+03	2.270619E-15	6.188653E-17
4.770000E+03	2.269221E-15	6.179274E-17
4.780000E+03	2.267734E-15	6.169682E-17
4.790000E+03	2.266211E-15	6.160024E-17
4.800000E+03	2.264623E-15	6.150221E-17
4.810000E+03	2.263067E-15	6.140531E-17
4.820000E+03	2.261528E-15	6.130922E-17
4.830000E+03	2.260060E-15	6.121533E-17
4.840000E+03	2.258688E-15	6.112434E-17
4.850000E+03	2.257458E-15	6.103750E-17
4.860000E+03	2.256372E-15	6.095486E-17
4.870000E+03	2.255473E-15	6.087751E-17
4.880000E+03	2.254778E-15	6.080597E-17
4.890000E+03	2.254321E-15	6.074111E-17
4.900000E+03	2.254117E-15	6.068330E-17
4.910000E+03	2.254173E-15	6.063274E-17
4.920000E+03	2.254494E-15	6.058957E-17
4.930000E+03	2.255126E-15	6.055496E-17
4.940000E+03	2.256026E-15	6.052776E-17
4.950000E+03	2.257231E-15	6.050894E-17
4.960000E+03	2.258735E-15	6.049834E-17
4.970000E+03	2.260507E-15	6.049507E-17
4.980000E+03	2.262552E-15	6.049928E-17
4.990000E+03	2.264854E-15	6.051055E-17
5.000000E+03	2.267416E-15	6.052890E-17
5.010000E+03	2.270193E-15	6.055313E-17
5.020000E+03	2.273159E-15	6.058254E-17
5.030000E+03	2.276306E-15	6.061693E-17
5.040000E+03	2.279607E-15	6.065554E-17
5.050000E+03	2.283005E-15	6.069687E-17
5.060000E+03	2.286487E-15	6.074057E-17
5.070000E+03	2.290020E-15	6.078575E-17
5.080000E+03	2.293542E-15	6.083078E-17
5.090000E+03	2.297038E-15	6.087527E-17
5.100000E+03	2.300468E-15	6.091816E-17
5.110000E+03	2.303793E-15	6.095841E-17
5.120000E+03	2.306951E-15	6.099445E-17
5.130000E+03	2.309904E-15	6.102523E-17
5.140000E+03	2.312634E-15	6.105032E-17
5.150000E+03	2.315105E-15	6.106878E-17
5.160000E+03	2.317257E-15	6.107907E-17
5.170000E+03	2.319058E-15	6.108033E-17
5.180000E+03	2.320471E-15	6.107166E-17
5.190000E+03	2.321468E-15	6.105235E-17
5.200000E+03	2.321997E-15	6.102102E-17
5.210000E+03	2.322079E-15	6.097826E-17
5.220000E+03	2.321642E-15	6.092226E-17
5.230000E+03	2.320690E-15	6.085312E-17
5.240000E+03	2.319181E-15	6.076980E-17
5.250000E+03	2.317102E-15	6.067195E-17
5.260000E+03	2.314440E-15	6.055931E-17
5.270000E+03	2.311162E-15	6.043105E-17
5.280000E+03	2.307285E-15	6.028763E-17
5.290000E+03	2.302804E-15	6.012895E-17
5.300000E+03	2.297672E-15	5.995386E-17
5.310000E+03	2.291935E-15	5.976356E-17
5.320000E+03	2.285549E-15	5.955697E-17
5.330000E+03	2.278543E-15	5.933485E-17
5.340000E+03	2.270900E-15	5.909680E-17
5.350000E+03	2.262626E-15	5.884303E-17
5.360000E+03	2.253709E-15	5.857326E-17
5.370000E+03	2.244204E-15	5.828891E-17
5.380000E+03	2.234055E-15	5.798861E-17
5.390000E+03	2.223299E-15	5.767328E-17
5.400000E+03	2.211950E-15	5.734335E-17
5.410000E+03	2.200023E-15	5.699921E-17
5.420000E+03	2.187518E-15	5.664085E-17
5.430000E+03	2.174454E-15	5.626885E-17
5.440000E+03	2.160867E-15	5.588407E-17
5.450000E+03	2.146786E-15	5.548732E-17
5.460000E+03	2.132268E-15	5.508009E-17
5.470000E+03	2.117345E-15	5.466322E-17
5.480000E+03	2.102010E-15	5.423650E-17
5.490000E+03	2.086275E-15	5.380026E-17
5.500000E+03	2.070214E-15	5.335643E-17
5.510000E+03	2.053797E-15	5.290423E-17
5.520000E+03	2.037096E-15	5.244550E-17
5.530000E+03	2.020098E-15	5.197994E-17
5.540000E+03	2.002851E-15	5.150879E-17
5.550000E+03	1.985403E-15	5.103325E-17
5.560000E+03	1.967740E-15	5.055297E-17
5.570000E+03	1.949906E-15	5.006907E-17
5.580000E+03	1.931942E-15	4.958263E-17
5.590000E+03	1.913832E-15	4.909319E-17
5.600000E+03	1.895615E-15	4.860179E-17
5.610000E+03	1.877332E-15	4.810945E-17
5.620000E+03	1.858962E-15	4.761563E-17
5.630000E+03	1.840562E-15	4.712179E-17
5.640000E+03	1.822149E-15	4.662832E-17
5.650000E+03	1.803698E-15	4.613463E-17
5.660000E+03	1.785264E-15	4.564206E-17
5.670000E+03	1.766861E-15	4.515101E-17
5.680000E+03	1.748484E-15	4.466129E-17
5.690000E+03	1.730164E-15	4.417373E-17
5.700000E+03	1.711893E-15	4.368809E-17
5.710000E+03	1.693702E-15	4.320516E-17
5.720000E+03	1.675601E-15	4.272517E-17
5.730000E+03	1.657600E-15	4.224837E-17
5.740000E+03	1.639709E-15	4.177500E-17
5.750000E+03	1.621952E-15	4.130568E-17
5.760000E+03	1.604304E-15	4.083976E-17
5.770000E+03	1.586810E-15	4.037832E-17
5.780000E+03	1.569456E-15	3.992105E-17
5.790000E+03	1.552253E-15	3.946820E-17
5.800000E+03	1.535221E-15	3.902029E-17
5.810000E+03	1.518372E-15	3.857756E-17
5.820000E+03	1.501708E-15	3.814009E-17
5.830000E+03	1.485237E-15	3.770805E-17
5.840000E+03	1.468964E-15	3.728158E-17
5.850000E+03	1.452896E-15	3.686082E-17
5.860000E+03	1.437055E-15	3.644633E-17
5.870000E+03	1.421446E-15	3.603822E-17
5.880000E+03	1.406059E-15	3.563622E-17
5.890000E+03	1.390915E-15	3.524086E-17
5.900000E+03	1.376020E-15	3.485225E-17
5.910000E+03	1.361394E-15	3.447094E-17
5.920000E+03	1.347028E-15	3.409665E-17
5.930000E+03	1.332939E-15	3.372983E-17
5.940000E+03	1.319136E-15	3.337066E-17
5.950000E+03	1.305622E-15	3.301920E-17
5.960000E+03	1.292416E-15	3.267596E-17
5.970000E+03	1.279523E-15	3.234103E-17
5.980000E+03	1.266931E-15	3.201408E-17
5.990000E+03	1.254675E-15	3.169602E-17
6.000000E+03	1.242743E-15	3.138651E-17
6.010000E+03	1.231153E-15	3.108602E-17
6.020000E+03	1.219907E-15	3.079457E-17
6.030000E+03	1.209010E-15	3.051225E-17
6.040000E+03	1.198475E-15	3.023945E-17
6.050000E+03	1.188322E-15	2.997659E-17
6.060000E+03	1.178521E-15	2.972294E-17
6.070000E+03	1.169103E-15	2.947929E-17
6.080000E+03	1.160068E-15	2.924557E-17
6.090000E+03	1.151429E-15	2.902218E-17
6.100000E+03	1.143188E-15	2.880909E-17
6.110000E+03	1.135356E-15	2.860662E-17
6.120000E+03	1.127918E-15	2.841434E-17
6.130000E+03	1.120913E-15	2.823329E-17
6.140000E+03	1.114339E-15	2.806335E-17
6.150000E+03	1.108193E-15	2.790445E-17
6.160000E+03	1.102513E-15	2.775757E-17
6.170000E+03	1.097281E-15	2.762221E-17
6.180000E+03	1.092518E-15	2.749895E-17
6.190000E+03	1.088179E-15	2.738661E-17
6.200000E+03	1.084269E-15	2.728532E-17
6.210000E+03	1.080769E-15	2.719461E-17
6.220000E+03	1.077658E-15	2.711391E-17
6.230000E+03	1.074912E-15	2.704268E-17
6.240000E+03	1.072509E-15	2.698030E-17
6.250000E+03	1.070424E-15	2.692620E-17
6.260000E+03	1.068676E-15	2.688081E-17
6.270000E+03	1.067212E-15	2.684283E-17
6.280000E+03	1.066032E-15	2.681225E-17
6.290000E+03	1.065111E-15	2.678844E-17
6.300000E+03	1.064449E-15	2.677141E-17
6.310000E+03	1.064017E-15	2.676041E-17
6.320000E+03	1.063787E-15	2.675476E-17
6.330000E+03	1.063770E-15	2.675474E-17
6.340000E+03	1.063921E-15	2.675923E-17
6.350000E+03	1.064222E-15	2.676776E-17
6.360000E+03	1.064685E-15	2.678063E-17
6.370000E+03	1.065261E-15	2.679665E-17
6.380000E+03	1.065945E-15	2.681568E-17
6.390000E+03	1.066704E-15	2.683686E-17
6.400000E+03	1.067544E-15	2.686039E-17
6.410000E+03	1.068416E-15	2.688505E-17
6.420000E+03	1.069312E-15	2.691060E-17
6.430000E+03	1.070210E-15	2.693650E-17
6.440000E+03	1.071057E-15	2.696143E-17
6.450000E+03	1.071860E-15	2.698559E-17
6.460000E+03	1.072580E-15	2.700794E-17
6.470000E+03	1.073194E-15	2.702795E-17
6.480000E+03	1.073663E-15	2.704458E-17
6.490000E+03	1.073979E-15	2.705765E-17
6.500000E+03	1.074104E-15	2.706619E-17
6.510000E+03	1.074030E-15	2.706999E-17
6.520000E+03	1.073706E-15	2.706777E-17
6.530000E+03	1.073141E-15	2.705972E-17
6.540000E+03	1.072302E-15	2.704503E-17
6.550000E+03	1.071156E-15	2.702282E-17
6.560000E+03	1.069705E-15	2.699318E-17
6.570000E+03	1.067924E-15	2.695540E-17
6.580000E+03	1.065820E-15	2.690972E-17
6.590000E+03	1.063382E-15	2.685579E-17
6.600000E+03	1.060618E-15	2.679384E-17
6.610000E+03	1.057556E-15	2.672453E-17
6.620000E+03	1.054177E-15	2.664740E-17
6.630000E+03	1.050530E-15	2.656363E-17
6.640000E+03	1.046614E-15	2.647322E-17
6.650000E+03	1.042448E-15	2.637664E-17
6.660000E+03	1.038051E-15	2.627434E-17
6.670000E+03	1.033457E-15	2.616718E-17
6.680000E+03	1.028654E-15	2.605483E-17
6.690000E+03	1.023678E-15	2.593819E-17
6.700000E+03	1.018562E-15	2.581811E-17
6.710000E+03	1.013309E-15	2.569462E-17
6.720000E+03	1.007921E-15	2.556779E-17
6.730000E+03	1.002447E-15	2.543884E-17
6.740000E+03	9.969036E-16	2.530818E-17
6.750000E+03	9.912749E-16	2.517540E-17
6.760000E+03	9.856079E-16	2.504170E-17
6.770000E+03	9.799009E-16	2.490701E-17
6.780000E+03	9.741677E-16	2.477169E-17
6.790000E+03	9.684368E-16	2.463644E-17
6.800000E+03	9.627041E-16	2.450117E-17
6.810000E+03	9.569966E-16	2.436655E-17
6.820000E+03	9.513086E-16	2.423243E-17
6.830000E+03	9.456652E-16	2.409945E-17
6.840000E+03	9.400594E-16	2.396742E-17
6.850000E+03	9.345145E-16	2.383694E-17
6.860000E+03	9.290372E-16	2.370818E-17
6.870000E+03	9.236182E-16	2.358089E-17
6.880000E+03	9.182783E-16	2.345561E-17
6.890000E+03	9.130070E-16	2.333206E-17
6.900000E+03	9.078388E-16	2.321112E-17
6.910000E+03	9.027461E-16	2.309209E-17
6.920000E+03	8.977471E-16	2.297544E-17
6.930000E+03	8.928435E-16	2.286120E-17
6.940000E+03	8.880369E-16	2.274942E-17
6.950000E+03	8.833279E-16	2.264011E-17
6.960000E+03	8.787167E-16	2.253328E-17
6.970000E+03	8.742032E-16	2.242893E-17
6.980000E+03	8.697867E-16	2.232704E-17
6.990000E+03	8.654505E-16	2.222717E-17
7.000000E+03	8.612239E-16	2.213009E-17
7.010000E+03	8.570896E-16	2.203535E-17
7.020000E+03	8.530451E-16	2.194289E-17
7.030000E+03	8.491035E-16	2.185305E-17
7.040000E+03	8.452311E-16	2.176495E-17
7.050000E+03	8.414554E-16	2.167931E-17
7.060000E+03	8.377579E-16	2.159566E-17
7.070000E+03	8.341352E-16	2.151390E-17
7.080000E+03	8.305835E-16	2.143394E-17
7.090000E+03	8.271147E-16	2.135610E-17
7.100000E+03	8.237097E-16	2.127986E-17
7.110000E+03	8.203799E-16	2.120554E-17
7.120000E+03	8.171062E-16	2.113264E-17
7.130000E+03	8.138848E-16	2.106106E-17
7.140000E+03	8.107273E-16	2.099111E-17
7.150000E+03	8.076301E-16	2.092268E-17
7.160000E+03	8.045742E-16	2.085530E-17
7.170000E+03	8.015714E-16	2.078926E-17
7.180000E+03	7.986029E-16	2.072408E-17
7.190000E+03	7.956810E-16	2.066008E-17
7.200000E+03	7.928027E-16	2.059719E-17
7.210000E+03	7.899651E-16	2.053532E-17
7.220000E+03	7.871653E-16	2.047441E-17
7.230000E+03	7.844011E-16	2.041439E-17
7.240000E+03	7.816544E-16	2.035480E-17
7.250000E+03	7.789542E-16	2.029639E-17
7.260000E+03	7.762831E-16	2.023871E-17
7.270000E+03	7.736394E-16	2.018171E-17
7.280000E+03	7.710372E-16	2.012578E-17
7.290000E+03	7.684595E-16	2.007045E-17
7.300000E+03	7.659209E-16	2.001612E-17
7.310000E+03	7.634206E-16	1.996276E-17
7.320000E+03	7.609577E-16	1.991036E-17
7.330000E+03	7.585318E-16	1.985890E-17
7.340000E+03	7.561582E-16	1.980879E-17
7.350000E+03	7.538209E-16	1.975960E-17
7.360000E+03	7.515517E-16	1.971218E-17
7.370000E+03	7.493667E-16	1.966695E-17
7.380000E+03	7.472340E-16	1.962308E-17
7.390000E+03	7.452024E-16	1.958184E-17
7.400000E+03	7.432723E-16	1.954327E-17
7.410000E+03	7.414605E-16	1.950780E-17
7.420000E+03	7.397681E-16	1.947547E-17
7.430000E+03	7.382119E-16	1.944672E-17
7.440000E+03	7.367768E-16	1.942118E-17
7.450000E+03	7.354314E-16	1.939800E-17
7.460000E+03	7.341926E-16	1.937766E-17
7.470000E+03	7.330288E-16	1.935931E-17
7.480000E+03	7.319406E-16	1.934298E-17
7.490000E+03	7.308959E-16	1.932782E-17
7.500000E+03	7.299120E-16	1.931429E-17
7.510000E+03	7.289891E-16	1.930241E-17
7.520000E+03	7.280952E-16	1.929133E-17
7.530000E+03	7.272469E-16	1.928149E-17
7.540000E+03	7.264284E-16	1.927248E-17
7.550000E+03	7.256400E-16	1.926430E-17
7.560000E+03	7.248985E-16	1.925740E-17
7.570000E+03	7.241880E-16	1.925137E-17
7.580000E+03	7.235084E-16	1.924621E-17
7.590000E+03	7.228604E-16	1.924193E-17
7.600000E+03	7.222440E-16	1.923855E-17
7.610000E+03	7.216596E-16	1.923606E-17
7.620000E+03	7.211074E-16	1.923449E-17
7.630000E+03	7.205877E-16	1.923384E-17
7.640000E+03	7.201006E-16	1.923412E-17
7.650000E+03	7.196464E-16	1.923533E-17
7.660000E+03	7.192254E-16	1.923750E-17
7.670000E+03	7.188376E-16	1.924062E-17
7.680000E+03	7.185006E-16	1.924517E-17
7.690000E+03	7.181801E-16	1.925023E-17
7.700000E+03	7.179109E-16	1.925674E-17
7.710000E+03	7.176586E-16	1.926379E-17
7.720000E+03	7.174578E-16	1.927229E-17
7.730000E+03	7.172918E-16	1.928181E-17
7.740000E+03	7.171781E-16	1.929283E-17
7.750000E+03	7.170994E-16	1.930488E-17
7.760000E+03	7.170560E-16	1.931797E-17
