#wls	flux	fluxerr
1.600000E+03	1.246605E-16	5.038701E-18
1.640000E+03	1.257313E-16	5.077731E-18
1.680000E+03	1.268442E-16	5.118271E-18
1.720000E+03	1.279760E-16	5.159385E-18
1.760000E+03	1.291463E-16	5.201851E-18
1.800000E+03	1.303533E-16	5.245588E-18
1.840000E+03	1.316169E-16	5.291382E-18
1.880000E+03	1.329566E-16	5.340011E-18
1.920000E+03	1.343709E-16	5.391394E-18
1.960000E+03	1.359015E-16	5.447191E-18
2.000000E+03	1.375463E-16	5.507293E-18
2.040000E+03	1.393251E-16	5.572469E-18
2.080000E+03	1.412794E-16	5.644356E-18
2.120000E+03	1.434065E-16	5.722809E-18
2.160000E+03	1.457921E-16	5.811214E-18
2.200000E+03	1.484100E-16	5.908482E-18
2.240000E+03	1.513002E-16	6.016154E-18
2.280000E+03	1.544351E-16	6.133086E-18
2.320000E+03	1.578081E-16	6.258967E-18
2.360000E+03	1.613902E-16	6.392595E-18
2.400000E+03	1.651959E-16	6.534492E-18
2.440000E+03	1.691720E-16	6.682510E-18
2.480000E+03	1.733320E-16	6.837131E-18
2.520000E+03	1.776441E-16	6.997061E-18
2.560000E+03	1.820987E-16	7.161866E-18
2.600000E+03	1.867075E-16	7.331970E-18
2.640000E+03	1.914164E-16	7.505199E-18
2.680000E+03	1.962586E-16	7.682817E-18
2.720000E+03	2.012021E-16	7.863523E-18
2.760000E+03	2.063010E-16	8.049390E-18
2.800000E+03	2.115444E-16	8.239937E-18
2.840000E+03	2.169636E-16	8.436326E-18
2.880000E+03	2.224631E-16	8.634795E-18
2.920000E+03	2.280335E-16	8.834941E-18
2.960000E+03	2.335837E-16	9.033193E-18
3.000000E+03	2.391694E-16	9.231683E-18
3.010000E+03	2.405679E-16	9.281208E-18
3.020000E+03	2.419530E-16	9.330139E-18
3.030000E+03	2.433650E-16	9.380036E-18
3.040000E+03	2.447633E-16	9.429329E-18
3.050000E+03	2.461680E-16	9.478799E-18
3.060000E+03	2.475792E-16	9.528439E-18
3.070000E+03	2.489964E-16	9.578237E-18
3.080000E+03	2.503997E-16	9.627423E-18
3.090000E+03	2.518290E-16	9.677534E-18
3.100000E+03	2.532641E-16	9.727792E-18
3.110000E+03	2.547049E-16	9.778187E-18
3.120000E+03	2.561512E-16	9.828715E-18
3.130000E+03	2.576226E-16	9.880129E-18
3.140000E+03	2.590794E-16	9.930898E-18
3.150000E+03	2.605807E-16	9.983297E-18
3.160000E+03	2.620670E-16	1.003504E-17
3.170000E+03	2.635972E-16	1.008837E-17
3.180000E+03	2.651316E-16	1.014179E-17
3.190000E+03	2.666701E-16	1.019527E-17
3.200000E+03	2.682514E-16	1.025031E-17
3.210000E+03	2.698556E-16	1.030613E-17
3.220000E+03	2.714825E-16	1.036273E-17
3.230000E+03	2.731314E-16	1.042008E-17
3.240000E+03	2.748022E-16	1.047817E-17
3.250000E+03	2.765136E-16	1.053772E-17
3.260000E+03	2.782458E-16	1.059796E-17
3.270000E+03	2.800368E-16	1.066034E-17
3.280000E+03	2.818477E-16	1.072339E-17
3.290000E+03	2.837159E-16	1.078851E-17
3.300000E+03	2.856219E-16	1.085496E-17
3.310000E+03	2.875838E-16	1.092343E-17
3.320000E+03	2.895819E-16	1.099317E-17
3.330000E+03	2.916533E-16	1.106557E-17
3.340000E+03	2.937780E-16	1.113989E-17
3.350000E+03	2.959553E-16	1.121608E-17
3.360000E+03	2.982215E-16	1.129552E-17
3.370000E+03	3.005568E-16	1.137745E-17
3.380000E+03	3.029600E-16	1.146182E-17
3.390000E+03	3.054484E-16	1.154928E-17
3.400000E+03	3.080392E-16	1.164048E-17
3.410000E+03	3.107307E-16	1.173533E-17
3.420000E+03	3.135214E-16	1.183379E-17
3.430000E+03	3.164278E-16	1.193646E-17
3.440000E+03	3.194482E-16	1.204327E-17
3.450000E+03	3.225987E-16	1.215482E-17
3.460000E+03	3.258953E-16	1.227170E-17
3.470000E+03	3.293176E-16	1.239314E-17
3.480000E+03	3.329174E-16	1.252107E-17
3.490000E+03	3.366916E-16	1.265536E-17
3.500000E+03	3.406373E-16	1.279590E-17
3.510000E+03	3.447695E-16	1.294323E-17
3.520000E+03	3.490849E-16	1.309721E-17
3.530000E+03	3.536329E-16	1.325968E-17
3.540000E+03	3.583745E-16	1.342917E-17
3.550000E+03	3.633233E-16	1.360618E-17
3.560000E+03	3.684755E-16	1.379053E-17
3.570000E+03	3.738269E-16	1.398206E-17
3.580000E+03	3.793731E-16	1.418059E-17
3.590000E+03	3.850925E-16	1.438530E-17
3.600000E+03	3.909807E-16	1.459601E-17
3.610000E+03	3.970161E-16	1.481190E-17
3.620000E+03	4.032111E-16	1.503342E-17
3.630000E+03	4.095438E-16	1.525974E-17
3.640000E+03	4.160095E-16	1.549068E-17
3.650000E+03	4.225692E-16	1.572478E-17
3.660000E+03	4.292515E-16	1.596308E-17
3.670000E+03	4.360176E-16	1.620414E-17
3.680000E+03	4.428621E-16	1.644775E-17
3.690000E+03	4.497627E-16	1.669308E-17
3.700000E+03	4.567302E-16	1.694051E-17
3.710000E+03	4.637419E-16	1.718921E-17
3.720000E+03	4.707754E-16	1.743834E-17
3.730000E+03	4.778242E-16	1.768764E-17
3.740000E+03	4.848817E-16	1.793689E-17
3.750000E+03	4.919244E-16	1.818520E-17
3.760000E+03	4.989454E-16	1.843232E-17
3.770000E+03	5.059369E-16	1.867797E-17
3.780000E+03	5.128751E-16	1.892126E-17
3.790000E+03	5.197517E-16	1.916190E-17
3.800000E+03	5.265428E-16	1.939900E-17
3.810000E+03	5.332393E-16	1.963224E-17
3.820000E+03	5.398323E-16	1.986130E-17
3.830000E+03	5.462968E-16	2.008526E-17
3.840000E+03	5.526235E-16	2.030379E-17
3.850000E+03	5.587876E-16	2.051598E-17
3.860000E+03	5.647798E-16	2.072152E-17
3.870000E+03	5.705902E-16	2.092004E-17
3.880000E+03	5.761949E-16	2.111070E-17
3.890000E+03	5.815850E-16	2.129316E-17
3.900000E+03	5.867378E-16	2.146663E-17
3.910000E+03	5.916462E-16	2.163086E-17
3.920000E+03	5.963037E-16	2.178563E-17
3.930000E+03	6.006915E-16	2.193027E-17
3.940000E+03	6.047924E-16	2.206418E-17
3.950000E+03	6.086197E-16	2.218786E-17
3.960000E+03	6.121604E-16	2.230086E-17
3.970000E+03	6.154044E-16	2.240284E-17
3.980000E+03	6.183581E-16	2.249405E-17
3.990000E+03	6.210172E-16	2.257436E-17
4.000000E+03	6.234065E-16	2.264469E-17
4.010000E+03	6.255266E-16	2.270509E-17
4.020000E+03	6.273807E-16	2.275570E-17
4.030000E+03	6.289747E-16	2.279674E-17
4.040000E+03	6.303545E-16	2.282991E-17
4.050000E+03	6.315040E-16	2.285463E-17
4.060000E+03	6.324594E-16	2.287225E-17
4.070000E+03	6.332329E-16	2.288320E-17
4.080000E+03	6.338502E-16	2.288844E-17
4.090000E+03	6.343372E-16	2.288892E-17
4.100000E+03	6.347086E-16	2.288517E-17
4.110000E+03	6.349915E-16	2.287818E-17
4.120000E+03	6.352009E-16	2.286850E-17
4.130000E+03	6.353642E-16	2.285712E-17
4.140000E+03	6.355078E-16	2.284500E-17
4.150000E+03	6.356574E-16	2.283306E-17
4.160000E+03	6.358275E-16	2.282182E-17
4.170000E+03	6.360424E-16	2.281215E-17
4.180000E+03	6.363367E-16	2.280529E-17
4.190000E+03	6.367112E-16	2.280126E-17
4.200000E+03	6.371982E-16	2.280122E-17
4.210000E+03	6.378075E-16	2.280550E-17
4.220000E+03	6.385688E-16	2.281515E-17
4.230000E+03	6.395002E-16	2.283082E-17
4.240000E+03	6.406080E-16	2.285270E-17
4.250000E+03	6.419284E-16	2.288209E-17
4.260000E+03	6.434548E-16	2.291872E-17
4.270000E+03	6.452206E-16	2.296376E-17
4.280000E+03	6.472369E-16	2.301761E-17
4.290000E+03	6.495136E-16	2.308057E-17
4.300000E+03	6.520687E-16	2.315329E-17
4.310000E+03	6.549087E-16	2.323595E-17
4.320000E+03	6.580481E-16	2.332906E-17
4.330000E+03	6.614898E-16	2.343268E-17
4.340000E+03	6.652643E-16	2.354789E-17
4.350000E+03	6.693507E-16	2.367391E-17
4.360000E+03	6.737760E-16	2.381166E-17
4.370000E+03	6.785367E-16	2.396101E-17
4.380000E+03	6.836496E-16	2.412251E-17
4.390000E+03	6.891101E-16	2.429597E-17
4.400000E+03	6.949302E-16	2.448179E-17
4.410000E+03	7.011084E-16	2.467989E-17
4.420000E+03	7.076393E-16	2.489004E-17
4.430000E+03	7.145027E-16	2.511151E-17
4.440000E+03	7.217035E-16	2.534445E-17
4.450000E+03	7.292014E-16	2.558740E-17
4.460000E+03	7.369502E-16	2.583873E-17
4.470000E+03	7.449082E-16	2.609695E-17
4.480000E+03	7.530282E-16	2.636039E-17
4.490000E+03	7.612164E-16	2.662576E-17
4.500000E+03	7.694348E-16	2.689172E-17
4.510000E+03	7.775792E-16	2.715464E-17
4.520000E+03	7.856034E-16	2.741291E-17
4.530000E+03	7.934058E-16	2.766298E-17
4.540000E+03	8.009042E-16	2.790203E-17
4.550000E+03	8.080265E-16	2.812757E-17
4.560000E+03	8.146917E-16	2.833680E-17
4.570000E+03	8.208113E-16	2.852670E-17
4.580000E+03	8.263344E-16	2.869553E-17
4.590000E+03	8.311857E-16	2.884074E-17
4.600000E+03	8.353201E-16	2.896083E-17
4.610000E+03	8.386930E-16	2.905430E-17
4.620000E+03	8.412720E-16	2.912010E-17
4.630000E+03	8.430474E-16	2.915796E-17
4.640000E+03	8.440233E-16	2.916810E-17
4.650000E+03	8.442056E-16	2.915077E-17
4.660000E+03	8.436331E-16	2.910739E-17
4.670000E+03	8.423252E-16	2.903869E-17
4.680000E+03	8.403414E-16	2.894678E-17
4.690000E+03	8.377389E-16	2.883369E-17
4.700000E+03	8.345911E-16	2.870200E-17
4.710000E+03	8.309556E-16	2.855372E-17
4.720000E+03	8.269216E-16	2.839197E-17
4.730000E+03	8.225495E-16	2.821885E-17
4.740000E+03	8.179270E-16	2.803740E-17
4.750000E+03	8.131198E-16	2.784988E-17
4.760000E+03	8.081990E-16	2.765875E-17
4.770000E+03	8.032305E-16	2.746627E-17
4.780000E+03	7.982737E-16	2.727447E-17
4.790000E+03	7.933734E-16	2.708489E-17
4.800000E+03	7.885676E-16	2.689881E-17
4.810000E+03	7.838883E-16	2.671732E-17
4.820000E+03	7.793527E-16	2.654099E-17
4.830000E+03	7.749725E-16	2.637022E-17
4.840000E+03	7.707548E-16	2.620522E-17
4.850000E+03	7.667277E-16	2.604695E-17
4.860000E+03	7.628723E-16	2.589475E-17
4.870000E+03	7.592097E-16	2.574931E-17
4.880000E+03	7.557245E-16	2.561010E-17
4.890000E+03	7.524252E-16	2.547739E-17
4.900000E+03	7.493031E-16	2.535088E-17
4.910000E+03	7.463671E-16	2.523085E-17
4.920000E+03	7.436187E-16	2.511734E-17
4.930000E+03	7.410546E-16	2.501022E-17
4.940000E+03	7.386904E-16	2.491000E-17
4.950000E+03	7.365371E-16	2.481705E-17
4.960000E+03	7.346021E-16	2.473158E-17
4.970000E+03	7.329198E-16	2.465474E-17
4.980000E+03	7.314969E-16	2.458674E-17
4.990000E+03	7.303739E-16	2.452892E-17
5.000000E+03	7.295702E-16	2.448189E-17
5.010000E+03	7.291222E-16	2.444687E-17
5.020000E+03	7.290514E-16	2.442454E-17
5.030000E+03	7.293952E-16	2.441612E-17
5.040000E+03	7.301748E-16	2.442229E-17
5.050000E+03	7.314341E-16	2.444448E-17
5.060000E+03	7.331920E-16	2.448329E-17
5.070000E+03	7.354738E-16	2.453952E-17
5.080000E+03	7.383026E-16	2.461390E-17
5.090000E+03	7.417069E-16	2.470734E-17
5.100000E+03	7.456969E-16	2.482013E-17
5.110000E+03	7.502953E-16	2.495298E-17
5.120000E+03	7.555139E-16	2.510624E-17
5.130000E+03	7.613528E-16	2.527987E-17
5.140000E+03	7.678321E-16	2.547447E-17
5.150000E+03	7.749356E-16	2.568948E-17
5.160000E+03	7.826754E-16	2.592523E-17
5.170000E+03	7.910346E-16	2.618114E-17
5.180000E+03	7.999998E-16	2.645670E-17
5.190000E+03	8.095531E-16	2.675128E-17
5.200000E+03	8.196803E-16	2.706437E-17
5.210000E+03	8.303457E-16	2.739475E-17
5.220000E+03	8.415178E-16	2.774134E-17
5.230000E+03	8.531698E-16	2.810324E-17
5.240000E+03	8.652628E-16	2.847912E-17
5.250000E+03	8.777458E-16	2.886728E-17
5.260000E+03	8.905738E-16	2.926622E-17
5.270000E+03	9.037089E-16	2.967467E-17
5.280000E+03	9.171027E-16	3.009102E-17
5.290000E+03	9.306963E-16	3.051334E-17
5.300000E+03	9.444489E-16	3.094027E-17
5.310000E+03	9.583008E-16	3.136986E-17
5.320000E+03	9.722016E-16	3.180047E-17
5.330000E+03	9.861116E-16	3.223078E-17
5.340000E+03	9.999717E-16	3.265889E-17
5.350000E+03	1.013743E-15	3.308354E-17
5.360000E+03	1.027366E-15	3.350281E-17
5.370000E+03	1.040790E-15	3.391505E-17
5.380000E+03	1.053974E-15	3.431893E-17
5.390000E+03	1.066841E-15	3.471200E-17
5.400000E+03	1.079353E-15	3.509308E-17
5.410000E+03	1.091437E-15	3.545980E-17
5.420000E+03	1.103012E-15	3.580959E-17
5.430000E+03	1.114023E-15	3.614065E-17
5.440000E+03	1.124365E-15	3.644970E-17
5.450000E+03	1.133927E-15	3.673318E-17
5.460000E+03	1.142621E-15	3.698827E-17
5.470000E+03	1.150345E-15	3.721177E-17
5.480000E+03	1.156989E-15	3.740019E-17
5.490000E+03	1.162475E-15	3.755105E-17
5.500000E+03	1.166719E-15	3.766178E-17
5.510000E+03	1.169639E-15	3.772976E-17
5.520000E+03	1.171189E-15	3.775366E-17
5.530000E+03	1.171321E-15	3.773199E-17
5.540000E+03	1.170036E-15	3.766490E-17
5.550000E+03	1.167326E-15	3.755219E-17
5.560000E+03	1.163211E-15	3.739462E-17
5.570000E+03	1.157743E-15	3.719398E-17
5.580000E+03	1.150972E-15	3.695189E-17
5.590000E+03	1.142985E-15	3.667130E-17
5.600000E+03	1.133877E-15	3.635526E-17
5.610000E+03	1.123760E-15	3.600748E-17
5.620000E+03	1.112739E-15	3.563138E-17
5.630000E+03	1.100934E-15	3.523080E-17
5.640000E+03	1.088481E-15	3.481018E-17
5.650000E+03	1.075495E-15	3.437321E-17
5.660000E+03	1.062109E-15	3.392419E-17
5.670000E+03	1.048447E-15	3.346706E-17
5.680000E+03	1.034623E-15	3.300549E-17
5.690000E+03	1.020744E-15	3.254290E-17
5.700000E+03	1.006910E-15	3.208246E-17
5.710000E+03	9.932083E-16	3.162695E-17
5.720000E+03	9.797180E-16	3.117887E-17
5.730000E+03	9.665051E-16	3.074031E-17
5.740000E+03	9.536343E-16	3.031329E-17
5.750000E+03	9.411295E-16	2.989855E-17
5.760000E+03	9.290418E-16	2.949770E-17
5.770000E+03	9.173920E-16	2.911135E-17
5.780000E+03	9.061727E-16	2.873926E-17
5.790000E+03	8.954035E-16	2.838201E-17
5.800000E+03	8.850687E-16	2.803907E-17
5.810000E+03	8.751626E-16	2.771025E-17
5.820000E+03	8.656559E-16	2.739458E-17
5.830000E+03	8.565149E-16	2.709098E-17
5.840000E+03	8.477285E-16	2.679907E-17
5.850000E+03	8.392577E-16	2.651761E-17
5.860000E+03	8.310713E-16	2.624558E-17
5.870000E+03	8.231389E-16	2.598202E-17
5.880000E+03	8.154313E-16	2.572597E-17
5.890000E+03	8.079134E-16	2.547633E-17
5.900000E+03	8.005695E-16	2.523259E-17
5.910000E+03	7.933709E-16	2.499383E-17
5.920000E+03	7.863086E-16	2.475976E-17
5.930000E+03	7.793534E-16	2.452946E-17
5.940000E+03	7.725120E-16	2.430311E-17
5.950000E+03	7.657627E-16	2.408005E-17
5.960000E+03	7.591112E-16	2.386043E-17
5.970000E+03	7.525428E-16	2.364380E-17
5.980000E+03	7.460758E-16	2.343071E-17
5.990000E+03	7.397073E-16	2.322108E-17
6.000000E+03	7.334433E-16	2.301508E-17
6.010000E+03	7.272821E-16	2.281266E-17
6.020000E+03	7.212301E-16	2.261400E-17
6.030000E+03	7.152998E-16	2.241950E-17
6.040000E+03	7.094809E-16	2.222882E-17
6.050000E+03	7.037840E-16	2.204229E-17
6.060000E+03	6.982105E-16	2.185995E-17
6.070000E+03	6.927539E-16	2.168160E-17
6.080000E+03	6.874208E-16	2.150741E-17
6.090000E+03	6.822090E-16	2.133734E-17
6.100000E+03	6.771093E-16	2.117108E-17
6.110000E+03	6.721260E-16	2.100875E-17
6.120000E+03	6.672566E-16	2.085029E-17
6.130000E+03	6.624926E-16	2.069541E-17
6.140000E+03	6.578478E-16	2.054454E-17
6.150000E+03	6.533177E-16	2.039754E-17
6.160000E+03	6.489210E-16	2.025499E-17
6.170000E+03	6.446463E-16	2.011652E-17
6.180000E+03	6.405334E-16	1.998338E-17
6.190000E+03	6.365792E-16	1.985546E-17
6.200000E+03	6.328179E-16	1.973382E-17
6.210000E+03	6.292673E-16	1.961902E-17
6.220000E+03	6.259618E-16	1.951212E-17
6.230000E+03	6.229180E-16	1.941363E-17
6.240000E+03	6.201671E-16	1.932452E-17
6.250000E+03	6.177468E-16	1.924597E-17
6.260000E+03	6.156807E-16	1.917869E-17
6.270000E+03	6.139970E-16	1.912356E-17
6.280000E+03	6.127203E-16	1.908136E-17
6.290000E+03	6.118645E-16	1.905250E-17
6.300000E+03	6.114517E-16	1.903767E-17
6.310000E+03	6.114782E-16	1.903675E-17
6.320000E+03	6.119601E-16	1.905025E-17
6.330000E+03	6.128869E-16	1.907783E-17
6.340000E+03	6.142403E-16	1.911894E-17
6.350000E+03	6.160147E-16	1.917339E-17
6.360000E+03	6.181631E-16	1.923972E-17
6.370000E+03	6.206710E-16	1.931750E-17
6.380000E+03	6.234767E-16	1.940481E-17
6.390000E+03	6.265458E-16	1.950057E-17
6.400000E+03	6.298177E-16	1.960292E-17
6.410000E+03	6.332413E-16	1.971027E-17
6.420000E+03	6.367486E-16	1.982051E-17
6.430000E+03	6.402838E-16	1.993191E-17
6.440000E+03	6.437914E-16	2.004276E-17
6.450000E+03	6.472176E-16	2.015138E-17
6.460000E+03	6.505191E-16	2.025643E-17
6.470000E+03	6.536426E-16	2.035626E-17
6.480000E+03	6.565627E-16	2.045009E-17
6.490000E+03	6.592232E-16	2.053616E-17
6.500000E+03	6.615897E-16	2.061340E-17
6.510000E+03	6.636272E-16	2.068071E-17
6.520000E+03	6.653163E-16	2.073747E-17
6.530000E+03	6.666442E-16	2.078330E-17
6.540000E+03	6.676135E-16	2.081824E-17
6.550000E+03	6.682170E-16	2.084208E-17
6.560000E+03	6.684611E-16	2.085499E-17
6.570000E+03	6.683807E-16	2.085806E-17
6.580000E+03	6.679641E-16	2.085091E-17
6.590000E+03	6.672365E-16	2.083431E-17
6.600000E+03	6.661905E-16	2.080802E-17
6.610000E+03	6.648298E-16	2.077214E-17
6.620000E+03	6.631766E-16	2.072734E-17
6.630000E+03	6.612234E-16	2.067338E-17
6.640000E+03	6.590051E-16	2.061134E-17
6.650000E+03	6.565192E-16	2.054112E-17
6.660000E+03	6.537969E-16	2.046368E-17
6.670000E+03	6.508469E-16	2.037929E-17
6.680000E+03	6.476961E-16	2.028875E-17
6.690000E+03	6.443640E-16	2.019269E-17
6.700000E+03	6.408707E-16	2.009170E-17
6.710000E+03	6.372373E-16	1.998644E-17
6.720000E+03	6.334847E-16	1.987756E-17
6.730000E+03	6.296497E-16	1.976618E-17
6.740000E+03	6.257288E-16	1.965220E-17
6.750000E+03	6.217659E-16	1.953699E-17
6.760000E+03	6.177719E-16	1.942087E-17
6.770000E+03	6.137577E-16	1.930418E-17
6.780000E+03	6.097563E-16	1.918795E-17
6.790000E+03	6.057761E-16	1.907244E-17
6.800000E+03	6.018329E-16	1.895815E-17
6.810000E+03	5.979487E-16	1.884575E-17
6.820000E+03	5.941293E-16	1.873543E-17
6.830000E+03	5.903868E-16	1.862758E-17
6.840000E+03	5.867403E-16	1.852278E-17
6.850000E+03	5.832000E-16	1.842136E-17
6.860000E+03	5.797669E-16	1.832336E-17
6.870000E+03	5.764564E-16	1.822926E-17
6.880000E+03	5.732673E-16	1.813902E-17
6.890000E+03	5.702125E-16	1.805305E-17
6.900000E+03	5.672878E-16	1.797123E-17
6.910000E+03	5.645112E-16	1.789412E-17
6.920000E+03	5.618610E-16	1.782104E-17
6.930000E+03	5.593602E-16	1.775273E-17
6.940000E+03	5.569928E-16	1.768869E-17
6.950000E+03	5.547645E-16	1.762909E-17
6.960000E+03	5.526657E-16	1.757363E-17
6.970000E+03	5.507011E-16	1.752247E-17
6.980000E+03	5.488605E-16	1.747530E-17
6.990000E+03	5.471486E-16	1.743225E-17
7.000000E+03	5.455555E-16	1.739303E-17
7.010000E+03	5.440865E-16	1.735781E-17
7.020000E+03	5.427324E-16	1.732629E-17
7.030000E+03	5.414996E-16	1.729868E-17
7.040000E+03	5.403798E-16	1.727474E-17
7.050000E+03	5.393728E-16	1.725445E-17
7.060000E+03	5.384787E-16	1.723782E-17
7.070000E+03	5.376977E-16	1.722486E-17
7.080000E+03	5.370301E-16	1.721559E-17
7.090000E+03	5.364761E-16	1.721002E-17
7.100000E+03	5.360358E-16	1.720816E-17
7.110000E+03	5.357086E-16	1.720999E-17
7.120000E+03	5.354936E-16	1.721550E-17
7.130000E+03	5.353816E-16	1.722439E-17
7.140000E+03	5.353702E-16	1.723659E-17
7.150000E+03	5.354640E-16	1.725225E-17
7.160000E+03	5.356512E-16	1.727100E-17
7.170000E+03	5.359275E-16	1.729271E-17
7.180000E+03	5.362870E-16	1.731718E-17
7.190000E+03	5.367241E-16	1.734425E-17
7.200000E+03	5.372242E-16	1.737344E-17
7.210000E+03	5.377881E-16	1.740479E-17
7.220000E+03	5.384009E-16	1.743781E-17
7.230000E+03	5.390551E-16	1.747226E-17
7.240000E+03	5.397435E-16	1.750791E-17
7.250000E+03	5.404588E-16	1.754453E-17
7.260000E+03	5.411944E-16	1.758191E-17
7.270000E+03	5.419279E-16	1.761930E-17
7.280000E+03	5.426691E-16	1.765704E-17
7.290000E+03	5.433967E-16	1.769443E-17
7.300000E+03	5.441140E-16	1.773156E-17
7.310000E+03	5.448167E-16	1.776831E-17
7.320000E+03	5.454849E-16	1.780402E-17
7.330000E+03	5.461240E-16	1.783886E-17
7.340000E+03	5.467234E-16	1.787248E-17
7.350000E+03	5.472817E-16	1.790483E-17
7.360000E+03	5.477979E-16	1.793588E-17
7.370000E+03	5.482639E-16	1.796535E-17
7.380000E+03	5.486882E-16	1.799352E-17
7.390000E+03	5.490561E-16	1.801990E-17
7.400000E+03	5.493777E-16	1.804482E-17
7.410000E+03	5.496394E-16	1.806782E-17
7.420000E+03	5.498610E-16	1.808956E-17
7.430000E+03	5.500383E-16	1.810989E-17
7.440000E+03	5.501758E-16	1.812895E-17
7.450000E+03	5.502782E-16	1.814690E-17
7.460000E+03	5.503590E-16	1.816417E-17
7.470000E+03	5.504066E-16	1.818039E-17
7.480000E+03	5.504428E-16	1.819626E-17
7.490000E+03	5.504647E-16	1.821169E-17
7.500000E+03	5.504852E-16	1.822711E-17
7.510000E+03	5.505176E-16	1.824295E-17
7.520000E+03	5.505577E-16	1.825908E-17
7.530000E+03	5.506176E-16	1.827589E-17
7.540000E+03	5.507008E-16	1.829351E-17
7.550000E+03	5.508184E-16	1.831230E-17
7.560000E+03	5.509642E-16	1.833207E-17
7.570000E+03	5.511483E-16	1.835314E-17
7.580000E+03	5.513717E-16	1.837556E-17
7.590000E+03	5.516348E-16	1.839934E-17
7.600000E+03	5.519375E-16	1.842448E-17
7.610000E+03	5.522876E-16	1.845124E-17
7.620000E+03	5.526841E-16	1.847960E-17
7.630000E+03	5.531253E-16	1.850949E-17
7.640000E+03	5.536002E-16	1.854056E-17
7.650000E+03	5.541237E-16	1.857331E-17
7.660000E+03	5.546754E-16	1.860705E-17
7.670000E+03	5.552692E-16	1.864225E-17
7.680000E+03	5.558929E-16	1.867851E-17
7.690000E+03	5.565512E-16	1.871599E-17
7.700000E+03	5.572219E-16	1.875395E-17
7.710000E+03	5.579275E-16	1.879313E-17
7.720000E+03	5.586361E-16	1.883248E-17
7.730000E+03	5.593609E-16	1.887243E-17
7.740000E+03	5.600787E-16	1.891220E-17
7.750000E+03	5.608025E-16	1.895223E-17
7.760000E+03	5.615272E-16	1.899236E-17
