#wls	flux	fluxerr
1.600000E+03	3.560403E-17	7.123494E-19
1.640000E+03	3.607952E-17	7.211673E-19
1.680000E+03	3.656557E-17	7.301589E-19
1.720000E+03	3.707598E-17	7.395974E-19
1.760000E+03	3.759671E-17	7.492004E-19
1.800000E+03	3.814179E-17	7.592450E-19
1.840000E+03	3.870399E-17	7.695847E-19
1.880000E+03	3.929044E-17	7.803587E-19
1.920000E+03	3.989363E-17	7.914144E-19
1.960000E+03	4.052823E-17	8.030400E-19
2.000000E+03	4.118661E-17	8.150806E-19
2.040000E+03	4.186843E-17	8.275258E-19
2.080000E+03	4.257322E-17	8.403629E-19
2.120000E+03	4.331617E-17	8.538876E-19
2.160000E+03	4.408907E-17	8.679331E-19
2.200000E+03	4.489125E-17	8.824819E-19
2.240000E+03	4.573816E-17	8.978323E-19
2.280000E+03	4.661283E-17	9.136455E-19
2.320000E+03	4.753056E-17	9.302160E-19
2.360000E+03	4.849030E-17	9.475170E-19
2.400000E+03	4.949071E-17	9.655155E-19
2.440000E+03	5.053863E-17	9.843379E-19
2.480000E+03	5.163226E-17	1.003942E-18
2.520000E+03	5.277799E-17	1.024443E-18
2.560000E+03	5.398199E-17	1.045952E-18
2.600000E+03	5.524149E-17	1.068407E-18
2.640000E+03	5.656186E-17	1.091901E-18
2.680000E+03	5.794801E-17	1.116517E-18
2.720000E+03	5.940434E-17	1.142329E-18
2.760000E+03	6.093453E-17	1.169396E-18
2.800000E+03	6.255035E-17	1.197928E-18
2.840000E+03	6.424503E-17	1.227781E-18
2.880000E+03	6.603716E-17	1.259296E-18
2.920000E+03	6.792650E-17	1.292448E-18
2.960000E+03	6.992017E-17	1.327356E-18
3.000000E+03	7.202359E-17	1.364101E-18
3.010000E+03	7.257073E-17	1.373650E-18
3.020000E+03	7.311983E-17	1.383220E-18
3.030000E+03	7.367934E-17	1.392969E-18
3.040000E+03	7.424899E-17	1.402893E-18
3.050000E+03	7.481986E-17	1.412823E-18
3.060000E+03	7.540898E-17	1.423079E-18
3.070000E+03	7.599877E-17	1.433330E-18
3.080000E+03	7.659757E-17	1.443732E-18
3.090000E+03	7.721370E-17	1.454442E-18
3.100000E+03	7.782959E-17	1.465128E-18
3.110000E+03	7.845355E-17	1.475947E-18
3.120000E+03	7.909378E-17	1.487051E-18
3.130000E+03	7.973282E-17	1.498114E-18
3.140000E+03	8.038740E-17	1.509448E-18
3.150000E+03	8.104859E-17	1.520885E-18
3.160000E+03	8.172450E-17	1.532577E-18
3.170000E+03	8.240623E-17	1.544356E-18
3.180000E+03	8.309336E-17	1.556215E-18
3.190000E+03	8.379392E-17	1.568303E-18
3.200000E+03	8.450743E-17	1.580611E-18
3.210000E+03	8.522500E-17	1.592971E-18
3.220000E+03	8.596290E-17	1.605688E-18
3.230000E+03	8.669557E-17	1.618283E-18
3.240000E+03	8.744750E-17	1.631214E-18
3.250000E+03	8.820981E-17	1.644313E-18
3.260000E+03	8.898193E-17	1.657570E-18
3.270000E+03	8.976328E-17	1.670973E-18
3.280000E+03	9.055329E-17	1.684512E-18
3.290000E+03	9.135949E-17	1.698325E-18
3.300000E+03	9.216495E-17	1.712098E-18
3.310000E+03	9.299341E-17	1.726270E-18
3.320000E+03	9.382791E-17	1.740527E-18
3.330000E+03	9.466781E-17	1.754856E-18
3.340000E+03	9.552841E-17	1.769540E-18
3.350000E+03	9.639293E-17	1.784267E-18
3.360000E+03	9.726860E-17	1.799171E-18
3.370000E+03	9.815461E-17	1.814237E-18
3.380000E+03	9.905011E-17	1.829447E-18
3.390000E+03	9.995428E-17	1.844786E-18
3.400000E+03	1.008740E-16	1.860382E-18
3.410000E+03	1.018007E-16	1.876073E-18
3.420000E+03	1.027410E-16	1.891983E-18
3.430000E+03	1.036940E-16	1.908093E-18
3.440000E+03	1.046509E-16	1.924244E-18
3.450000E+03	1.056186E-16	1.940557E-18
3.460000E+03	1.065957E-16	1.957010E-18
3.470000E+03	1.075815E-16	1.973587E-18
3.480000E+03	1.085820E-16	1.990399E-18
3.490000E+03	1.095888E-16	2.007290E-18
3.500000E+03	1.106007E-16	2.024238E-18
3.510000E+03	1.116237E-16	2.041355E-18
3.520000E+03	1.126568E-16	2.058617E-18
3.530000E+03	1.136913E-16	2.075869E-18
3.540000E+03	1.147404E-16	2.093348E-18
3.550000E+03	1.157956E-16	2.110900E-18
3.560000E+03	1.168554E-16	2.128497E-18
3.570000E+03	1.179256E-16	2.146245E-18
3.580000E+03	1.189976E-16	2.163986E-18
3.590000E+03	1.200772E-16	2.181824E-18
3.600000E+03	1.211558E-16	2.199605E-18
3.610000E+03	1.222459E-16	2.217554E-18
3.620000E+03	1.233390E-16	2.235515E-18
3.630000E+03	1.244340E-16	2.253470E-18
3.640000E+03	1.255296E-16	2.271394E-18
3.650000E+03	1.266316E-16	2.289393E-18
3.660000E+03	1.277396E-16	2.307457E-18
3.670000E+03	1.288533E-16	2.325581E-18
3.680000E+03	1.299668E-16	2.343658E-18
3.690000E+03	1.310940E-16	2.361938E-18
3.700000E+03	1.322304E-16	2.380341E-18
3.710000E+03	1.333853E-16	2.399033E-18
3.720000E+03	1.345567E-16	2.417974E-18
3.730000E+03	1.357503E-16	2.437269E-18
3.740000E+03	1.369857E-16	2.457266E-18
3.750000E+03	1.382661E-16	2.478021E-18
3.760000E+03	1.395957E-16	2.499606E-18
3.770000E+03	1.409986E-16	2.522452E-18
3.780000E+03	1.424817E-16	2.546676E-18
3.790000E+03	1.440637E-16	2.572609E-18
3.800000E+03	1.457513E-16	2.600364E-18
3.810000E+03	1.475615E-16	2.630240E-18
3.820000E+03	1.495042E-16	2.662406E-18
3.830000E+03	1.515804E-16	2.696874E-18
3.840000E+03	1.538056E-16	2.733912E-18
3.850000E+03	1.561688E-16	2.773316E-18
3.860000E+03	1.586762E-16	2.815190E-18
3.870000E+03	1.613068E-16	2.859152E-18
3.880000E+03	1.640577E-16	2.905146E-18
3.890000E+03	1.669105E-16	2.952840E-18
3.900000E+03	1.698315E-16	3.001631E-18
3.910000E+03	1.728063E-16	3.051261E-18
3.920000E+03	1.758012E-16	3.101134E-18
3.930000E+03	1.787862E-16	3.150719E-18
3.940000E+03	1.817358E-16	3.199565E-18
3.950000E+03	1.846132E-16	3.247028E-18
3.960000E+03	1.873871E-16	3.292562E-18
3.970000E+03	1.900274E-16	3.335641E-18
3.980000E+03	1.925058E-16	3.375777E-18
3.990000E+03	1.947962E-16	3.412522E-18
4.000000E+03	1.968710E-16	3.445400E-18
4.010000E+03	1.987188E-16	3.474224E-18
4.020000E+03	2.003272E-16	3.498789E-18
4.030000E+03	2.016782E-16	3.518794E-18
4.040000E+03	2.027797E-16	3.534389E-18
4.050000E+03	2.036234E-16	3.545442E-18
4.060000E+03	2.042199E-16	3.552156E-18
4.070000E+03	2.045735E-16	3.554612E-18
4.080000E+03	2.046965E-16	3.553043E-18
4.090000E+03	2.045989E-16	3.547630E-18
4.100000E+03	2.042979E-16	3.538688E-18
4.110000E+03	2.038124E-16	3.526549E-18
4.120000E+03	2.031582E-16	3.511502E-18
4.130000E+03	2.023569E-16	3.493927E-18
4.140000E+03	2.014312E-16	3.474225E-18
4.150000E+03	2.003961E-16	3.452659E-18
4.160000E+03	1.992752E-16	3.429644E-18
4.170000E+03	1.980964E-16	3.405663E-18
4.180000E+03	1.968705E-16	3.380908E-18
4.190000E+03	1.956232E-16	3.355820E-18
4.200000E+03	1.943711E-16	3.330684E-18
4.210000E+03	1.931325E-16	3.305817E-18
4.220000E+03	1.919164E-16	3.281371E-18
4.230000E+03	1.907413E-16	3.257660E-18
4.240000E+03	1.896132E-16	3.234785E-18
4.250000E+03	1.885440E-16	3.212948E-18
4.260000E+03	1.875409E-16	3.192267E-18
4.270000E+03	1.866179E-16	3.172975E-18
4.280000E+03	1.857749E-16	3.155068E-18
4.290000E+03	1.850282E-16	3.138818E-18
4.300000E+03	1.843818E-16	3.124285E-18
4.310000E+03	1.838461E-16	3.111645E-18
4.320000E+03	1.834295E-16	3.101027E-18
4.330000E+03	1.831500E-16	3.092733E-18
4.340000E+03	1.830125E-16	3.086834E-18
4.350000E+03	1.830375E-16	3.083671E-18
4.360000E+03	1.832385E-16	3.083459E-18
4.370000E+03	1.836362E-16	3.086539E-18
4.380000E+03	1.842499E-16	3.093220E-18
4.390000E+03	1.850995E-16	3.103822E-18
4.400000E+03	1.862073E-16	3.118708E-18
4.410000E+03	1.875902E-16	3.138145E-18
4.420000E+03	1.892715E-16	3.162503E-18
4.430000E+03	1.912597E-16	3.191908E-18
4.440000E+03	1.935713E-16	3.226617E-18
4.450000E+03	1.962075E-16	3.266628E-18
4.460000E+03	1.991738E-16	3.312015E-18
4.470000E+03	2.024652E-16	3.362673E-18
4.480000E+03	2.060647E-16	3.418301E-18
4.490000E+03	2.099539E-16	3.478575E-18
4.500000E+03	2.141102E-16	3.543103E-18
4.510000E+03	2.184924E-16	3.611187E-18
4.520000E+03	2.230595E-16	3.682138E-18
4.530000E+03	2.277595E-16	3.755085E-18
4.540000E+03	2.325330E-16	3.829040E-18
4.550000E+03	2.373122E-16	3.902886E-18
4.560000E+03	2.420289E-16	3.975501E-18
4.570000E+03	2.465977E-16	4.045488E-18
4.580000E+03	2.509421E-16	4.111599E-18
4.590000E+03	2.549809E-16	4.172523E-18
4.600000E+03	2.586287E-16	4.226880E-18
4.610000E+03	2.618153E-16	4.273550E-18
4.620000E+03	2.644718E-16	4.311436E-18
4.630000E+03	2.665431E-16	4.339676E-18
4.640000E+03	2.679930E-16	4.357716E-18
4.650000E+03	2.687909E-16	4.365099E-18
4.660000E+03	2.689324E-16	4.361793E-18
4.670000E+03	2.684267E-16	4.347990E-18
4.680000E+03	2.673062E-16	4.324254E-18
4.690000E+03	2.656127E-16	4.291297E-18
4.700000E+03	2.634062E-16	4.250129E-18
4.710000E+03	2.607553E-16	4.201883E-18
4.720000E+03	2.577358E-16	4.147809E-18
4.730000E+03	2.544349E-16	4.089332E-18
4.740000E+03	2.509349E-16	4.027793E-18
4.750000E+03	2.473138E-16	3.964451E-18
4.760000E+03	2.436527E-16	3.900617E-18
4.770000E+03	2.400183E-16	3.837360E-18
4.780000E+03	2.364773E-16	3.775740E-18
4.790000E+03	2.330822E-16	3.716592E-18
4.800000E+03	2.298759E-16	3.660590E-18
4.810000E+03	2.268905E-16	3.608233E-18
4.820000E+03	2.241513E-16	3.559907E-18
4.830000E+03	2.216687E-16	3.515765E-18
4.840000E+03	2.194507E-16	3.475913E-18
4.850000E+03	2.174948E-16	3.440300E-18
4.860000E+03	2.157931E-16	3.408782E-18
4.870000E+03	2.143329E-16	3.381143E-18
4.880000E+03	2.130944E-16	3.357056E-18
4.890000E+03	2.120605E-16	3.336238E-18
4.900000E+03	2.112006E-16	3.318197E-18
4.910000E+03	2.104837E-16	3.302434E-18
4.920000E+03	2.098732E-16	3.288366E-18
4.930000E+03	2.093355E-16	3.275461E-18
4.940000E+03	2.088297E-16	3.263079E-18
4.950000E+03	2.083220E-16	3.250686E-18
4.960000E+03	2.077829E-16	3.237824E-18
4.970000E+03	2.071949E-16	3.224226E-18
4.980000E+03	2.065463E-16	3.209710E-18
4.990000E+03	2.058411E-16	3.194343E-18
5.000000E+03	2.050964E-16	3.178396E-18
5.010000E+03	2.043336E-16	3.162200E-18
5.020000E+03	2.035892E-16	3.146324E-18
5.030000E+03	2.028998E-16	3.131329E-18
5.040000E+03	2.023096E-16	3.117893E-18
5.050000E+03	2.018597E-16	3.106644E-18
5.060000E+03	2.015859E-16	3.098124E-18
5.070000E+03	2.015269E-16	3.092913E-18
5.080000E+03	2.017077E-16	3.091384E-18
5.090000E+03	2.021526E-16	3.093892E-18
5.100000E+03	2.028807E-16	3.100713E-18
5.110000E+03	2.039008E-16	3.111963E-18
5.120000E+03	2.052250E-16	3.127809E-18
5.130000E+03	2.068563E-16	3.148278E-18
5.140000E+03	2.087976E-16	3.173394E-18
5.150000E+03	2.110519E-16	3.203182E-18
5.160000E+03	2.136157E-16	3.237573E-18
5.170000E+03	2.164887E-16	3.276541E-18
5.180000E+03	2.196652E-16	3.319983E-18
5.190000E+03	2.231352E-16	3.367727E-18
5.200000E+03	2.268903E-16	3.419629E-18
5.210000E+03	2.309157E-16	3.475451E-18
5.220000E+03	2.351908E-16	3.534866E-18
5.230000E+03	2.396979E-16	3.597595E-18
5.240000E+03	2.444068E-16	3.663171E-18
5.250000E+03	2.492856E-16	3.731103E-18
5.260000E+03	2.542984E-16	3.800847E-18
5.270000E+03	2.594082E-16	3.871845E-18
5.280000E+03	2.645703E-16	3.943423E-18
5.290000E+03	2.697409E-16	4.014930E-18
5.300000E+03	2.748818E-16	4.085796E-18
5.310000E+03	2.799443E-16	4.155305E-18
5.320000E+03	2.848876E-16	4.222858E-18
5.330000E+03	2.896817E-16	4.288016E-18
5.340000E+03	2.942926E-16	4.350292E-18
5.350000E+03	2.986951E-16	4.409325E-18
5.360000E+03	3.028717E-16	4.464869E-18
5.370000E+03	3.068140E-16	4.516819E-18
5.380000E+03	3.105132E-16	4.565060E-18
5.390000E+03	3.139678E-16	4.609585E-18
5.400000E+03	3.171824E-16	4.650479E-18
5.410000E+03	3.201585E-16	4.687780E-18
5.420000E+03	3.228914E-16	4.721435E-18
5.430000E+03	3.253790E-16	4.751428E-18
5.440000E+03	3.276078E-16	4.777579E-18
5.450000E+03	3.295539E-16	4.799553E-18
5.460000E+03	3.311798E-16	4.816826E-18
5.470000E+03	3.324448E-16	4.828823E-18
5.480000E+03	3.332941E-16	4.834769E-18
5.490000E+03	3.336663E-16	4.833801E-18
5.500000E+03	3.334977E-16	4.825026E-18
5.510000E+03	3.327264E-16	4.807578E-18
5.520000E+03	3.312972E-16	4.780694E-18
5.530000E+03	3.291689E-16	4.743820E-18
5.540000E+03	3.263208E-16	4.696695E-18
5.550000E+03	3.227487E-16	4.639299E-18
5.560000E+03	3.184774E-16	4.572026E-18
5.570000E+03	3.135483E-16	4.495510E-18
5.580000E+03	3.080252E-16	4.410696E-18
5.590000E+03	3.019913E-16	4.318808E-18
5.600000E+03	2.955266E-16	4.221014E-18
5.610000E+03	2.887298E-16	4.118743E-18
5.620000E+03	2.817007E-16	4.013433E-18
5.630000E+03	2.745323E-16	3.906420E-18
5.640000E+03	2.673144E-16	3.798984E-18
5.650000E+03	2.601371E-16	3.692404E-18
5.660000E+03	2.530805E-16	3.587814E-18
5.670000E+03	2.462156E-16	3.486209E-18
5.680000E+03	2.396088E-16	3.388517E-18
5.690000E+03	2.333214E-16	3.295588E-18
5.700000E+03	2.274002E-16	3.208064E-18
5.710000E+03	2.218913E-16	3.126576E-18
5.720000E+03	2.168297E-16	3.051592E-18
5.730000E+03	2.122411E-16	2.983451E-18
5.740000E+03	2.081469E-16	2.922426E-18
5.750000E+03	2.045524E-16	2.868569E-18
5.760000E+03	2.014637E-16	2.821936E-18
5.770000E+03	1.988707E-16	2.782362E-18
5.780000E+03	1.967589E-16	2.749620E-18
5.790000E+03	1.951038E-16	2.723342E-18
5.800000E+03	1.938797E-16	2.703149E-18
5.810000E+03	1.930500E-16	2.688510E-18
5.820000E+03	1.925826E-16	2.678960E-18
5.830000E+03	1.924360E-16	2.673904E-18
5.840000E+03	1.925721E-16	2.672800E-18
5.850000E+03	1.929481E-16	2.675041E-18
5.860000E+03	1.935240E-16	2.680061E-18
5.870000E+03	1.942553E-16	2.687238E-18
5.880000E+03	1.950977E-16	2.695953E-18
5.890000E+03	1.960139E-16	2.705685E-18
5.900000E+03	1.969610E-16	2.715843E-18
5.910000E+03	1.979049E-16	2.725953E-18
5.920000E+03	1.988131E-16	2.735572E-18
5.930000E+03	1.996554E-16	2.744284E-18
5.940000E+03	2.004137E-16	2.751847E-18
5.950000E+03	2.010708E-16	2.758027E-18
5.960000E+03	2.016185E-16	2.762719E-18
5.970000E+03	2.020572E-16	2.765931E-18
5.980000E+03	2.023855E-16	2.767651E-18
5.990000E+03	2.026127E-16	2.768011E-18
6.000000E+03	2.027517E-16	2.767190E-18
6.010000E+03	2.028115E-16	2.765318E-18
6.020000E+03	2.028087E-16	2.762622E-18
6.030000E+03	2.027616E-16	2.759355E-18
6.040000E+03	2.026846E-16	2.755714E-18
6.050000E+03	2.025972E-16	2.751967E-18
6.060000E+03	2.025166E-16	2.748347E-18
6.070000E+03	2.024577E-16	2.745057E-18
6.080000E+03	2.024425E-16	2.742395E-18
6.090000E+03	2.024821E-16	2.740509E-18
6.100000E+03	2.025938E-16	2.739632E-18
6.110000E+03	2.027889E-16	2.739916E-18
6.120000E+03	2.030783E-16	2.741504E-18
6.130000E+03	2.034677E-16	2.744472E-18
6.140000E+03	2.039621E-16	2.748883E-18
6.150000E+03	2.045587E-16	2.754697E-18
6.160000E+03	2.052533E-16	2.761856E-18
6.170000E+03	2.060367E-16	2.770234E-18
6.180000E+03	2.068905E-16	2.779583E-18
6.190000E+03	2.078039E-16	2.789754E-18
6.200000E+03	2.087485E-16	2.800368E-18
6.210000E+03	2.097072E-16	2.811195E-18
6.220000E+03	2.106534E-16	2.821881E-18
6.230000E+03	2.115699E-16	2.832195E-18
6.240000E+03	2.124429E-16	2.841956E-18
6.250000E+03	2.132609E-16	2.851012E-18
6.260000E+03	2.140262E-16	2.859395E-18
6.270000E+03	2.147457E-16	2.867203E-18
6.280000E+03	2.154348E-16	2.874643E-18
6.290000E+03	2.161151E-16	2.882002E-18
6.300000E+03	2.168100E-16	2.889596E-18
6.310000E+03	2.175465E-16	2.897785E-18
6.320000E+03	2.183514E-16	2.906926E-18
6.330000E+03	2.192507E-16	2.917364E-18
6.340000E+03	2.202672E-16	2.929403E-18
6.350000E+03	2.214161E-16	2.943245E-18
6.360000E+03	2.227147E-16	2.959115E-18
6.370000E+03	2.241685E-16	2.977089E-18
6.380000E+03	2.257678E-16	2.997035E-18
6.390000E+03	2.275049E-16	3.018851E-18
6.400000E+03	2.293518E-16	3.042165E-18
6.410000E+03	2.312691E-16	3.066458E-18
6.420000E+03	2.332044E-16	3.091034E-18
6.430000E+03	2.351032E-16	3.115172E-18
6.440000E+03	2.368983E-16	3.137987E-18
6.450000E+03	2.385252E-16	3.158628E-18
6.460000E+03	2.399227E-16	3.176288E-18
6.470000E+03	2.410290E-16	3.190155E-18
6.480000E+03	2.417871E-16	3.199479E-18
6.490000E+03	2.421547E-16	3.203704E-18
6.500000E+03	2.420946E-16	3.202343E-18
6.510000E+03	2.415868E-16	3.195133E-18
6.520000E+03	2.406223E-16	3.181958E-18
6.530000E+03	2.392044E-16	3.162860E-18
6.540000E+03	2.373594E-16	3.138188E-18
6.550000E+03	2.351107E-16	3.108252E-18
6.560000E+03	2.325059E-16	3.073676E-18
6.570000E+03	2.295877E-16	3.035024E-18
6.580000E+03	2.264029E-16	2.992913E-18
6.590000E+03	2.230057E-16	2.948053E-18
6.600000E+03	2.194375E-16	2.900990E-18
6.610000E+03	2.157413E-16	2.852286E-18
6.620000E+03	2.119446E-16	2.802304E-18
6.630000E+03	2.080792E-16	2.751457E-18
6.640000E+03	2.041643E-16	2.699997E-18
6.650000E+03	2.002178E-16	2.648158E-18
6.660000E+03	1.962568E-16	2.596160E-18
6.670000E+03	1.922906E-16	2.544123E-18
6.680000E+03	1.883369E-16	2.492277E-18
6.690000E+03	1.844087E-16	2.440793E-18
6.700000E+03	1.805177E-16	2.389820E-18
6.710000E+03	1.766807E-16	2.339579E-18
6.720000E+03	1.729128E-16	2.290268E-18
6.730000E+03	1.692302E-16	2.242097E-18
6.740000E+03	1.656510E-16	2.195305E-18
6.750000E+03	1.621876E-16	2.150056E-18
6.760000E+03	1.588595E-16	2.106605E-18
6.770000E+03	1.556740E-16	2.065050E-18
6.780000E+03	1.526415E-16	2.025527E-18
6.790000E+03	1.497672E-16	1.988105E-18
6.800000E+03	1.470610E-16	1.952915E-18
6.810000E+03	1.445212E-16	1.919936E-18
6.820000E+03	1.421543E-16	1.889256E-18
6.830000E+03	1.399611E-16	1.860885E-18
6.840000E+03	1.379474E-16	1.834900E-18
6.850000E+03	1.361124E-16	1.811296E-18
6.860000E+03	1.344605E-16	1.790130E-18
6.870000E+03	1.329943E-16	1.771440E-18
6.880000E+03	1.317159E-16	1.755256E-18
6.890000E+03	1.306262E-16	1.741592E-18
6.900000E+03	1.297262E-16	1.730465E-18
6.910000E+03	1.290121E-16	1.721828E-18
6.920000E+03	1.284804E-16	1.715637E-18
6.930000E+03	1.281225E-16	1.711778E-18
6.940000E+03	1.279305E-16	1.710151E-18
6.950000E+03	1.278919E-16	1.710592E-18
6.960000E+03	1.279907E-16	1.712889E-18
6.970000E+03	1.282130E-16	1.716859E-18
6.980000E+03	1.285422E-16	1.722282E-18
6.990000E+03	1.289613E-16	1.728933E-18
7.000000E+03	1.294545E-16	1.736602E-18
7.010000E+03	1.300074E-16	1.745097E-18
7.020000E+03	1.306079E-16	1.754257E-18
7.030000E+03	1.312469E-16	1.763962E-18
7.040000E+03	1.319203E-16	1.774154E-18
7.050000E+03	1.326272E-16	1.784827E-18
7.060000E+03	1.333727E-16	1.796047E-18
7.070000E+03	1.341614E-16	1.807877E-18
7.080000E+03	1.350072E-16	1.820507E-18
7.090000E+03	1.359207E-16	1.834081E-18
7.100000E+03	1.369149E-16	1.848777E-18
7.110000E+03	1.380046E-16	1.864796E-18
7.120000E+03	1.391998E-16	1.882277E-18
7.130000E+03	1.405099E-16	1.901350E-18
7.140000E+03	1.419444E-16	1.922147E-18
7.150000E+03	1.435061E-16	1.944712E-18
7.160000E+03	1.451985E-16	1.969091E-18
7.170000E+03	1.470176E-16	1.995240E-18
7.180000E+03	1.489603E-16	2.023118E-18
7.190000E+03	1.510169E-16	2.052596E-18
7.200000E+03	1.531718E-16	2.083469E-18
7.210000E+03	1.554115E-16	2.115554E-18
7.220000E+03	1.577105E-16	2.148508E-18
7.230000E+03	1.600454E-16	2.182013E-18
7.240000E+03	1.623887E-16	2.215696E-18
7.250000E+03	1.647130E-16	2.249184E-18
7.260000E+03	1.669856E-16	2.282029E-18
7.270000E+03	1.691749E-16	2.313799E-18
7.280000E+03	1.712495E-16	2.344059E-18
7.290000E+03	1.731828E-16	2.372444E-18
7.300000E+03	1.749405E-16	2.398478E-18
7.310000E+03	1.764967E-16	2.421800E-18
7.320000E+03	1.778238E-16	2.442024E-18
7.330000E+03	1.789045E-16	2.458907E-18
7.340000E+03	1.797183E-16	2.472156E-18
7.350000E+03	1.802564E-16	2.481641E-18
7.360000E+03	1.805127E-16	2.487270E-18
7.370000E+03	1.804848E-16	2.488997E-18
7.380000E+03	1.801797E-16	2.486912E-18
7.390000E+03	1.796015E-16	2.481060E-18
7.400000E+03	1.787636E-16	2.471616E-18
7.410000E+03	1.776849E-16	2.458833E-18
7.420000E+03	1.763768E-16	2.442859E-18
7.430000E+03	1.748619E-16	2.424000E-18
7.440000E+03	1.731620E-16	2.402549E-18
7.450000E+03	1.713026E-16	2.378853E-18
7.460000E+03	1.693059E-16	2.353216E-18
7.470000E+03	1.672008E-16	2.326032E-18
7.480000E+03	1.650146E-16	2.297679E-18
7.490000E+03	1.627792E-16	2.268597E-18
7.500000E+03	1.605230E-16	2.239180E-18
7.510000E+03	1.582794E-16	2.209892E-18
7.520000E+03	1.560782E-16	2.181152E-18
7.530000E+03	1.539535E-16	2.153435E-18
7.540000E+03	1.519351E-16	2.127163E-18
7.550000E+03	1.500472E-16	2.102679E-18
7.560000E+03	1.483196E-16	2.080404E-18
7.570000E+03	1.467730E-16	2.060635E-18
7.580000E+03	1.454262E-16	2.043645E-18
7.590000E+03	1.442954E-16	2.029667E-18
7.600000E+03	1.433914E-16	2.018863E-18
7.610000E+03	1.427235E-16	2.011371E-18
7.620000E+03	1.423002E-16	2.007323E-18
7.630000E+03	1.421257E-16	2.006788E-18
7.640000E+03	1.421974E-16	2.009737E-18
7.650000E+03	1.425155E-16	2.016185E-18
7.660000E+03	1.430756E-16	2.026079E-18
7.670000E+03	1.438709E-16	2.039334E-18
7.680000E+03	1.448849E-16	2.055726E-18
7.690000E+03	1.461014E-16	2.075031E-18
7.700000E+03	1.475030E-16	2.097015E-18
7.710000E+03	1.490606E-16	2.121269E-18
7.720000E+03	1.507476E-16	2.147425E-18
7.730000E+03	1.525320E-16	2.175029E-18
7.740000E+03	1.543787E-16	2.203585E-18
7.750000E+03	1.562502E-16	2.232561E-18
7.760000E+03	1.581048E-16	2.261365E-18
